# FW/GUI: v9.6.1-multi17-dual (PyQt5)
# StartTime: 2026-04-03 16:26:52
# Slot: 13
# DeviceID: 13
# Label: EMG13
# IP: 192.168.137.206
# TCP: 3333
# DeviceFW: EMG_FW_v9.6_MULTI17_DUALCH_RUNTIMECFG_CHEN
# IMU1_RefTime = format(imu_ms) = relative since power-on Time (IMU acquisition time)
IMU1_RefTime,ax_g,ay_g,az_g,gx_dps,gy_dps,gz_dps,mx_uT,my_uT,mz_uT,temp_C,qw,qx,qy,qz
'00:18:46.344,0.058594,0.029785,1.004883,0.304878,1.341463,-0.609756,-4.837500,17.675001,19.381250,31.280,0.56896963,-0.00976275,-0.02884329,-0.82179457
'00:18:46.354,0.059082,0.029785,1.003906,0.304878,1.341463,-0.548781,-4.837500,17.675001,19.381250,31.280,0.56897411,-0.00976177,-0.02884307,-0.82179149
'00:18:46.364,0.059082,0.028809,1.004883,0.365854,1.341463,-0.548781,-4.718750,17.506250,19.293751,31.310,0.56898355,-0.00976621,-0.02884673,-0.82178477
'00:18:46.374,0.059082,0.028809,1.004883,0.365854,1.341463,-0.548781,-4.718750,17.506250,19.293751,31.310,0.56899294,-0.00977056,-0.02885029,-0.82177809
'00:18:46.384,0.060547,0.029785,1.004883,0.365854,1.280488,-0.548781,-4.793750,17.537500,19.287500,31.265,0.56899736,-0.00977913,-0.02886285,-0.82177449
'00:18:46.394,0.059082,0.029297,1.004883,0.365854,1.341463,-0.609756,-4.762500,17.550001,19.306250,31.295,0.56900008,-0.00977902,-0.02886649,-0.82177248
'00:18:46.404,0.060059,0.029297,1.004395,0.365854,1.341463,-0.548781,-4.762500,17.550001,19.306250,31.310,0.56900711,-0.00978456,-0.02887399,-0.82176728
'00:18:46.414,0.060547,0.028320,1.004395,0.365854,1.341463,-0.548781,-4.968750,17.806250,19.450001,31.295,0.56900549,-0.00978774,-0.02886764,-0.82176859
'00:18:46.424,0.059570,0.028809,1.004395,0.304878,1.280488,-0.548781,-4.968750,17.806250,19.450001,31.280,0.56900360,-0.00979107,-0.02885905,-0.82177016
'00:18:46.434,0.059570,0.029297,1.003418,0.365854,1.341463,-0.548781,-4.981250,17.881250,19.525000,31.310,0.56900243,-0.00978578,-0.02885569,-0.82177115
'00:18:46.444,0.058594,0.028809,1.003906,0.304878,1.341463,-0.548781,-4.981250,17.881250,19.525000,31.235,0.56900135,-0.00978006,-0.02884139,-0.82177246
'00:18:46.454,0.059570,0.029297,1.005371,0.365854,1.280488,-0.548781,-4.750000,17.581251,19.312500,31.310,0.56900989,-0.00978830,-0.02885175,-0.82176609
'00:18:46.464,0.058594,0.028809,1.005371,0.304878,1.341463,-0.609756,-4.750000,17.581251,19.312500,31.356,0.56901425,-0.00979140,-0.02884800,-0.82176317
'00:18:46.474,0.059570,0.028809,1.003418,0.304878,1.341463,-0.609756,-4.781250,17.593750,19.293751,31.310,0.56901672,-0.00979843,-0.02884674,-0.82176142
'00:18:46.484,0.060059,0.029297,1.004883,0.365854,1.341463,-0.609756,-4.781250,17.593750,19.293751,31.295,0.56901910,-0.00980278,-0.02885393,-0.82175946
'00:18:46.494,0.059570,0.029297,1.005371,0.304878,1.341463,-0.548781,-4.812500,17.550001,19.337500,31.325,0.56902240,-0.00980503,-0.02885089,-0.82175726
'00:18:46.504,0.059082,0.029297,1.004395,0.304878,1.341463,-0.548781,-4.812500,17.550001,19.337500,31.265,0.56902570,-0.00980474,-0.02884638,-0.82175514
'00:18:46.514,0.060059,0.028809,1.002930,0.304878,1.341463,-0.548781,-5.093750,17.937500,19.637501,31.310,0.56901780,-0.00980136,-0.02883075,-0.82176120
'00:18:46.524,0.060547,0.029785,1.003418,0.304878,1.341463,-0.548781,-5.093750,17.937500,19.637501,31.295,0.56900975,-0.00979686,-0.02882249,-0.82176712
'00:18:46.534,0.060059,0.028809,1.003906,0.365854,1.341463,-0.548781,-5.037500,17.887501,19.593750,31.265,0.56900478,-0.00979293,-0.02881440,-0.82177089
'00:18:46.544,0.059570,0.028320,1.003418,0.304878,1.341463,-0.548781,-5.037500,17.887501,19.593750,31.280,0.56899990,-0.00979145,-0.02879769,-0.82177487
'00:18:46.554,0.058594,0.028320,1.003418,0.304878,1.341463,-0.609756,-4.750000,17.531250,19.325001,31.280,0.56900323,-0.00979631,-0.02879159,-0.82177272
'00:18:46.564,0.058594,0.030762,1.003906,0.365854,1.280488,-0.548781,-4.750000,17.531250,19.325001,31.280,0.56901031,-0.00979282,-0.02880665,-0.82176733
'00:18:46.574,0.058594,0.030273,1.004883,0.365854,1.341463,-0.609756,-4.775000,17.562500,19.350000,31.341,0.56901211,-0.00978550,-0.02881401,-0.82176591
'00:18:46.584,0.059082,0.029297,1.004395,0.304878,1.341463,-0.548781,-4.775000,17.562500,19.350000,31.280,0.56901841,-0.00978814,-0.02881338,-0.82176154
'00:18:46.594,0.060547,0.030273,1.004395,0.365854,1.341463,-0.548781,-4.743750,17.512501,19.275000,31.295,0.56902580,-0.00979298,-0.02882975,-0.82175580
'00:18:46.604,0.060547,0.029297,1.004883,0.304878,1.341463,-0.609756,-4.743750,17.512501,19.275000,31.280,0.56902891,-0.00980433,-0.02883576,-0.82175329
'00:18:46.614,0.060059,0.029297,1.004395,0.365854,1.341463,-0.609756,-4.912500,17.768751,19.512501,31.310,0.56902539,-0.00980366,-0.02883677,-0.82175570
'00:18:46.624,0.060547,0.029785,1.003418,0.365854,1.341463,-0.548781,-4.912500,17.768751,19.512501,31.325,0.56902613,-0.00980415,-0.02884273,-0.82175498
'00:18:46.634,0.059082,0.028809,1.003418,0.304878,1.280488,-0.548781,-4.925000,17.781250,19.481251,31.295,0.56902646,-0.00980711,-0.02883555,-0.82175496
'00:18:46.644,0.059082,0.029785,1.004883,0.304878,1.341463,-0.548781,-4.906250,17.737501,19.468750,31.341,0.56902708,-0.00980204,-0.02883079,-0.82175476
'00:18:46.654,0.059082,0.030273,1.004395,0.304878,1.341463,-0.548781,-4.906250,17.737501,19.468750,31.280,0.56902760,-0.00979525,-0.02882904,-0.82175454
'00:18:46.664,0.059082,0.029785,1.003418,0.365854,1.341463,-0.609756,-4.787500,17.606251,19.312500,31.310,0.56902970,-0.00979249,-0.02883583,-0.82175289
'00:18:46.674,0.060059,0.029297,1.003906,0.304878,1.341463,-0.609756,-4.787500,17.606251,19.312500,31.265,0.56903179,-0.00979998,-0.02883894,-0.82175124
'00:18:46.685,0.059082,0.028809,1.003906,0.304878,1.341463,-0.548781,-4.793750,17.537500,19.243750,31.280,0.56903708,-0.00980276,-0.02883289,-0.82174776
'00:18:46.694,0.059570,0.029297,1.004883,0.304878,1.341463,-0.548781,-4.793750,17.537500,19.243750,31.310,0.56904129,-0.00980551,-0.02883184,-0.82174484
'00:18:46.704,0.059570,0.028809,1.004883,0.365854,1.280488,-0.548781,-4.800000,17.581251,19.418751,31.280,0.56904582,-0.00981250,-0.02883542,-0.82174149
'00:18:46.714,0.060547,0.029785,1.003906,0.365854,1.341463,-0.548781,-4.800000,17.581251,19.418751,31.295,0.56905022,-0.00981677,-0.02884561,-0.82173804
'00:18:46.724,0.060059,0.029785,1.003906,0.304878,1.280488,-0.609756,-5.106250,18.050001,19.700001,31.295,0.56903903,-0.00981435,-0.02883961,-0.82174603
'00:18:46.734,0.061035,0.030273,1.003906,0.304878,1.280488,-0.548781,-5.106250,18.050001,19.700001,31.341,0.56903214,-0.00981558,-0.02884009,-0.82175077
'00:18:46.744,0.059570,0.028809,1.003906,0.365854,1.341463,-0.609756,-5.018750,17.906250,19.568750,31.325,0.56902448,-0.00980975,-0.02883172,-0.82175644
'00:18:46.754,0.060059,0.028809,1.003418,0.365854,1.341463,-0.548781,-5.018750,17.906250,19.568750,31.280,0.56902121,-0.00980696,-0.02882552,-0.82175895
'00:18:46.764,0.059082,0.029297,1.004883,0.365854,1.341463,-0.548781,-4.787500,17.600000,19.306250,31.280,0.56902768,-0.00980571,-0.02882884,-0.82175437
'00:18:46.775,0.060059,0.030273,1.004883,0.304878,1.341463,-0.609756,-4.787500,17.600000,19.306250,31.280,0.56902963,-0.00980919,-0.02883787,-0.82175266
'00:18:46.784,0.060059,0.028809,1.004395,0.365854,1.341463,-0.548781,-4.837500,17.550001,19.412500,31.310,0.56903085,-0.00981156,-0.02883688,-0.82175182
'00:18:46.794,0.058594,0.030273,1.004883,0.304878,1.341463,-0.609756,-4.837500,17.550001,19.412500,31.265,0.56902753,-0.00980302,-0.02883391,-0.82175433
'00:18:46.804,0.059570,0.030273,1.004395,0.304878,1.341463,-0.548781,-4.756250,17.512501,19.362501,31.295,0.56903356,-0.00980466,-0.02884057,-0.82174990
'00:18:46.814,0.059082,0.029785,1.004395,0.365854,1.341463,-0.609756,-4.756250,17.512501,19.362501,31.265,0.56903536,-0.00980229,-0.02884683,-0.82174846
'00:18:46.824,0.060547,0.029297,1.003418,0.365854,1.341463,-0.548781,-4.943750,17.787500,19.456251,31.325,0.56903469,-0.00980286,-0.02884805,-0.82174887
'00:18:46.834,0.059570,0.029297,1.004395,0.243902,1.341463,-0.548781,-4.943750,17.787500,19.456251,31.310,0.56903396,-0.00980393,-0.02883640,-0.82174978
'00:18:46.845,0.061035,0.029785,1.004395,0.304878,1.341463,-0.548781,-5.075000,17.943750,19.618750,31.310,0.56902664,-0.00980280,-0.02883052,-0.82175507
'00:18:46.854,0.060059,0.029785,1.002930,0.365854,1.341463,-0.609756,-5.075000,17.943750,19.618750,31.310,0.56901681,-0.00979456,-0.02882698,-0.82176210
'00:18:46.864,0.059570,0.029785,1.005371,0.304878,1.341463,-0.548781,-4.875000,17.700001,19.393751,31.280,0.56901905,-0.00979348,-0.02882578,-0.82176060
'00:18:46.874,0.059082,0.028320,1.004883,0.304878,1.341463,-0.548781,-4.875000,17.700001,19.393751,31.295,0.56902162,-0.00979554,-0.02881468,-0.82175919
'00:18:46.884,0.059570,0.030762,1.004395,0.304878,1.341463,-0.548781,-4.762500,17.500000,19.287500,31.295,0.56902719,-0.00979465,-0.02882382,-0.82175502
'00:18:46.894,0.059570,0.029297,1.003906,0.365854,1.341463,-0.487805,-4.800000,17.568750,19.325001,31.265,0.56903631,-0.00979548,-0.02882762,-0.82174856
'00:18:46.904,0.060547,0.030273,1.002930,0.304878,1.341463,-0.548781,-4.800000,17.568750,19.325001,31.280,0.56904072,-0.00980090,-0.02883669,-0.82174513
'00:18:46.914,0.059570,0.029785,1.003418,0.304878,1.341463,-0.609756,-5.006250,17.837500,19.531250,31.310,0.56903219,-0.00979432,-0.02882902,-0.82175138
'00:18:46.924,0.059082,0.029297,1.004395,0.304878,1.280488,-0.609756,-5.006250,17.837500,19.531250,31.325,0.56902368,-0.00979126,-0.02881956,-0.82175764
'00:18:46.934,0.059570,0.029297,1.002930,0.304878,1.341463,-0.548781,-4.993750,17.731251,19.506250,31.325,0.56901818,-0.00978626,-0.02880808,-0.82176191
'00:18:46.944,0.058594,0.029297,1.004883,0.304878,1.341463,-0.548781,-4.993750,17.731251,19.506250,31.265,0.56901276,-0.00977560,-0.02879230,-0.82176634
'00:18:46.954,0.059570,0.028320,1.004883,0.304878,1.280488,-0.548781,-4.937500,17.731251,19.450001,31.280,0.56901148,-0.00978186,-0.02878254,-0.82176750
'00:18:46.964,0.061523,0.029785,1.004395,0.304878,1.402439,-0.548781,-4.937500,17.731251,19.450001,31.310,0.56901015,-0.00978439,-0.02878275,-0.82176838
'00:18:46.974,0.058594,0.029297,1.003906,0.365854,1.341463,-0.548781,-4.768750,17.531250,19.293751,31.310,0.56901651,-0.00978127,-0.02878518,-0.82176392
'00:18:46.984,0.059570,0.028320,1.002930,0.304878,1.280488,-0.548781,-4.768750,17.531250,19.293751,31.295,0.56902282,-0.00979504,-0.02878483,-0.82175941
'00:18:46.994,0.059570,0.029785,1.004395,0.365854,1.341463,-0.548781,-4.762500,17.568750,19.268751,31.310,0.56903042,-0.00979593,-0.02879497,-0.82175378
'00:18:47.004,0.059082,0.030273,1.003418,0.365854,1.341463,-0.548781,-4.762500,17.568750,19.268751,31.310,0.56903788,-0.00979234,-0.02880619,-0.82174826
'00:18:47.014,0.059570,0.029785,1.004883,0.304878,1.341463,-0.548781,-4.837500,17.687500,19.318750,31.310,0.56904271,-0.00979326,-0.02880822,-0.82174484
'00:18:47.024,0.060059,0.029297,1.005371,0.365854,1.341463,-0.548781,-4.837500,17.687500,19.318750,31.310,0.56904766,-0.00979560,-0.02881351,-0.82174120
'00:18:47.034,0.060059,0.028809,1.003418,0.304878,1.341463,-0.609756,-5.006250,17.956251,19.587500,31.295,0.56904188,-0.00979732,-0.02880531,-0.82174546
'00:18:47.044,0.060059,0.029297,1.004395,0.365854,1.341463,-0.548781,-5.006250,17.956251,19.587500,31.250,0.56904047,-0.00979407,-0.02880391,-0.82174653
'00:18:47.055,0.059082,0.029297,1.003906,0.365854,1.341463,-0.548781,-4.987500,17.881250,19.525000,31.295,0.56903871,-0.00978474,-0.02879828,-0.82174806
'00:18:47.064,0.059082,0.030273,1.003418,0.304878,1.341463,-0.609756,-4.987500,17.881250,19.525000,31.325,0.56903313,-0.00977651,-0.02879497,-0.82175213
'00:18:47.074,0.059570,0.029297,1.003418,0.365854,1.280488,-0.609756,-4.768750,17.581251,19.293751,31.295,0.56903604,-0.00978383,-0.02880538,-0.82174967
'00:18:47.084,0.059570,0.029297,1.003418,0.365854,1.341463,-0.548781,-4.768750,17.581251,19.293751,31.250,0.56904342,-0.00978680,-0.02881253,-0.82174427
'00:18:47.095,0.060059,0.029297,1.004883,0.304878,1.341463,-0.548781,-4.762500,17.506250,19.343750,31.310,0.56904973,-0.00979541,-0.02881530,-0.82173970
'00:18:47.104,0.060059,0.029297,1.004883,0.304878,1.341463,-0.548781,-4.762500,17.506250,19.343750,31.310,0.56905485,-0.00980232,-0.02881749,-0.82173600
'00:18:47.114,0.060547,0.029785,1.003906,0.304878,1.341463,-0.548781,-4.762500,17.581251,19.325001,31.295,0.56906223,-0.00981180,-0.02882675,-0.82173045
'00:18:47.124,0.059082,0.029297,1.003906,0.365854,1.341463,-0.548781,-4.762500,17.581251,19.325001,31.325,0.56906977,-0.00981190,-0.02883174,-0.82172505
'00:18:47.134,0.060547,0.029785,1.003418,0.304878,1.341463,-0.609756,-4.937500,17.787500,19.456251,31.341,0.56906491,-0.00981361,-0.02883196,-0.82172839
'00:18:47.144,0.059570,0.029785,1.003906,0.304878,1.341463,-0.548781,-4.937500,17.787500,19.456251,31.325,0.56906446,-0.00981001,-0.02882822,-0.82172887
'00:18:47.154,0.060547,0.030273,1.004395,0.365854,1.341463,-0.548781,-5.006250,17.856251,19.481251,31.325,0.56906080,-0.00980373,-0.02883152,-0.82173137
'00:18:47.164,0.060059,0.029297,1.004883,0.365854,1.280488,-0.548781,-4.750000,17.518751,19.325001,31.310,0.56906756,-0.00981345,-0.02884237,-0.82172619
'00:18:47.174,0.059570,0.029297,1.004883,0.365854,1.341463,-0.548781,-4.750000,17.518751,19.325001,31.280,0.56907444,-0.00981591,-0.02884807,-0.82172119
'00:18:47.184,0.060059,0.029785,1.004395,0.304878,1.341463,-0.609756,-4.812500,17.562500,19.362501,31.280,0.56907324,-0.00981888,-0.02885024,-0.82172191
'00:18:47.194,0.060059,0.029297,1.004395,0.365854,1.341463,-0.548781,-4.812500,17.562500,19.362501,31.310,0.56907656,-0.00982086,-0.02885393,-0.82171946
'00:18:47.204,0.059082,0.029297,1.004883,0.243902,1.341463,-0.609756,-4.737500,17.518751,19.312500,31.325,0.56907986,-0.00982709,-0.02884984,-0.82171724
'00:18:47.214,0.059082,0.029297,1.003418,0.304878,1.280488,-0.548781,-4.737500,17.518751,19.312500,31.310,0.56908740,-0.00983503,-0.02885371,-0.82171179
'00:18:47.224,0.058594,0.028320,1.004395,0.365854,1.341463,-0.609756,-4.925000,17.812500,19.500000,31.295,0.56908408,-0.00982928,-0.02884319,-0.82171452
'00:18:47.234,0.059570,0.030762,1.003418,0.304878,1.280488,-0.609756,-4.925000,17.812500,19.500000,31.310,0.56908005,-0.00982707,-0.02884936,-0.82171713
'00:18:47.244,0.059082,0.028809,1.003906,0.304878,1.280488,-0.609756,-5.025000,17.893751,19.493750,31.295,0.56907160,-0.00982493,-0.02883691,-0.82172344
'00:18:47.254,0.058105,0.029297,1.004395,0.304878,1.341463,-0.548781,-5.025000,17.893751,19.493750,31.280,0.56906765,-0.00981135,-0.02882042,-0.82172692
'00:18:47.265,0.059082,0.029297,1.004395,0.365854,1.280488,-0.548781,-4.868750,17.731251,19.406250,31.325,0.56907117,-0.00981150,-0.02882379,-0.82172436
'00:18:47.274,0.058594,0.028809,1.003906,0.365854,1.341463,-0.548781,-4.868750,17.731251,19.406250,31.280,0.56907427,-0.00980707,-0.02881977,-0.82172241
'00:18:47.284,0.059570,0.029297,1.004883,0.365854,1.341463,-0.609756,-4.812500,17.593750,19.193750,31.280,0.56907476,-0.00980626,-0.02882312,-0.82172196
'00:18:47.294,0.059570,0.029785,1.003906,0.365854,1.341463,-0.548781,-4.812500,17.593750,19.193750,31.295,0.56907951,-0.00980391,-0.02882949,-0.82171847
'00:18:47.305,0.060547,0.030762,1.002930,0.365854,1.341463,-0.548781,-4.800000,17.562500,19.318750,31.310,0.56908400,-0.00980403,-0.02884694,-0.82171476
'00:18:47.314,0.060059,0.029297,1.004395,0.304878,1.280488,-0.548781,-4.800000,17.562500,19.318750,31.310,0.56908775,-0.00981322,-0.02885007,-0.82171194
'00:18:47.324,0.059570,0.028809,1.003906,0.304878,1.341463,-0.609756,-4.800000,17.518751,19.281250,31.310,0.56908691,-0.00981738,-0.02884507,-0.82171265
'00:18:47.335,0.059570,0.029785,1.003906,0.304878,1.341463,-0.548781,-4.800000,17.518751,19.281250,31.295,0.56909056,-0.00981783,-0.02884568,-0.82171009
'00:18:47.344,0.059570,0.029297,1.004883,0.304878,1.341463,-0.548781,-5.062500,17.950001,19.581251,31.280,0.56908552,-0.00981165,-0.02883400,-0.82171407
'00:18:47.354,0.059082,0.029785,1.003418,0.304878,1.280488,-0.548781,-5.062500,17.950001,19.581251,31.310,0.56907971,-0.00980505,-0.02882568,-0.82171846
'00:18:47.364,0.058594,0.030762,1.004395,0.426829,1.341463,-0.548781,-4.931250,17.806250,19.431250,31.295,0.56908015,-0.00978682,-0.02883326,-0.82171811
'00:18:47.376,0.059082,0.029785,1.003418,0.365854,1.341463,-0.548781,-4.756250,17.531250,19.343750,31.265,0.56908805,-0.00978483,-0.02884176,-0.82171236
'00:18:47.384,0.058105,0.029785,1.003418,0.365854,1.341463,-0.548781,-4.756250,17.531250,19.343750,31.310,0.56909332,-0.00977914,-0.02884425,-0.82170869
'00:18:47.394,0.059570,0.029297,1.003906,0.304878,1.280488,-0.548781,-4.756250,17.531250,19.343750,31.310,0.56909974,-0.00978948,-0.02884870,-0.82170396
'00:18:47.404,0.060059,0.029297,1.004883,0.304878,1.341463,-0.548781,-4.756250,17.525000,19.318750,31.310,0.56910621,-0.00979761,-0.02885143,-0.82169929
'00:18:47.415,0.060059,0.028809,1.004395,0.365854,1.341463,-0.548781,-4.750000,17.537500,19.337500,31.280,0.56911417,-0.00980598,-0.02885713,-0.82169348
'00:18:47.424,0.061035,0.029297,1.004883,0.426829,1.341463,-0.548781,-4.750000,17.537500,19.337500,31.295,0.56912056,-0.00981299,-0.02887133,-0.82168847
'00:18:47.434,0.060547,0.028320,1.003906,0.304878,1.341463,-0.548781,-5.150000,18.081251,19.737501,31.310,0.56911161,-0.00981244,-0.02885280,-0.82169532
'00:18:47.444,0.060059,0.029297,1.004395,0.426829,1.341463,-0.548781,-5.150000,18.081251,19.737501,31.280,0.56910264,-0.00979942,-0.02884669,-0.82170190
'00:18:47.455,0.060059,0.029297,1.003418,0.365854,1.341463,-0.609756,-5.062500,17.937500,19.550001,31.280,0.56909152,-0.00979161,-0.02883968,-0.82170995
'00:18:47.465,0.060547,0.028809,1.001953,0.304878,1.341463,-0.548781,-5.062500,17.937500,19.550001,31.310,0.56908586,-0.00979268,-0.02882877,-0.82171424
'00:18:47.474,0.058105,0.029785,1.003418,0.304878,1.280488,-0.609756,-4.887500,17.600000,19.362501,31.295,0.56908086,-0.00978643,-0.02882287,-0.82171798
'00:18:47.484,0.059570,0.029297,1.004395,0.365854,1.341463,-0.548781,-4.887500,17.600000,19.362501,31.325,0.56907998,-0.00978216,-0.02882025,-0.82171873
'00:18:47.497,0.059082,0.029297,1.004883,0.243902,1.280488,-0.609756,-4.806250,17.550001,19.381250,31.310,0.56907855,-0.00979203,-0.02881339,-0.82171985
'00:18:47.504,0.059082,0.029297,1.004883,0.365854,1.341463,-0.548781,-4.806250,17.550001,19.381250,31.310,0.56908102,-0.00979006,-0.02881372,-0.82171815
'00:18:47.514,0.060059,0.030762,1.004883,0.365854,1.341463,-0.548781,-4.775000,17.518751,19.375000,31.295,0.56908565,-0.00978838,-0.02882803,-0.82171446
'00:18:47.524,0.059570,0.028809,1.005371,0.304878,1.280488,-0.609756,-4.775000,17.518751,19.375000,31.325,0.56908611,-0.00979885,-0.02882759,-0.82171403
'00:18:47.536,0.059570,0.029785,1.003418,0.365854,1.341463,-0.548781,-4.750000,17.575001,19.337500,31.325,0.56909575,-0.00980106,-0.02884029,-0.82170688
'00:18:47.544,0.060059,0.029297,1.002930,0.365854,1.341463,-0.609756,-4.750000,17.575001,19.337500,31.356,0.56909870,-0.00980613,-0.02884806,-0.82170451
'00:18:47.554,0.060547,0.029785,1.004395,0.365854,1.280488,-0.548781,-5.068750,17.950001,19.668751,31.280,0.56909209,-0.00980414,-0.02884833,-0.82170910
'00:18:47.564,0.060547,0.030273,1.002930,0.365854,1.341463,-0.548781,-5.068750,17.950001,19.668751,31.310,0.56908554,-0.00979625,-0.02884889,-0.82171371
'00:18:47.576,0.060059,0.030273,1.003418,0.304878,1.341463,-0.548781,-4.868750,17.643751,19.400000,31.280,0.56908666,-0.00979560,-0.02885216,-0.82171283
'00:18:47.584,0.059570,0.027832,1.005371,0.304878,1.280488,-0.609756,-4.868750,17.643751,19.400000,31.265,0.56908421,-0.00980370,-0.02884364,-0.82171473
'00:18:47.594,0.060059,0.028320,1.005859,0.365854,1.341463,-0.609756,-4.762500,17.581251,19.312500,31.310,0.56908753,-0.00981247,-0.02884585,-0.82171224
'00:18:47.604,0.059082,0.029785,1.002930,0.365854,1.341463,-0.548781,-4.762500,17.581251,19.312500,31.310,0.56909490,-0.00981069,-0.02885363,-0.82170689
'00:18:47.617,0.058105,0.031738,1.002441,0.365854,1.341463,-0.609756,-4.731250,17.462500,19.243750,31.295,0.56909783,-0.00979128,-0.02887312,-0.82170441
'00:18:47.624,0.058594,0.030762,1.003418,0.304878,1.280488,-0.548781,-4.731250,17.462500,19.243750,31.295,0.56910245,-0.00979078,-0.02887959,-0.82170099
'00:18:47.634,0.061035,0.028809,1.005371,0.365854,1.341463,-0.609756,-4.756250,17.600000,19.318750,31.325,0.56910637,-0.00980385,-0.02888882,-0.82169779
'00:18:47.644,0.060059,0.029297,1.004883,0.365854,1.280488,-0.548781,-4.756250,17.600000,19.318750,31.280,0.56911440,-0.00981403,-0.02890002,-0.82169172
'00:18:47.656,0.059570,0.029785,1.002930,0.365854,1.341463,-0.548781,-4.962500,17.781250,19.512501,31.325,0.56911108,-0.00980430,-0.02889707,-0.82169423
'00:18:47.664,0.060059,0.030273,1.004883,0.365854,1.402439,-0.548781,-4.962500,17.781250,19.512501,31.310,0.56910894,-0.00979473,-0.02889581,-0.82169587
'00:18:47.674,0.061035,0.029785,1.004395,0.304878,1.280488,-0.609756,-4.943750,17.806250,19.481251,31.310,0.56910362,-0.00980325,-0.02889930,-0.82169934
'00:18:47.684,0.060547,0.029785,1.003418,0.365854,1.341463,-0.609756,-4.731250,17.525000,19.275000,31.310,0.56910744,-0.00981040,-0.02891290,-0.82169612
'00:18:47.696,0.060059,0.030273,1.004395,0.304878,1.341463,-0.609756,-4.731250,17.525000,19.275000,31.250,0.56911183,-0.00981664,-0.02892427,-0.82169261
'00:18:47.704,0.059082,0.029297,1.003906,0.365854,1.341463,-0.548781,-4.762500,17.512501,19.350000,31.280,0.56911620,-0.00981571,-0.02892546,-0.82168956
'00:18:47.714,0.059570,0.030273,1.004395,0.365854,1.280488,-0.609756,-4.762500,17.512501,19.350000,31.310,0.56911689,-0.00981750,-0.02893726,-0.82168863
'00:18:47.725,0.060059,0.029297,1.004883,0.365854,1.280488,-0.548781,-4.750000,17.475000,19.275000,31.310,0.56912298,-0.00982676,-0.02894600,-0.82168400
'00:18:47.734,0.059570,0.029785,1.004883,0.304878,1.341463,-0.609756,-4.750000,17.475000,19.275000,31.325,0.56912401,-0.00982865,-0.02894718,-0.82168323
'00:18:47.744,0.058105,0.030273,1.003906,0.304878,1.341463,-0.609756,-5.181250,18.025000,19.700001,31.310,0.56910696,-0.00980425,-0.02892545,-0.82169609
'00:18:47.754,0.060547,0.029785,1.003906,0.304878,1.280488,-0.548781,-5.181250,18.025000,19.700001,31.295,0.56909432,-0.00979991,-0.02891369,-0.82170531
'00:18:47.764,0.062012,0.028809,1.003418,0.426829,1.341463,-0.548781,-5.000000,17.868750,19.568750,31.310,0.56909109,-0.00980513,-0.02891827,-0.82170732
'00:18:47.776,0.060059,0.028809,1.004395,0.304878,1.341463,-0.548781,-5.000000,17.868750,19.568750,31.280,0.56908716,-0.00980556,-0.02890379,-0.82171055
'00:18:47.784,0.059570,0.029297,1.003906,0.365854,1.341463,-0.609756,-4.837500,17.568750,19.356251,31.310,0.56908498,-0.00980383,-0.02890328,-0.82171209
'00:18:47.794,0.059570,0.029297,1.003906,0.304878,1.341463,-0.548781,-4.837500,17.568750,19.356251,31.356,0.56908660,-0.00980487,-0.02889824,-0.82171114
'00:18:47.805,0.059570,0.028809,1.003906,0.304878,1.341463,-0.548781,-4.775000,17.537500,19.318750,31.310,0.56909264,-0.00981178,-0.02889437,-0.82170701
'00:18:47.814,0.060059,0.029785,1.005371,0.365854,1.280488,-0.548781,-4.775000,17.537500,19.318750,31.310,0.56909727,-0.00981721,-0.02890405,-0.82170340
'00:18:47.824,0.059082,0.029297,1.005371,0.365854,1.341463,-0.548781,-4.825000,17.562500,19.362501,31.310,0.56909959,-0.00981268,-0.02890164,-0.82170193
'00:18:47.834,0.058594,0.030273,1.004395,0.365854,1.341463,-0.548781,-4.825000,17.562500,19.362501,31.265,0.56910172,-0.00980185,-0.02890329,-0.82170052
'00:18:47.844,0.058105,0.030273,1.004395,0.304878,1.280488,-0.548781,-5.018750,17.937500,19.625000,31.341,0.56909815,-0.00979025,-0.02889526,-0.82170342
'00:18:47.854,0.060547,0.029297,1.004395,0.304878,1.341463,-0.548781,-5.018750,17.937500,19.625000,31.325,0.56909491,-0.00979159,-0.02888824,-0.82170589
'00:18:47.865,0.059570,0.030762,1.004395,0.304878,1.280488,-0.548781,-5.100000,17.943750,19.587500,31.295,0.56908527,-0.00978065,-0.02888245,-0.82171291
'00:18:47.874,0.059570,0.030762,1.004395,0.304878,1.280488,-0.548781,-5.100000,17.943750,19.587500,31.295,0.56907742,-0.00977187,-0.02887785,-0.82171861
'00:18:47.884,0.060059,0.029785,1.004395,0.304878,1.280488,-0.548781,-4.787500,17.587500,19.337500,31.341,0.56908290,-0.00978179,-0.02888519,-0.82171444
'00:18:47.894,0.060059,0.028320,1.003418,0.304878,1.280488,-0.548781,-4.787500,17.587500,19.337500,31.280,0.56908862,-0.00979751,-0.02888445,-0.82171031
'00:18:47.904,0.059570,0.028809,1.003418,0.365854,1.280488,-0.548781,-4.762500,17.450001,19.287500,31.295,0.56909296,-0.00980485,-0.02888768,-0.82170710
'00:18:47.915,0.060547,0.029785,1.003418,0.365854,1.341463,-0.609756,-4.762500,17.450001,19.287500,31.250,0.56909280,-0.00980953,-0.02889817,-0.82170679
'00:18:47.924,0.059082,0.030762,1.003418,0.304878,1.280488,-0.609756,-4.743750,17.487501,19.318750,31.295,0.56909419,-0.00981070,-0.02890736,-0.82170549
'00:18:47.934,0.058594,0.030273,1.003418,0.304878,1.341463,-0.609756,-4.743750,17.487501,19.318750,31.295,0.56909599,-0.00980682,-0.02890969,-0.82170421
'00:18:47.944,0.058105,0.031250,1.004883,0.304878,1.341463,-0.548781,-4.743750,17.475000,19.331251,31.295,0.56910163,-0.00979607,-0.02891469,-0.82170026
'00:18:47.954,0.061035,0.028809,1.003418,0.365854,1.341463,-0.609756,-4.987500,17.950001,19.487501,31.295,0.56909705,-0.00980045,-0.02891427,-0.82170339
'00:18:47.965,0.059570,0.028809,1.004883,0.426829,1.341463,-0.548781,-4.987500,17.950001,19.487501,31.310,0.56909695,-0.00979299,-0.02891184,-0.82170364
'00:18:47.974,0.059570,0.028320,1.004395,0.304878,1.402439,-0.548781,-4.918750,17.768751,19.431250,31.325,0.56909762,-0.00979165,-0.02889789,-0.82170368
'00:18:47.984,0.060059,0.030273,1.003418,0.365854,1.341463,-0.609756,-4.918750,17.768751,19.431250,31.295,0.56909349,-0.00978667,-0.02890327,-0.82170641
'00:18:47.994,0.059570,0.030273,1.002930,0.365854,1.341463,-0.548781,-4.775000,17.612501,19.275000,31.265,0.56910068,-0.00978550,-0.02891462,-0.82170104
'00:18:48.004,0.060547,0.029785,1.004395,0.304878,1.280488,-0.548781,-4.775000,17.612501,19.275000,31.265,0.56910769,-0.00979868,-0.02892484,-0.82169567
'00:18:48.015,0.060059,0.029297,1.004883,0.365854,1.341463,-0.609756,-4.768750,17.493750,19.343750,31.341,0.56910796,-0.00980256,-0.02892930,-0.82169528
'00:18:48.024,0.060059,0.028320,1.004395,0.304878,1.341463,-0.548781,-4.768750,17.493750,19.343750,31.295,0.56911224,-0.00981210,-0.02892406,-0.82169239
'00:18:48.034,0.059082,0.030273,1.003906,0.304878,1.341463,-0.548781,-4.856250,17.587500,19.287500,31.280,0.56911296,-0.00980532,-0.02892138,-0.82169207
'00:18:48.044,0.059570,0.029297,1.004395,0.304878,1.341463,-0.548781,-4.856250,17.587500,19.287500,31.341,0.56911388,-0.00980505,-0.02891496,-0.82169165
'00:18:48.054,0.058594,0.029785,1.004395,0.365854,1.341463,-0.548781,-4.943750,17.850000,19.575001,31.325,0.56911378,-0.00979359,-0.02891085,-0.82169201
'00:18:48.064,0.060059,0.028809,1.002930,0.365854,1.280488,-0.548781,-4.943750,17.850000,19.575001,31.280,0.56911369,-0.00979885,-0.02891057,-0.82169201
'00:18:48.074,0.059082,0.028809,1.002930,0.365854,1.341463,-0.548781,-5.112500,18.018751,19.643751,31.295,0.56910610,-0.00978691,-0.02889486,-0.82169797
'00:18:48.084,0.059570,0.030273,1.003906,0.304878,1.341463,-0.548781,-5.112500,18.018751,19.643751,31.280,0.56909823,-0.00977504,-0.02888465,-0.82170392
'00:18:48.094,0.059082,0.030273,1.004395,0.304878,1.280488,-0.548781,-4.750000,17.550001,19.337500,31.265,0.56910529,-0.00977930,-0.02889285,-0.82169869
'00:18:48.104,0.060547,0.027832,1.004883,0.304878,1.341463,-0.609756,-4.750000,17.550001,19.337500,31.310,0.56910855,-0.00979661,-0.02888952,-0.82169634
'00:18:48.114,0.060547,0.027344,1.003418,0.426829,1.341463,-0.609756,-4.743750,17.512501,19.362501,31.295,0.56911142,-0.00980985,-0.02889223,-0.82169410
'00:18:48.124,0.058105,0.033203,0.999023,0.426829,1.341463,-0.548781,-4.743750,17.512501,19.362501,31.310,0.56911741,-0.00978694,-0.02892061,-0.82168923
'00:18:48.134,0.057129,0.035645,1.003906,0.243902,1.219512,-0.548781,-4.762500,17.518751,19.281250,31.341,0.56912163,-0.00976484,-0.02894830,-0.82168559
'00:18:48.144,0.060059,0.025391,1.011719,0.182927,1.280488,-0.548781,-4.762500,17.518751,19.281250,31.280,0.56912807,-0.00979672,-0.02891838,-0.82168181
'00:18:48.154,0.063965,0.021973,1.005371,0.426829,1.402439,-0.609756,-4.950000,17.806250,19.431250,31.265,0.56912431,-0.00983529,-0.02889114,-0.82168491
'00:18:48.164,0.060547,0.029785,1.000000,0.487805,1.341463,-0.609756,-4.950000,17.806250,19.431250,31.310,0.56911894,-0.00982748,-0.02890420,-0.82168826
'00:18:48.174,0.056641,0.034180,0.997070,0.426829,1.341463,-0.609756,-4.968750,17.812500,19.468750,31.265,0.56911140,-0.00978375,-0.02892219,-0.82169337
'00:18:48.185,0.059082,0.033691,1.005859,0.182927,1.219512,-0.548781,-4.968750,17.812500,19.468750,31.310,0.56910755,-0.00977456,-0.02893244,-0.82169579
'00:18:48.194,0.060547,0.027344,1.006836,0.304878,1.341463,-0.548781,-4.900000,17.756250,19.406250,31.280,0.56910920,-0.00978586,-0.02891959,-0.82169496
'00:18:48.205,0.059082,0.024902,1.003418,0.426829,1.280488,-0.609756,-4.750000,17.456251,19.250000,31.295,0.56911133,-0.00980529,-0.02890210,-0.82169387
'00:18:48.214,0.057617,0.030762,1.002930,0.426829,1.341463,-0.609756,-4.750000,17.456251,19.250000,31.295,0.56911215,-0.00978892,-0.02891038,-0.82169321
'00:18:48.224,0.058105,0.031738,1.004395,0.304878,1.280488,-0.548781,-4.787500,17.481251,19.343750,31.325,0.56911453,-0.00977836,-0.02891799,-0.82169142
'00:18:48.234,0.060547,0.029785,1.006836,0.304878,1.341463,-0.548781,-4.787500,17.481251,19.343750,31.325,0.56911740,-0.00978437,-0.02891985,-0.82168929
'00:18:48.244,0.062500,0.028320,1.005371,0.304878,1.341463,-0.548781,-4.975000,17.862501,19.550001,31.310,0.56911572,-0.00980125,-0.02891569,-0.82169040
'00:18:48.254,0.059082,0.028320,1.000488,0.426829,1.341463,-0.548781,-4.975000,17.862501,19.550001,31.265,0.56911420,-0.00979429,-0.02890913,-0.82169177
'00:18:48.264,0.058594,0.031738,0.999512,0.426829,1.341463,-0.609756,-5.031250,17.862501,19.550001,31.325,0.56910384,-0.00976822,-0.02891618,-0.82169900
'00:18:48.274,0.061523,0.030273,1.003906,0.304878,1.280488,-0.609756,-5.031250,17.862501,19.550001,31.325,0.56909356,-0.00977374,-0.02891872,-0.82170597
'00:18:48.285,0.060547,0.028809,1.008301,0.304878,1.341463,-0.548781,-4.837500,17.650000,19.381250,31.310,0.56909744,-0.00978360,-0.02891422,-0.82170332
'00:18:48.294,0.059570,0.026855,1.006836,0.365854,1.402439,-0.609756,-4.837500,17.650000,19.381250,31.310,0.56909724,-0.00978706,-0.02889907,-0.82170396
'00:18:48.304,0.057617,0.029785,1.003418,0.365854,1.280488,-0.609756,-4.793750,17.537500,19.318750,31.310,0.56909681,-0.00977900,-0.02889966,-0.82170433
'00:18:48.314,0.057617,0.031738,1.001953,0.304878,1.341463,-0.548781,-4.793750,17.537500,19.318750,31.310,0.56910043,-0.00976242,-0.02890450,-0.82170185
'00:18:48.324,0.059570,0.030273,1.004395,0.304878,1.341463,-0.548781,-4.837500,17.568750,19.281250,31.250,0.56910218,-0.00975991,-0.02890497,-0.82170065
'00:18:48.334,0.060547,0.028809,1.004883,0.365854,1.280488,-0.548781,-4.837500,17.568750,19.281250,31.280,0.56910410,-0.00976976,-0.02890814,-0.82169909
'00:18:48.344,0.059082,0.028809,1.003418,0.365854,1.341463,-0.548781,-4.762500,17.512501,19.331251,31.341,0.56910988,-0.00977134,-0.02890745,-0.82169509
'00:18:48.354,0.060059,0.029297,1.002930,0.365854,1.341463,-0.609756,-4.762500,17.512501,19.331251,31.325,0.56911112,-0.00977634,-0.02891359,-0.82169396
'00:18:48.364,0.060059,0.030762,1.004395,0.304878,1.280488,-0.548781,-5.056250,17.918751,19.643751,31.310,0.56910437,-0.00977147,-0.02891226,-0.82169874
'00:18:48.374,0.061035,0.029785,1.003906,0.304878,1.341463,-0.548781,-5.056250,17.918751,19.643751,31.295,0.56909798,-0.00977152,-0.02890645,-0.82170337
'00:18:48.384,0.060059,0.029785,1.004883,0.365854,1.341463,-0.609756,-5.125000,17.962500,19.637501,31.325,0.56908381,-0.00975952,-0.02889704,-0.82171365
'00:18:48.394,0.059570,0.028809,1.003906,0.365854,1.341463,-0.609756,-5.125000,17.962500,19.637501,31.310,0.56906993,-0.00974906,-0.02888098,-0.82172396
'00:18:48.404,0.058594,0.028809,1.002930,0.365854,1.341463,-0.609756,-4.762500,17.487501,19.331251,31.280,0.56907096,-0.00974800,-0.02887862,-0.82172334
'00:18:48.414,0.060059,0.030762,1.003906,0.365854,1.402439,-0.548781,-4.762500,17.487501,19.331251,31.356,0.56907604,-0.00974294,-0.02888967,-0.82171949
'00:18:48.425,0.058105,0.030762,1.003418,0.365854,1.341463,-0.548781,-4.762500,17.587500,19.318750,31.356,0.56908419,-0.00973189,-0.02889948,-0.82171363
'00:18:48.434,0.059082,0.029785,1.004883,0.365854,1.341463,-0.548781,-4.762500,17.587500,19.318750,31.341,0.56909100,-0.00973105,-0.02890525,-0.82170872
'00:18:48.444,0.058105,0.029297,1.003418,0.304878,1.341463,-0.548781,-4.731250,17.468750,19.281250,31.310,0.56909815,-0.00973012,-0.02890086,-0.82170393
'00:18:48.454,0.059570,0.027832,1.004883,0.365854,1.341463,-0.548781,-4.731250,17.468750,19.281250,31.325,0.56910561,-0.00973982,-0.02889766,-0.82169877
'00:18:48.464,0.060059,0.028809,1.004395,0.304878,1.280488,-0.609756,-4.962500,17.831251,19.587500,31.341,0.56909950,-0.00974715,-0.02889093,-0.82170315
'00:18:48.475,0.059082,0.030762,1.003906,0.243902,1.280488,-0.548781,-4.975000,17.775000,19.531250,31.295,0.56909500,-0.00974264,-0.02888455,-0.82170654
'00:18:48.484,0.058594,0.030273,1.004883,0.365854,1.341463,-0.548781,-4.975000,17.775000,19.531250,31.310,0.56909169,-0.00972877,-0.02888009,-0.82170916
'00:18:48.494,0.060059,0.030273,1.003906,0.365854,1.341463,-0.548781,-4.743750,17.500000,19.362501,31.325,0.56909817,-0.00973169,-0.02889305,-0.82170418
'00:18:48.504,0.059570,0.029297,1.002930,0.304878,1.280488,-0.548781,-4.743750,17.500000,19.362501,31.295,0.56910462,-0.00974328,-0.02889733,-0.82169942
'00:18:48.514,0.061035,0.029785,1.003906,0.304878,1.280488,-0.548781,-4.775000,17.543751,19.281250,31.325,0.56911005,-0.00975902,-0.02890833,-0.82169509
'00:18:48.524,0.060059,0.029785,1.003418,0.365854,1.341463,-0.548781,-4.775000,17.543751,19.281250,31.310,0.56911566,-0.00976181,-0.02891688,-0.82169087
'00:18:48.534,0.059570,0.028809,1.003418,0.304878,1.280488,-0.609756,-4.775000,17.525000,19.337500,31.325,0.56911620,-0.00977283,-0.02891594,-0.82169040
'00:18:48.544,0.058105,0.029297,1.004883,0.304878,1.280488,-0.548781,-4.775000,17.525000,19.337500,31.310,0.56912106,-0.00977345,-0.02891145,-0.82168718
'00:18:48.554,0.058594,0.029297,1.005371,0.304878,1.341463,-0.548781,-4.887500,17.781250,19.462500,31.265,0.56912376,-0.00976932,-0.02890287,-0.82168567
'00:18:48.564,0.059082,0.030273,1.003906,0.304878,1.341463,-0.548781,-4.887500,17.781250,19.462500,31.280,0.56912624,-0.00976443,-0.02890237,-0.82168402
'00:18:48.574,0.059570,0.028320,1.003906,0.243902,1.341463,-0.548781,-5.068750,17.975000,19.637501,31.310,0.56912059,-0.00976526,-0.02887901,-0.82168874
'00:18:48.585,0.060547,0.030273,1.003906,0.365854,1.341463,-0.548781,-5.068750,17.975000,19.637501,31.295,0.56911409,-0.00975713,-0.02887936,-0.82169333
'00:18:48.594,0.060547,0.030273,1.003906,0.365854,1.341463,-0.548781,-4.856250,17.612501,19.362501,31.295,0.56911515,-0.00975687,-0.02888707,-0.82169233
'00:18:48.604,0.060059,0.028320,1.003418,0.304878,1.280488,-0.609756,-4.856250,17.612501,19.362501,31.295,0.56911216,-0.00976886,-0.02888151,-0.82169446
'00:18:48.614,0.060547,0.029297,1.003418,0.304878,1.341463,-0.609756,-4.762500,17.425001,19.350000,31.325,0.56911121,-0.00977843,-0.02888323,-0.82169494
'00:18:48.624,0.060547,0.029297,1.002441,0.304878,1.280488,-0.548781,-4.762500,17.425001,19.350000,31.325,0.56911446,-0.00979259,-0.02888828,-0.82169234
'00:18:48.634,0.061035,0.030273,1.003418,0.304878,1.341463,-0.548781,-4.781250,17.575001,19.350000,31.310,0.56911984,-0.00980163,-0.02889936,-0.82168812
'00:18:48.644,0.060059,0.028809,1.005371,0.365854,1.341463,-0.609756,-4.781250,17.575001,19.350000,31.310,0.56912122,-0.00980728,-0.02890179,-0.82168701
'00:18:48.654,0.059570,0.029297,1.004395,0.365854,1.280488,-0.609756,-4.737500,17.525000,19.275000,31.295,0.56912455,-0.00981461,-0.02891086,-0.82168430
'00:18:48.664,0.059570,0.029785,1.004395,0.365854,1.341463,-0.609756,-4.737500,17.525000,19.275000,31.341,0.56912788,-0.00981551,-0.02891952,-0.82168167
'00:18:48.674,0.058105,0.029297,1.004395,0.365854,1.341463,-0.548781,-5.062500,17.956251,19.618750,31.325,0.56912211,-0.00979771,-0.02890424,-0.82168642
'00:18:48.685,0.059082,0.029785,1.004395,0.304878,1.341463,-0.609756,-5.062500,17.956251,19.618750,31.310,0.56911085,-0.00978542,-0.02889009,-0.82169486
'00:18:48.694,0.059570,0.029785,1.003906,0.304878,1.341463,-0.609756,-5.143750,17.968750,19.568750,31.280,0.56909729,-0.00977393,-0.02887564,-0.82170490
'00:18:48.704,0.058594,0.029785,1.002930,0.365854,1.341463,-0.548781,-5.143750,17.968750,19.568750,31.295,0.56908674,-0.00975345,-0.02886087,-0.82171297
'00:18:48.714,0.059570,0.028320,1.004395,0.304878,1.341463,-0.548781,-4.800000,17.556250,19.325001,31.295,0.56909117,-0.00976111,-0.02885358,-0.82171007
'00:18:48.724,0.059570,0.028809,1.004395,0.365854,1.341463,-0.548781,-4.762500,17.506250,19.293751,31.295,0.56909710,-0.00976526,-0.02885531,-0.82170585
'00:18:48.734,0.060059,0.028809,1.003906,0.365854,1.341463,-0.548781,-4.762500,17.506250,19.293751,31.310,0.56910298,-0.00977215,-0.02885908,-0.82170156
'00:18:48.744,0.060059,0.028809,1.004395,0.365854,1.341463,-0.548781,-4.800000,17.562500,19.318750,31.310,0.56910743,-0.00977729,-0.02886093,-0.82169835
'00:18:48.754,0.060059,0.029785,1.002441,0.304878,1.280488,-0.609756,-4.800000,17.562500,19.318750,31.310,0.56910706,-0.00978616,-0.02886773,-0.82169827
'00:18:48.764,0.060059,0.029297,1.003418,0.365854,1.341463,-0.548781,-4.931250,17.812500,19.468750,31.295,0.56910756,-0.00978519,-0.02886805,-0.82169792
'00:18:48.774,0.060059,0.030273,1.004395,0.304878,1.341463,-0.548781,-4.931250,17.812500,19.468750,31.310,0.56910780,-0.00978325,-0.02886906,-0.82169774
'00:18:48.785,0.059082,0.028809,1.004395,0.365854,1.341463,-0.548781,-5.187500,18.118750,19.768751,31.310,0.56909616,-0.00976726,-0.02884818,-0.82170672
'00:18:48.794,0.058594,0.030273,1.004395,0.365854,1.341463,-0.548781,-5.187500,18.118750,19.768751,31.325,0.56908647,-0.00974703,-0.02883705,-0.82171407
'00:18:48.804,0.058594,0.029297,1.003906,0.365854,1.280488,-0.548781,-4.800000,17.531250,19.325001,31.295,0.56909009,-0.00974668,-0.02883889,-0.82171150
'00:18:48.814,0.058105,0.029785,1.005371,0.304878,1.280488,-0.548781,-4.800000,17.531250,19.325001,31.310,0.56909357,-0.00974440,-0.02883662,-0.82170920
'00:18:48.824,0.059082,0.029785,1.005371,0.304878,1.402439,-0.609756,-4.775000,17.568750,19.325001,31.310,0.56909559,-0.00974074,-0.02883503,-0.82170790
'00:18:48.834,0.061035,0.028320,1.004395,0.304878,1.280488,-0.548781,-4.775000,17.568750,19.325001,31.265,0.56910188,-0.00976278,-0.02883910,-0.82170313
'00:18:48.844,0.058594,0.030273,1.004883,0.243902,1.280488,-0.609756,-4.793750,17.543751,19.418751,31.325,0.56910109,-0.00976477,-0.02883785,-0.82170371
'00:18:48.854,0.060059,0.028809,1.003418,0.365854,1.341463,-0.548781,-4.793750,17.543751,19.418751,31.280,0.56910516,-0.00977074,-0.02884023,-0.82170073
'00:18:48.864,0.060547,0.030273,1.006348,0.365854,1.341463,-0.548781,-4.800000,17.600000,19.337500,31.310,0.56911014,-0.00977301,-0.02885261,-0.82169682
'00:18:48.874,0.060547,0.028320,1.002441,0.365854,1.280488,-0.609756,-4.800000,17.600000,19.337500,31.280,0.56911093,-0.00978795,-0.02885836,-0.82169589
'00:18:48.884,0.060547,0.029297,1.003906,0.365854,1.341463,-0.548781,-4.987500,17.850000,19.575001,31.295,0.56910804,-0.00978697,-0.02885684,-0.82169796
'00:18:48.894,0.060547,0.029785,1.005371,0.304878,1.280488,-0.609756,-4.987500,17.850000,19.575001,31.310,0.56910050,-0.00979105,-0.02885623,-0.82170315
'00:18:48.904,0.060547,0.028809,1.004883,0.304878,1.280488,-0.609756,-4.831250,17.656250,19.356251,31.341,0.56910023,-0.00980518,-0.02885822,-0.82170310
'00:18:48.914,0.060059,0.028320,1.003906,0.365854,1.341463,-0.548781,-4.831250,17.656250,19.356251,31.280,0.56910461,-0.00981130,-0.02885721,-0.82170003
'00:18:48.924,0.059570,0.029297,1.003418,0.365854,1.341463,-0.609756,-4.712500,17.500000,19.318750,31.310,0.56910920,-0.00981590,-0.02886571,-0.82169650
'00:18:48.934,0.059082,0.030273,1.004883,0.365854,1.280488,-0.548781,-4.712500,17.500000,19.318750,31.280,0.56911778,-0.00981801,-0.02888011,-0.82169003
'00:18:48.944,0.059570,0.029297,1.002930,0.304878,1.341463,-0.548781,-4.725000,17.493750,19.293751,31.280,0.56912565,-0.00982476,-0.02888287,-0.82168440
'00:18:48.954,0.059570,0.030273,1.002930,0.304878,1.280488,-0.548781,-4.725000,17.493750,19.293751,31.356,0.56913312,-0.00983187,-0.02889415,-0.82167874
'00:18:48.964,0.060547,0.030273,1.003418,0.304878,1.341463,-0.548781,-4.725000,17.556250,19.343750,31.280,0.56914191,-0.00984079,-0.02890714,-0.82167209
'00:18:48.974,0.060059,0.030273,1.003906,0.304878,1.280488,-0.609756,-4.725000,17.556250,19.343750,31.280,0.56914613,-0.00985092,-0.02892086,-0.82166856
'00:18:48.984,0.061035,0.028320,1.005371,0.304878,1.280488,-0.609756,-4.893750,17.693750,19.431250,31.325,0.56914184,-0.00986529,-0.02891640,-0.82167152
'00:18:48.994,0.061523,0.029297,1.003906,0.426829,1.402439,-0.548781,-4.893750,17.787500,19.456251,31.341,0.56914418,-0.00986533,-0.02892472,-0.82166961
'00:18:49.004,0.061523,0.030762,1.002930,0.365854,1.341463,-0.548781,-4.893750,17.787500,19.456251,31.310,0.56914597,-0.00986725,-0.02894015,-0.82166780
'00:18:49.014,0.060547,0.029297,1.002441,0.365854,1.341463,-0.609756,-4.756250,17.543751,19.325001,31.310,0.56914804,-0.00987423,-0.02894881,-0.82166597
'00:18:49.025,0.059082,0.029785,1.002930,0.304878,1.280488,-0.548781,-4.756250,17.543751,19.325001,31.310,0.56915482,-0.00987888,-0.02895320,-0.82166107
'00:18:49.034,0.058594,0.028320,1.003906,0.365854,1.219512,-0.548781,-4.806250,17.531250,19.325001,31.310,0.56915713,-0.00988344,-0.02895002,-0.82165953
'00:18:49.045,0.057617,0.028809,1.005371,0.426829,1.341463,-0.609756,-4.806250,17.531250,19.325001,31.356,0.56915547,-0.00986741,-0.02894262,-0.82166113
'00:18:49.054,0.059570,0.030762,1.005371,0.426829,1.280488,-0.548781,-4.818750,17.600000,19.393751,31.280,0.56915793,-0.00986176,-0.02895662,-0.82165900
'00:18:49.064,0.058105,0.031738,1.004883,0.365854,1.341463,-0.548781,-4.818750,17.600000,19.393751,31.295,0.56916058,-0.00984231,-0.02896461,-0.82165711
'00:18:49.074,0.058105,0.029785,1.004395,0.487805,1.402439,-0.548781,-5.200000,18.106251,19.706251,31.371,0.56914878,-0.00980617,-0.02895022,-0.82166623
'00:18:49.084,0.061035,0.028809,1.003906,0.365854,1.341463,-0.548781,-5.200000,18.106251,19.706251,31.310,0.56913699,-0.00980064,-0.02893633,-0.82167495
'00:18:49.094,0.060547,0.030273,1.001465,0.304878,1.341463,-0.609756,-5.068750,18.043751,19.631250,31.310,0.56912804,-0.00979688,-0.02893391,-0.82168128
'00:18:49.104,0.060547,0.029297,1.001465,0.304878,1.280488,-0.548781,-5.068750,18.043751,19.631250,31.310,0.56912354,-0.00980149,-0.02892913,-0.82168451
'00:18:49.114,0.060547,0.029297,1.003906,0.304878,1.280488,-0.609756,-4.818750,17.562500,19.337500,31.265,0.56912166,-0.00981303,-0.02893174,-0.82168558
'00:18:49.124,0.059082,0.028809,1.006836,0.304878,1.280488,-0.548781,-4.818750,17.562500,19.337500,31.310,0.56912432,-0.00981775,-0.02892468,-0.82168393
'00:18:49.134,0.060059,0.029297,1.005371,0.365854,1.402439,-0.548781,-4.762500,17.543751,19.356251,31.310,0.56913057,-0.00981773,-0.02892704,-0.82167952
'00:18:49.145,0.059570,0.029297,1.004883,0.365854,1.341463,-0.548781,-4.762500,17.543751,19.356251,31.325,0.56913728,-0.00981961,-0.02893103,-0.82167471
'00:18:49.154,0.059082,0.028809,1.003418,0.365854,1.341463,-0.548781,-4.831250,17.587500,19.381250,31.371,0.56913936,-0.00981746,-0.02892660,-0.82167345
'00:18:49.164,0.059570,0.028320,1.000977,0.365854,1.402439,-0.609756,-4.831250,17.587500,19.381250,31.325,0.56913752,-0.00981574,-0.02891885,-0.82167502
'00:18:49.174,0.061523,0.029297,1.002441,0.365854,1.280488,-0.548781,-4.975000,17.831251,19.481251,31.295,0.56913499,-0.00982439,-0.02892429,-0.82167648
'00:18:49.184,0.060059,0.031250,1.002930,0.304878,1.280488,-0.548781,-4.975000,17.831251,19.481251,31.295,0.56913202,-0.00982027,-0.02893038,-0.82167837
'00:18:49.195,0.060547,0.030762,1.003906,0.365854,1.341463,-0.609756,-4.843750,17.612501,19.425001,31.295,0.56912876,-0.00981749,-0.02894271,-0.82168022
'00:18:49.204,0.061035,0.028809,1.005859,0.365854,1.341463,-0.548781,-4.843750,17.612501,19.425001,31.280,0.56913039,-0.00982433,-0.02894364,-0.82167898
'00:18:49.214,0.059570,0.030273,1.005859,0.365854,1.341463,-0.548781,-4.793750,17.537500,19.337500,31.280,0.56913399,-0.00981978,-0.02894957,-0.82167633
'00:18:49.225,0.059082,0.029785,1.003418,0.365854,1.341463,-0.609756,-4.743750,17.506250,19.343750,31.310,0.56913625,-0.00981731,-0.02895546,-0.82167459
'00:18:49.234,0.059570,0.029297,1.003906,0.426829,1.280488,-0.548781,-4.743750,17.506250,19.343750,31.325,0.56914201,-0.00982076,-0.02896583,-0.82167019
'00:18:49.244,0.058594,0.030273,1.004395,0.304878,1.280488,-0.548781,-4.743750,17.506250,19.343750,31.280,0.56914809,-0.00982112,-0.02896999,-0.82166583
'00:18:49.254,0.058594,0.030273,1.002441,0.426829,1.341463,-0.548781,-4.725000,17.493750,19.312500,31.295,0.56915555,-0.00981235,-0.02898181,-0.82166035
'00:18:49.264,0.059570,0.029297,1.002930,0.365854,1.280488,-0.609756,-4.806250,17.543751,19.312500,31.295,0.56915406,-0.00981577,-0.02898500,-0.82166123
'00:18:49.274,0.060059,0.029297,1.003906,0.243902,1.219512,-0.548781,-4.806250,17.543751,19.312500,31.325,0.56915667,-0.00983220,-0.02898388,-0.82165926
'00:18:49.284,0.060547,0.028320,1.004883,0.365854,1.341463,-0.548781,-5.162500,18.087500,19.731251,31.295,0.56914678,-0.00982719,-0.02896666,-0.82166678
'00:18:49.294,0.060059,0.030273,1.003906,0.365854,1.280488,-0.548781,-5.162500,18.087500,19.731251,31.280,0.56913642,-0.00981678,-0.02896207,-0.82167425
'00:18:49.304,0.060059,0.030273,1.004395,0.304878,1.280488,-0.609756,-5.050000,17.937500,19.581251,31.325,0.56912626,-0.00981336,-0.02895824,-0.82168145
'00:18:49.314,0.059082,0.030762,1.003906,0.304878,1.341463,-0.548781,-5.050000,17.937500,19.581251,31.325,0.56912060,-0.00979871,-0.02895061,-0.82168582
'00:18:49.324,0.060059,0.029785,1.003418,0.365854,1.402439,-0.548781,-4.737500,17.462500,19.362501,31.310,0.56912653,-0.00979791,-0.02895616,-0.82168153
'00:18:49.335,0.060059,0.029297,1.001465,0.304878,1.280488,-0.548781,-4.737500,17.462500,19.362501,31.310,0.56913273,-0.00981255,-0.02896178,-0.82167686
'00:18:49.344,0.060059,0.029297,1.001465,0.304878,1.280488,-0.548781,-4.768750,17.581251,19.343750,31.310,0.56913838,-0.00982393,-0.02896665,-0.82167264
'00:18:49.354,0.059082,0.028809,1.003418,0.243902,1.280488,-0.609756,-4.768750,17.581251,19.343750,31.295,0.56914036,-0.00983534,-0.02896027,-0.82167136
'00:18:49.364,0.059082,0.030273,1.003906,0.304878,1.341463,-0.548781,-4.756250,17.568750,19.356251,31.280,0.56914712,-0.00983409,-0.02896406,-0.82166656
'00:18:49.374,0.059082,0.028320,1.004883,0.365854,1.280488,-0.548781,-4.756250,17.568750,19.356251,31.295,0.56915417,-0.00984169,-0.02896365,-0.82166160
'00:18:49.384,0.059082,0.029297,1.005859,0.304878,1.341463,-0.609756,-4.893750,17.725000,19.531250,31.310,0.56915012,-0.00983779,-0.02895369,-0.82166480
'00:18:49.394,0.059082,0.029785,1.004883,0.304878,1.280488,-0.548781,-4.893750,17.725000,19.531250,31.310,0.56915022,-0.00983680,-0.02895004,-0.82166487
'00:18:49.404,0.059082,0.029297,1.004883,0.365854,1.280488,-0.609756,-5.200000,18.125000,19.731251,31.341,0.56913413,-0.00982277,-0.02893449,-0.82167673
'00:18:49.415,0.060059,0.029785,1.003418,0.304878,1.341463,-0.548781,-5.200000,18.125000,19.731251,31.280,0.56912131,-0.00981043,-0.02891717,-0.82168637
'00:18:49.426,0.060059,0.029785,1.003418,0.365854,1.280488,-0.548781,-4.793750,17.581251,19.375000,31.310,0.56912625,-0.00981698,-0.02892873,-0.82168246
'00:18:49.434,0.060547,0.029785,1.002441,0.365854,1.402439,-0.548781,-4.793750,17.581251,19.375000,31.356,0.56913003,-0.00981698,-0.02893395,-0.82167966
'00:18:49.444,0.061035,0.029297,1.003906,0.365854,1.341463,-0.548781,-4.775000,17.568750,19.400000,31.325,0.56913558,-0.00982672,-0.02894305,-0.82167538
'00:18:49.454,0.061035,0.028320,1.004883,0.426829,1.280488,-0.609756,-4.775000,17.568750,19.400000,31.325,0.56913682,-0.00984111,-0.02895347,-0.82167398
'00:18:49.465,0.061035,0.027832,1.006836,0.426829,1.341463,-0.609756,-4.768750,17.450001,19.275000,31.295,0.56913639,-0.00985171,-0.02895522,-0.82167409
'00:18:49.474,0.061523,0.029297,1.005859,0.426829,1.341463,-0.548781,-4.768750,17.450001,19.275000,31.325,0.56913965,-0.00985780,-0.02896608,-0.82167137
'00:18:49.484,0.061035,0.031738,1.004395,0.487805,1.402439,-0.609756,-4.962500,17.856251,19.537500,31.325,0.56913371,-0.00983948,-0.02898580,-0.82167502
'00:18:49.494,0.059570,0.030762,1.000000,0.304878,1.341463,-0.548781,-4.962500,17.856251,19.537500,31.325,0.56913205,-0.00983171,-0.02898585,-0.82167625
'00:18:49.506,0.057617,0.031250,1.000977,0.182927,1.280488,-0.548781,-5.006250,17.787500,19.606251,31.310,0.56912390,-0.00981549,-0.02896668,-0.82168277
'00:18:49.514,0.057129,0.029297,1.003906,0.243902,1.280488,-0.548781,-4.743750,17.568750,19.343750,31.310,0.56913018,-0.00981564,-0.02895888,-0.82167869
'00:18:49.524,0.059082,0.027344,1.003906,0.365854,1.341463,-0.548781,-4.743750,17.568750,19.343750,31.295,0.56913861,-0.00982403,-0.02895144,-0.82167301
'00:18:49.534,0.059082,0.026367,1.007324,0.365854,1.280488,-0.548781,-4.775000,17.537500,19.337500,31.310,0.56914418,-0.00983733,-0.02893709,-0.82166950
'00:18:49.545,0.060059,0.028809,1.008301,0.487805,1.402439,-0.548781,-4.775000,17.537500,19.337500,31.310,0.56915015,-0.00983064,-0.02894345,-0.82166522
'00:18:49.554,0.062500,0.029785,1.004883,0.487805,1.402439,-0.609756,-4.787500,17.518751,19.356251,31.310,0.56914952,-0.00983353,-0.02896195,-0.82166497
'00:18:49.564,0.061035,0.032227,1.001465,0.304878,1.341463,-0.609756,-4.787500,17.518751,19.356251,31.341,0.56914798,-0.00983312,-0.02898174,-0.82166535
'00:18:49.574,0.059570,0.031738,0.999512,0.304878,1.341463,-0.609756,-4.756250,17.531250,19.325001,31.310,0.56914917,-0.00982889,-0.02899641,-0.82166405
'00:18:49.585,0.059082,0.031250,1.000000,0.304878,1.341463,-0.487805,-4.756250,17.531250,19.325001,31.341,0.56916021,-0.00982364,-0.02900679,-0.82165610
'00:18:49.594,0.058594,0.028809,1.001953,0.304878,1.280488,-0.487805,-5.118750,18.056250,19.643751,31.310,0.56915721,-0.00981703,-0.02898891,-0.82165889
'00:18:49.605,0.058594,0.028320,1.005859,0.304878,1.280488,-0.548781,-5.118750,18.056250,19.643751,31.310,0.56914894,-0.00981010,-0.02896285,-0.82166563
'00:18:49.614,0.059082,0.027344,1.006348,0.426829,1.341463,-0.548781,-5.043750,17.825001,19.575001,31.280,0.56914255,-0.00980177,-0.02894372,-0.82167082
'00:18:49.626,0.057129,0.030762,1.008301,0.487805,1.402439,-0.548781,-5.043750,17.825001,19.575001,31.325,0.56913359,-0.00975287,-0.02893320,-0.82167798
'00:18:49.634,0.060547,0.031250,1.004883,0.426829,1.463415,-0.670732,-4.768750,17.525000,19.337500,31.325,0.56913083,-0.00974296,-0.02894602,-0.82167956
'00:18:49.644,0.061035,0.029785,1.001465,0.304878,1.341463,-0.609756,-4.768750,17.525000,19.337500,31.295,0.56913161,-0.00975488,-0.02895408,-0.82167859
'00:18:49.654,0.059570,0.030273,1.000000,0.243902,1.219512,-0.548781,-4.812500,17.506250,19.343750,31.310,0.56913278,-0.00976581,-0.02895738,-0.82167754
'00:18:49.667,0.060059,0.029297,1.000977,0.365854,1.402439,-0.609756,-4.812500,17.506250,19.343750,31.356,0.56912957,-0.00976297,-0.02895593,-0.82167985
'00:18:49.674,0.060547,0.027832,1.003418,0.426829,1.341463,-0.548781,-4.787500,17.525000,19.381250,31.341,0.56913248,-0.00976946,-0.02895675,-0.82167773
'00:18:49.684,0.060547,0.028809,1.006348,0.304878,1.280488,-0.548781,-4.787500,17.525000,19.381250,31.280,0.56913617,-0.00978453,-0.02895657,-0.82167500
'00:18:49.694,0.060547,0.029785,1.004883,0.426829,1.402439,-0.487805,-5.112500,18.150000,19.806250,31.250,0.56913518,-0.00977138,-0.02895423,-0.82167592
'00:18:49.707,0.060547,0.030273,1.004883,0.304878,1.341463,-0.548781,-5.112500,18.150000,19.806250,31.325,0.56912779,-0.00976544,-0.02894743,-0.82168135
'00:18:49.714,0.059082,0.029297,1.002930,0.304878,1.341463,-0.609756,-5.168750,18.143751,19.737501,31.295,0.56911844,-0.00975716,-0.02893393,-0.82168840
'00:18:49.724,0.059570,0.029297,1.001465,0.304878,1.280488,-0.609756,-5.168750,18.143751,19.737501,31.341,0.56910498,-0.00975283,-0.02892036,-0.82169825
'00:18:49.734,0.059570,0.030762,1.001953,0.304878,1.280488,-0.609756,-4.762500,17.512501,19.287500,31.295,0.56910592,-0.00975706,-0.02893191,-0.82169714
'00:18:49.747,0.058594,0.030273,1.002930,0.304878,1.280488,-0.548781,-4.781250,17.531250,19.293751,31.310,0.56911182,-0.00975669,-0.02893621,-0.82169291
'00:18:49.754,0.060059,0.031250,1.004883,0.304878,1.341463,-0.548781,-4.781250,17.531250,19.293751,31.295,0.56911491,-0.00975612,-0.02894364,-0.82169051
'00:18:49.764,0.060547,0.030273,1.006836,0.304878,1.341463,-0.548781,-4.793750,17.568750,19.387501,31.310,0.56911913,-0.00976145,-0.02894940,-0.82168732
'00:18:49.774,0.060059,0.030762,1.005371,0.304878,1.402439,-0.548781,-4.793750,17.568750,19.387501,31.295,0.56912338,-0.00975798,-0.02895348,-0.82168428
'00:18:49.786,0.060547,0.029297,1.001953,0.304878,1.341463,-0.609756,-5.006250,17.881250,19.537500,31.280,0.56911395,-0.00976010,-0.02894490,-0.82169109
'00:18:49.794,0.060059,0.027832,1.002441,0.243902,1.280488,-0.609756,-5.006250,17.881250,19.537500,31.341,0.56910778,-0.00976976,-0.02893006,-0.82169577
'00:18:49.804,0.058594,0.029297,1.003418,0.304878,1.402439,-0.548781,-4.875000,17.681250,19.462500,31.310,0.56910914,-0.00976109,-0.02891750,-0.82169537
'00:18:49.814,0.059570,0.028320,1.003906,0.365854,1.341463,-0.609756,-4.875000,17.681250,19.462500,31.341,0.56910624,-0.00976289,-0.02891067,-0.82169760
'00:18:49.826,0.059570,0.030273,1.005371,0.304878,1.280488,-0.548781,-4.818750,17.512501,19.381250,31.295,0.56910758,-0.00976558,-0.02891407,-0.82169652
'00:18:49.834,0.059570,0.030273,1.006836,0.365854,1.341463,-0.548781,-4.818750,17.512501,19.381250,31.295,0.56910864,-0.00976116,-0.02891690,-0.82169574
'00:18:49.844,0.059082,0.030273,1.005371,0.365854,1.341463,-0.609756,-4.806250,17.587500,19.362501,31.295,0.56910833,-0.00975492,-0.02892198,-0.82169585
'00:18:49.854,0.059570,0.029297,1.002441,0.365854,1.341463,-0.609756,-4.806250,17.587500,19.362501,31.280,0.56910818,-0.00975594,-0.02892451,-0.82169585
'00:18:49.866,0.060059,0.029297,1.000977,0.304878,1.280488,-0.548781,-4.750000,17.543751,19.312500,31.341,0.56911668,-0.00977312,-0.02893296,-0.82168946
'00:18:49.874,0.060547,0.029785,1.003418,0.304878,1.280488,-0.548781,-4.750000,17.543751,19.312500,31.341,0.56912221,-0.00978454,-0.02894140,-0.82168520
'00:18:49.884,0.060059,0.028809,1.004883,0.365854,1.341463,-0.548781,-4.868750,17.556250,19.431250,31.310,0.56912105,-0.00978520,-0.02893581,-0.82168619
'00:18:49.894,0.060059,0.029785,1.005859,0.304878,1.341463,-0.609756,-4.868750,17.556250,19.431250,31.280,0.56911528,-0.00978469,-0.02893114,-0.82169036
'00:18:49.906,0.059082,0.029297,1.007324,0.365854,1.341463,-0.609756,-5.075000,17.937500,19.656250,31.280,0.56910149,-0.00976832,-0.02891407,-0.82170070
'00:18:49.914,0.060547,0.030273,1.006348,0.304878,1.341463,-0.548781,-5.075000,17.937500,19.656250,31.280,0.56909564,-0.00976371,-0.02890853,-0.82170501
'00:18:49.924,0.059082,0.029297,1.003906,0.365854,1.341463,-0.609756,-4.900000,17.781250,19.462500,31.310,0.56909324,-0.00975886,-0.02890602,-0.82170682
'00:18:49.934,0.058594,0.031738,1.000977,0.365854,1.280488,-0.548781,-4.900000,17.781250,19.462500,31.310,0.56909455,-0.00974697,-0.02891955,-0.82170557
'00:18:49.945,0.058594,0.030762,1.000977,0.304878,1.341463,-0.548781,-4.706250,17.475000,19.362501,31.280,0.56910368,-0.00974482,-0.02892897,-0.82169895
'00:18:49.954,0.059570,0.030273,1.001953,0.304878,1.280488,-0.548781,-4.706250,17.475000,19.362501,31.310,0.56911103,-0.00975351,-0.02893980,-0.82169337
'00:18:49.964,0.061035,0.029297,1.005371,0.304878,1.280488,-0.609756,-4.775000,17.487501,19.318750,31.310,0.56911060,-0.00976982,-0.02894533,-0.82169328
'00:18:49.975,0.061035,0.028809,1.005371,0.304878,1.341463,-0.548781,-4.775000,17.487501,19.318750,31.295,0.56911517,-0.00978496,-0.02894486,-0.82168995
'00:18:49.984,0.060547,0.028320,1.005371,0.304878,1.341463,-0.609756,-4.787500,17.487501,19.331251,31.325,0.56911422,-0.00979562,-0.02893938,-0.82169067
'00:18:49.994,0.060059,0.030273,1.002930,0.304878,1.402439,-0.548781,-4.787500,17.487501,19.331251,31.295,0.56911727,-0.00979322,-0.02894046,-0.82168855
'00:18:50.004,0.058594,0.030762,1.002930,0.304878,1.280488,-0.548781,-4.993750,17.862501,19.531250,31.295,0.56911378,-0.00978292,-0.02893729,-0.82169120
'00:18:50.014,0.059082,0.029785,1.003418,0.365854,1.341463,-0.609756,-4.993750,17.862501,19.531250,31.310,0.56910637,-0.00977161,-0.02893182,-0.82169666
'00:18:50.026,0.059082,0.028809,1.002930,0.304878,1.341463,-0.548781,-4.962500,17.768751,19.493750,31.250,0.56910305,-0.00976732,-0.02891401,-0.82169964
'00:18:50.034,0.059082,0.028320,1.003418,0.304878,1.280488,-0.548781,-4.825000,17.568750,19.431250,31.310,0.56910482,-0.00977382,-0.02890706,-0.82169858
'00:18:50.044,0.060059,0.029297,1.005371,0.304878,1.341463,-0.609756,-4.825000,17.568750,19.431250,31.295,0.56910260,-0.00977847,-0.02890408,-0.82170017
'00:18:50.054,0.060547,0.029297,1.006348,0.426829,1.341463,-0.609756,-4.831250,17.556250,19.375000,31.310,0.56909998,-0.00977877,-0.02891074,-0.82170174
'00:18:50.064,0.060547,0.030273,1.002441,0.365854,1.341463,-0.609756,-4.831250,17.556250,19.375000,31.295,0.56909706,-0.00977909,-0.02892001,-0.82170343
'00:18:50.074,0.060547,0.030273,1.002441,0.365854,1.341463,-0.609756,-4.812500,17.537500,19.412500,31.295,0.56909484,-0.00978041,-0.02893009,-0.82170461
'00:18:50.084,0.059570,0.030762,1.002441,0.304878,1.280488,-0.609756,-4.812500,17.537500,19.412500,31.325,0.56909232,-0.00978172,-0.02893766,-0.82170606
'00:18:50.094,0.060059,0.029297,1.001465,0.365854,1.341463,-0.609756,-5.000000,17.900000,19.531250,31.265,0.56908549,-0.00977827,-0.02893445,-0.82171095
'00:18:50.104,0.061035,0.028809,1.004395,0.365854,1.280488,-0.548781,-5.000000,17.900000,19.531250,31.310,0.56908300,-0.00978598,-0.02893416,-0.82171260
'00:18:50.114,0.060547,0.028809,1.005859,0.304878,1.280488,-0.548781,-4.993750,17.793751,19.493750,31.310,0.56907857,-0.00979248,-0.02892509,-0.82171590
'00:18:50.124,0.059082,0.029297,1.006836,0.304878,1.341463,-0.548781,-4.993750,17.793751,19.493750,31.341,0.56907426,-0.00978447,-0.02890989,-0.82171952
'00:18:50.134,0.058105,0.029297,1.004395,0.365854,1.341463,-0.609756,-4.818750,17.606251,19.325001,31.250,0.56907399,-0.00977603,-0.02890582,-0.82171995
'00:18:50.144,0.059082,0.030273,1.002441,0.304878,1.341463,-0.548781,-4.818750,17.606251,19.325001,31.280,0.56907781,-0.00977287,-0.02890749,-0.82171729
'00:18:50.154,0.060059,0.029785,1.001465,0.304878,1.341463,-0.548781,-4.856250,17.550001,19.425001,31.280,0.56907732,-0.00977448,-0.02890599,-0.82171766
'00:18:50.164,0.060059,0.029785,1.001953,0.365854,1.341463,-0.548781,-4.856250,17.550001,19.425001,31.295,0.56907689,-0.00977294,-0.02890869,-0.82171788
'00:18:50.174,0.061035,0.028809,1.002930,0.243902,1.280488,-0.548781,-4.800000,17.506250,19.387501,31.310,0.56907940,-0.00979367,-0.02890692,-0.82171595
'00:18:50.184,0.060059,0.028809,1.006348,0.304878,1.341463,-0.609756,-4.800000,17.506250,19.387501,31.310,0.56907777,-0.00980037,-0.02890138,-0.82171720
'00:18:50.194,0.059570,0.029297,1.007812,0.365854,1.341463,-0.548781,-4.775000,17.525000,19.337500,31.280,0.56908290,-0.00980084,-0.02890309,-0.82171358
'00:18:50.204,0.059570,0.028320,1.006836,0.365854,1.341463,-0.548781,-4.775000,17.525000,19.337500,31.295,0.56908820,-0.00980534,-0.02889960,-0.82170998
'00:18:50.215,0.059082,0.029785,1.003906,0.365854,1.341463,-0.609756,-5.150000,18.056250,19.737501,31.310,0.56907275,-0.00978613,-0.02888584,-0.82172139
'00:18:50.224,0.059570,0.029297,1.002441,0.304878,1.341463,-0.548781,-5.150000,18.056250,19.737501,31.295,0.56906416,-0.00977794,-0.02887063,-0.82172797
'00:18:50.234,0.059570,0.030762,1.000977,0.304878,1.341463,-0.548781,-4.893750,17.668751,19.450001,31.280,0.56906371,-0.00977257,-0.02887351,-0.82172825
'00:18:50.244,0.059570,0.030762,1.001953,0.304878,1.280488,-0.548781,-4.893750,17.668751,19.450001,31.310,0.56906311,-0.00977144,-0.02887898,-0.82172848
'00:18:50.254,0.060547,0.029297,1.003906,0.304878,1.280488,-0.609756,-4.768750,17.487501,19.287500,31.341,0.56906349,-0.00978563,-0.02888491,-0.82172784
'00:18:50.264,0.061035,0.028320,1.005371,0.365854,1.341463,-0.548781,-4.768750,17.487501,19.287500,31.295,0.56906860,-0.00979858,-0.02888778,-0.82172405
'00:18:50.274,0.060059,0.029297,1.006836,0.304878,1.341463,-0.548781,-4.750000,17.512501,19.287500,31.325,0.56907537,-0.00980630,-0.02888945,-0.82171921
'00:18:50.284,0.061035,0.029785,1.005371,0.365854,1.341463,-0.548781,-4.725000,17.506250,19.356251,31.280,0.56908331,-0.00981635,-0.02890424,-0.82171307
'00:18:50.294,0.061035,0.030273,1.003418,0.365854,1.341463,-0.548781,-4.725000,17.506250,19.356251,31.295,0.56909106,-0.00982469,-0.02892233,-0.82170697
'00:18:50.304,0.060547,0.029785,1.000977,0.365854,1.402439,-0.548781,-5.018750,17.856251,19.537500,31.295,0.56908628,-0.00981562,-0.02891854,-0.82171052
'00:18:50.314,0.060059,0.029297,1.002930,0.365854,1.341463,-0.548781,-5.018750,17.856251,19.537500,31.325,0.56908151,-0.00980987,-0.02891252,-0.82171410
'00:18:50.324,0.060547,0.029785,1.003418,0.243902,1.280488,-0.548781,-5.037500,17.868750,19.556250,31.325,0.56907537,-0.00981445,-0.02890413,-0.82171860
'00:18:50.334,0.059082,0.028809,1.003906,0.243902,1.280488,-0.548781,-5.037500,17.868750,19.556250,31.341,0.56906949,-0.00981467,-0.02888469,-0.82172335
'00:18:50.344,0.059082,0.029785,1.006348,0.365854,1.341463,-0.609756,-4.837500,17.562500,19.362501,31.341,0.56906661,-0.00980725,-0.02888415,-0.82172545
'00:18:50.354,0.059082,0.028320,1.006348,0.426829,1.341463,-0.548781,-4.837500,17.562500,19.362501,31.310,0.56906849,-0.00980282,-0.02887968,-0.82172436
'00:18:50.366,0.060059,0.030273,1.003906,0.426829,1.341463,-0.548781,-4.856250,17.606251,19.312500,31.295,0.56907012,-0.00979467,-0.02889298,-0.82172286
'00:18:50.374,0.059570,0.030762,1.001953,0.365854,1.341463,-0.548781,-4.856250,17.606251,19.312500,31.295,0.56907108,-0.00978838,-0.02889952,-0.82172204
'00:18:50.384,0.060059,0.029785,1.002441,0.304878,1.280488,-0.609756,-4.787500,17.568750,19.400000,31.325,0.56907141,-0.00979823,-0.02890674,-0.82172144
'00:18:50.394,0.061035,0.029297,1.003906,0.304878,1.341463,-0.548781,-4.787500,17.568750,19.400000,31.310,0.56907630,-0.00981071,-0.02891117,-0.82171775
'00:18:50.404,0.060059,0.029297,1.004395,0.304878,1.280488,-0.548781,-5.056250,17.943750,19.643751,31.280,0.56907049,-0.00981144,-0.02890240,-0.82172208
'00:18:50.414,0.061035,0.029297,1.005371,0.304878,1.280488,-0.548781,-5.056250,17.943750,19.643751,31.280,0.56906469,-0.00981728,-0.02889712,-0.82172621
'00:18:50.424,0.061035,0.028320,1.005859,0.365854,1.341463,-0.548781,-5.112500,18.006250,19.662500,31.310,0.56905695,-0.00981692,-0.02888498,-0.82173199
'00:18:50.434,0.058594,0.029297,1.003906,0.365854,1.341463,-0.548781,-5.112500,18.006250,19.662500,31.310,0.56904910,-0.00980005,-0.02886995,-0.82173816
'00:18:50.444,0.059570,0.030762,1.003418,0.365854,1.341463,-0.548781,-4.806250,17.562500,19.381250,31.280,0.56905255,-0.00979452,-0.02888068,-0.82173546
'00:18:50.454,0.058105,0.029785,1.002441,0.304878,1.341463,-0.548781,-4.806250,17.562500,19.381250,31.265,0.56905619,-0.00978797,-0.02887602,-0.82173319
'00:18:50.464,0.058594,0.030273,1.002930,0.304878,1.341463,-0.609756,-4.768750,17.462500,19.318750,31.295,0.56905585,-0.00978280,-0.02887665,-0.82173346
'00:18:50.474,0.058594,0.030273,1.004883,0.304878,1.341463,-0.609756,-4.768750,17.462500,19.318750,31.310,0.56905554,-0.00977730,-0.02887650,-0.82173375
'00:18:50.484,0.060547,0.029785,1.005371,0.304878,1.280488,-0.609756,-4.731250,17.575001,19.337500,31.280,0.56906034,-0.00979288,-0.02888961,-0.82172978
'00:18:50.494,0.061035,0.029297,1.004883,0.304878,1.341463,-0.548781,-4.731250,17.575001,19.337500,31.310,0.56906966,-0.00980870,-0.02889869,-0.82172281
'00:18:50.504,0.060059,0.028809,1.004883,0.304878,1.341463,-0.609756,-4.743750,17.450001,19.362501,31.295,0.56907075,-0.00981823,-0.02889699,-0.82172200
'00:18:50.514,0.061035,0.029297,1.001953,0.304878,1.341463,-0.548781,-4.743750,17.450001,19.362501,31.341,0.56907601,-0.00983190,-0.02890303,-0.82171798
'00:18:50.525,0.060547,0.029297,1.003418,0.365854,1.341463,-0.609756,-4.981250,17.881250,19.631250,31.310,0.56906898,-0.00983112,-0.02890207,-0.82172289
'00:18:50.534,0.060059,0.029297,1.003418,0.365854,1.341463,-0.548781,-4.981250,17.881250,19.631250,31.295,0.56906720,-0.00982824,-0.02889958,-0.82172425
'00:18:50.544,0.059570,0.030762,1.005371,0.304878,1.280488,-0.609756,-4.906250,17.737501,19.468750,31.325,0.56906279,-0.00982561,-0.02890384,-0.82172719
'00:18:50.554,0.060059,0.028809,1.005371,0.304878,1.280488,-0.609756,-4.756250,17.531250,19.356251,31.310,0.56906478,-0.00983944,-0.02890589,-0.82172557
'00:18:50.564,0.059082,0.028809,1.004395,0.365854,1.341463,-0.548781,-4.756250,17.531250,19.356251,31.295,0.56907135,-0.00984060,-0.02890575,-0.82172101
'00:18:50.575,0.058105,0.029297,1.004395,0.365854,1.341463,-0.548781,-4.768750,17.462500,19.306250,31.310,0.56907594,-0.00983165,-0.02890167,-0.82171808
'00:18:50.584,0.059570,0.029297,1.002930,0.365854,1.341463,-0.548781,-4.768750,17.462500,19.306250,31.341,0.56907965,-0.00983208,-0.02890405,-0.82171543
'00:18:50.594,0.058594,0.029785,1.002441,0.365854,1.341463,-0.548781,-4.806250,17.600000,19.350000,31.341,0.56908414,-0.00982499,-0.02890610,-0.82171233
'00:18:50.604,0.060547,0.030762,1.002930,0.365854,1.341463,-0.609756,-4.806250,17.600000,19.350000,31.310,0.56908397,-0.00982469,-0.02892105,-0.82171192
'00:18:50.614,0.060547,0.030273,1.002930,0.243902,1.341463,-0.548781,-5.006250,17.831251,19.537500,31.280,0.56907913,-0.00982414,-0.02891389,-0.82171554
'00:18:50.624,0.060059,0.029785,1.004395,0.304878,1.280488,-0.548781,-5.006250,17.831251,19.537500,31.295,0.56907433,-0.00982388,-0.02890909,-0.82171903
'00:18:50.634,0.059082,0.029297,1.005371,0.304878,1.341463,-0.548781,-5.037500,17.912500,19.656250,31.341,0.56906917,-0.00981522,-0.02889380,-0.82172325
'00:18:50.644,0.060547,0.028809,1.005859,0.304878,1.341463,-0.609756,-5.037500,17.912500,19.656250,31.310,0.56905976,-0.00981634,-0.02888153,-0.82173018
'00:18:50.654,0.058594,0.028809,1.006348,0.365854,1.341463,-0.548781,-5.068750,17.968750,19.631250,31.310,0.56905419,-0.00980278,-0.02886530,-0.82173477
'00:18:50.664,0.058594,0.029785,1.003906,0.365854,1.341463,-0.609756,-5.068750,17.968750,19.631250,31.325,0.56904411,-0.00978604,-0.02885578,-0.82174228
'00:18:50.674,0.058105,0.029785,1.002930,0.304878,1.341463,-0.609756,-5.225000,18.143751,19.768751,31.280,0.56902726,-0.00976408,-0.02883305,-0.82175501
'00:18:50.684,0.058594,0.030273,1.002441,0.365854,1.341463,-0.487805,-5.225000,18.143751,19.768751,31.325,0.56901922,-0.00974068,-0.02881975,-0.82176132
'00:18:50.694,0.059570,0.030273,1.002930,0.304878,1.280488,-0.548781,-4.793750,17.562500,19.350000,31.280,0.56902386,-0.00974633,-0.02882865,-0.82175773
'00:18:50.704,0.059082,0.029297,1.003906,0.243902,1.341463,-0.548781,-4.793750,17.562500,19.350000,31.341,0.56902880,-0.00975146,-0.02882216,-0.82175447
'00:18:50.714,0.061035,0.029297,1.004395,0.243902,1.341463,-0.548781,-4.975000,17.875000,19.518751,31.280,0.56902784,-0.00976084,-0.02881618,-0.82175524
'00:18:50.724,0.061523,0.028320,1.005371,0.304878,1.341463,-0.548781,-4.975000,17.875000,19.518751,31.356,0.56902713,-0.00977327,-0.02881069,-0.82175578
'00:18:50.734,0.061035,0.028320,1.004883,0.365854,1.341463,-0.609756,-5.137500,18.031250,19.675001,31.310,0.56901425,-0.00977278,-0.02879930,-0.82176510
'00:18:50.744,0.059570,0.029297,1.003906,0.365854,1.341463,-0.548781,-5.137500,18.031250,19.675001,31.310,0.56900562,-0.00976108,-0.02878831,-0.82177160
'00:18:50.754,0.058594,0.030762,1.002441,0.365854,1.341463,-0.609756,-4.800000,17.487501,19.350000,31.310,0.56900387,-0.00975027,-0.02879601,-0.82177266
'00:18:50.764,0.059570,0.031250,1.002930,0.365854,1.341463,-0.609756,-4.800000,17.487501,19.350000,31.295,0.56900200,-0.00974302,-0.02880999,-0.82177356
'00:18:50.774,0.059570,0.030762,1.002441,0.304878,1.280488,-0.548781,-4.775000,17.537500,19.350000,31.295,0.56900732,-0.00974768,-0.02882296,-0.82176936
'00:18:50.784,0.059082,0.029297,1.003418,0.304878,1.341463,-0.548781,-4.775000,17.537500,19.350000,31.280,0.56901309,-0.00975075,-0.02882204,-0.82176537
'00:18:50.794,0.059570,0.029297,1.005371,0.304878,1.341463,-0.548781,-4.768750,17.481251,19.293751,31.310,0.56901817,-0.00975551,-0.02882151,-0.82176181
'00:18:50.804,0.060059,0.028809,1.005859,0.304878,1.341463,-0.548781,-5.043750,17.987501,19.637501,31.310,0.56901494,-0.00975588,-0.02881016,-0.82176444
'00:18:50.814,0.061035,0.029785,1.005859,0.426829,1.402439,-0.548781,-5.043750,17.987501,19.637501,31.310,0.56901177,-0.00974739,-0.02881384,-0.82176661
'00:18:50.824,0.061035,0.029785,1.005859,0.426829,1.402439,-0.548781,-5.100000,17.968750,19.643751,31.310,0.56900441,-0.00973552,-0.02881283,-0.82177188
'00:18:50.834,0.060547,0.028809,1.004395,0.365854,1.341463,-0.609756,-5.100000,17.968750,19.643751,31.341,0.56899273,-0.00973251,-0.02880392,-0.82178032
'00:18:50.844,0.059570,0.029785,1.002930,0.365854,1.280488,-0.548781,-4.906250,17.693750,19.431250,31.295,0.56899263,-0.00973245,-0.02880899,-0.82178020
'00:18:50.854,0.059570,0.031250,1.000488,0.304878,1.341463,-0.548781,-4.906250,17.693750,19.431250,31.280,0.56899230,-0.00972582,-0.02881581,-0.82178027
'00:18:50.864,0.061523,0.031250,1.001953,0.304878,1.280488,-0.548781,-4.806250,17.568750,19.325001,31.295,0.56899615,-0.00973816,-0.02883755,-0.82177670
'00:18:50.874,0.059082,0.029785,1.004395,0.304878,1.280488,-0.548781,-4.806250,17.568750,19.325001,31.325,0.56900035,-0.00974205,-0.02884022,-0.82177365
'00:18:50.884,0.059082,0.029297,1.005859,0.304878,1.341463,-0.548781,-4.800000,17.637501,19.337500,31.341,0.56900681,-0.00974447,-0.02883857,-0.82176921
'00:18:50.894,0.058594,0.029785,1.004883,0.365854,1.341463,-0.609756,-4.800000,17.637501,19.337500,31.310,0.56900884,-0.00973924,-0.02884261,-0.82176772
'00:18:50.904,0.060059,0.029785,1.004883,0.365854,1.341463,-0.548781,-4.875000,17.637501,19.412500,31.310,0.56900967,-0.00973795,-0.02884617,-0.82176704
'00:18:50.914,0.059082,0.029785,1.003906,0.365854,1.341463,-0.609756,-4.875000,17.637501,19.412500,31.295,0.56900614,-0.00973133,-0.02884634,-0.82176956
'00:18:50.924,0.059570,0.030273,1.002441,0.304878,1.280488,-0.548781,-4.950000,17.800001,19.487501,31.295,0.56900504,-0.00973140,-0.02884831,-0.82177025
'00:18:50.934,0.060547,0.030273,1.003906,0.304878,1.341463,-0.609756,-4.950000,17.800001,19.487501,31.325,0.56899971,-0.00973197,-0.02885042,-0.82177385
'00:18:50.944,0.059570,0.029297,1.003906,0.304878,1.341463,-0.548781,-5.156250,18.012501,19.712500,31.265,0.56898924,-0.00972262,-0.02883241,-0.82178185
'00:18:50.955,0.061035,0.029297,1.003906,0.304878,1.280488,-0.609756,-5.156250,18.012501,19.712500,31.280,0.56897281,-0.00972590,-0.02882246,-0.82179353
'00:18:50.964,0.059570,0.028320,1.004883,0.365854,1.341463,-0.609756,-4.850000,17.550001,19.393751,31.295,0.56896983,-0.00972790,-0.02881686,-0.82179577
'00:18:50.974,0.060547,0.029297,1.004883,0.365854,1.341463,-0.548781,-4.850000,17.550001,19.393751,31.356,0.56897066,-0.00973182,-0.02881998,-0.82179504
'00:18:50.985,0.060059,0.029297,1.004395,0.365854,1.341463,-0.548781,-4.762500,17.512501,19.287500,31.295,0.56897779,-0.00973826,-0.02882832,-0.82178973
'00:18:50.994,0.059570,0.029785,1.002930,0.365854,1.341463,-0.548781,-4.762500,17.512501,19.287500,31.310,0.56898350,-0.00973953,-0.02883632,-0.82178549
'00:18:51.004,0.058594,0.030273,1.002441,0.304878,1.341463,-0.548781,-4.793750,17.543751,19.343750,31.280,0.56898800,-0.00973530,-0.02883801,-0.82178236
'00:18:51.014,0.060547,0.030762,1.002441,0.365854,1.341463,-0.548781,-4.793750,17.543751,19.343750,31.341,0.56899235,-0.00973701,-0.02885438,-0.82177875
'00:18:51.024,0.061035,0.029297,1.004395,0.365854,1.341463,-0.548781,-4.931250,17.718750,19.481251,31.280,0.56899105,-0.00974103,-0.02885646,-0.82177953
'00:18:51.034,0.059082,0.029785,1.004395,0.365854,1.341463,-0.548781,-4.931250,17.718750,19.481251,31.341,0.56898970,-0.00973238,-0.02885374,-0.82178067
'00:18:51.044,0.060547,0.028809,1.004883,0.304878,1.280488,-0.548781,-5.143750,18.043751,19.725000,31.310,0.56898068,-0.00973553,-0.02884100,-0.82178732
'00:18:51.054,0.059570,0.028809,1.004883,0.304878,1.280488,-0.548781,-5.143750,18.043751,19.725000,31.325,0.56897173,-0.00973340,-0.02882478,-0.82179411
'00:18:51.064,0.059082,0.029785,1.003906,0.365854,1.341463,-0.548781,-4.762500,17.525000,19.350000,31.295,0.56897817,-0.00973233,-0.02883161,-0.82178943
'00:18:51.074,0.059082,0.029785,1.002930,0.365854,1.341463,-0.548781,-4.893750,17.737501,19.487501,31.295,0.56897989,-0.00972672,-0.02883325,-0.82178824
'00:18:51.084,0.059082,0.030273,1.001953,0.365854,1.341463,-0.548781,-4.893750,17.737501,19.487501,31.310,0.56898151,-0.00971947,-0.02883801,-0.82178704
'00:18:51.094,0.059082,0.030762,1.003906,0.304878,1.341463,-0.609756,-4.781250,17.556250,19.375000,31.325,0.56898261,-0.00971691,-0.02884507,-0.82178607
'00:18:51.104,0.060547,0.030762,1.003418,0.304878,1.341463,-0.548781,-4.781250,17.556250,19.375000,31.295,0.56898799,-0.00972275,-0.02885784,-0.82178182
'00:18:51.114,0.059570,0.029297,1.003906,0.304878,1.341463,-0.548781,-4.850000,17.618750,19.431250,31.280,0.56899015,-0.00972552,-0.02885406,-0.82178043
'00:18:51.124,0.060547,0.029297,1.004395,0.365854,1.341463,-0.548781,-4.850000,17.618750,19.431250,31.325,0.56899232,-0.00973051,-0.02885828,-0.82177872
'00:18:51.134,0.060547,0.030762,1.005371,0.365854,1.341463,-0.487805,-5.018750,17.918751,19.600000,31.310,0.56899338,-0.00972405,-0.02886401,-0.82177786
'00:18:51.144,0.060059,0.029297,1.005859,0.365854,1.341463,-0.548781,-5.018750,17.918751,19.600000,31.280,0.56899039,-0.00972042,-0.02885951,-0.82178013
'00:18:51.154,0.060547,0.030273,1.004395,0.304878,1.341463,-0.548781,-4.825000,17.668751,19.481251,31.310,0.56899500,-0.00972703,-0.02886785,-0.82177657
'00:18:51.164,0.058594,0.029297,1.001953,0.304878,1.280488,-0.548781,-4.825000,17.668751,19.481251,31.356,0.56899968,-0.00973141,-0.02886689,-0.82177331
'00:18:51.174,0.059570,0.030273,1.002930,0.365854,1.341463,-0.548781,-4.731250,17.562500,19.287500,31.310,0.56900917,-0.00973349,-0.02888151,-0.82176620
'00:18:51.184,0.059082,0.029297,1.003906,0.365854,1.341463,-0.548781,-4.731250,17.562500,19.287500,31.310,0.56901884,-0.00973643,-0.02888801,-0.82175924
'00:18:51.195,0.060059,0.029297,1.004395,0.365854,1.341463,-0.609756,-4.793750,17.593750,19.293751,31.310,0.56902053,-0.00974143,-0.02889442,-0.82175778
'00:18:51.204,0.059082,0.031250,1.003418,0.304878,1.280488,-0.548781,-4.793750,17.593750,19.293751,31.310,0.56902530,-0.00974065,-0.02890520,-0.82175411
'00:18:51.214,0.059570,0.030273,1.003418,0.365854,1.341463,-0.548781,-4.825000,17.612501,19.381250,31.310,0.56902885,-0.00973749,-0.02891249,-0.82175143
'00:18:51.224,0.060059,0.029785,1.004883,0.304878,1.341463,-0.609756,-4.825000,17.612501,19.381250,31.341,0.56902806,-0.00974154,-0.02891389,-0.82175188
'00:18:51.234,0.059570,0.028809,1.004395,0.365854,1.341463,-0.609756,-5.106250,18.050001,19.712500,31.325,0.56901733,-0.00973383,-0.02890084,-0.82175987
'00:18:51.245,0.061035,0.028809,1.004883,0.365854,1.341463,-0.609756,-5.106250,18.050001,19.712500,31.295,0.56900556,-0.00973414,-0.02889269,-0.82176829
'00:18:51.254,0.060059,0.029297,1.003418,0.365854,1.341463,-0.548781,-4.900000,17.743750,19.525000,31.295,0.56900660,-0.00973521,-0.02889353,-0.82176753
'00:18:51.264,0.059082,0.029785,1.001953,0.365854,1.280488,-0.548781,-4.900000,17.743750,19.525000,31.295,0.56900752,-0.00973374,-0.02889703,-0.82176679
'00:18:51.275,0.060059,0.029785,1.002441,0.365854,1.341463,-0.609756,-4.731250,17.450001,19.350000,31.295,0.56900991,-0.00973949,-0.02890873,-0.82176465
'00:18:51.284,0.060059,0.031738,1.004395,0.365854,1.341463,-0.548781,-4.731250,17.450001,19.350000,31.310,0.56901541,-0.00973685,-0.02892741,-0.82176023
'00:18:51.294,0.059082,0.030273,1.003418,0.304878,1.341463,-0.609756,-4.743750,17.550001,19.362501,31.341,0.56901883,-0.00973801,-0.02893311,-0.82175764
'00:18:51.304,0.060547,0.029785,1.004395,0.304878,1.341463,-0.548781,-4.743750,17.550001,19.362501,31.280,0.56902666,-0.00974915,-0.02894117,-0.82175180
'00:18:51.314,0.059570,0.028809,1.005859,0.304878,1.341463,-0.548781,-4.962500,17.775000,19.606251,31.325,0.56902385,-0.00974857,-0.02892702,-0.82175425
'00:18:51.324,0.060059,0.029785,1.004883,0.304878,1.280488,-0.548781,-5.225000,18.231251,19.781250,31.295,0.56901316,-0.00974298,-0.02891493,-0.82176215
'00:18:51.334,0.061035,0.029297,1.006348,0.365854,1.341463,-0.548781,-5.225000,18.231251,19.781250,31.295,0.56900283,-0.00973689,-0.02890484,-0.82176973
'00:18:51.344,0.059570,0.029785,1.003418,0.365854,1.402439,-0.548781,-5.262500,18.281250,19.843750,31.310,0.56899109,-0.00971622,-0.02888856,-0.82177867
'00:18:51.355,0.059082,0.030762,1.002441,0.365854,1.341463,-0.609756,-5.262500,18.281250,19.843750,31.310,0.56897309,-0.00969176,-0.02887867,-0.82179177
'00:18:51.364,0.059570,0.030762,1.000488,0.426829,1.341463,-0.609756,-4.918750,17.712500,19.456251,31.310,0.56896859,-0.00968204,-0.02888883,-0.82179464
'00:18:51.374,0.060547,0.029785,1.003906,0.304878,1.280488,-0.548781,-4.918750,17.712500,19.456251,31.310,0.56896791,-0.00969042,-0.02889111,-0.82179493
'00:18:51.384,0.060059,0.029785,1.004883,0.304878,1.280488,-0.548781,-4.818750,17.537500,19.350000,31.310,0.56897045,-0.00969919,-0.02889487,-0.82179294
'00:18:51.396,0.060059,0.029297,1.004883,0.304878,1.341463,-0.548781,-4.818750,17.537500,19.350000,31.325,0.56897375,-0.00970660,-0.02889234,-0.82179066
'00:18:51.404,0.060059,0.028809,1.006348,0.365854,1.280488,-0.548781,-4.756250,17.550001,19.287500,31.295,0.56897990,-0.00971690,-0.02889818,-0.82178607
'00:18:51.414,0.060059,0.027344,1.005371,0.304878,1.341463,-0.548781,-4.756250,17.550001,19.287500,31.310,0.56898793,-0.00973422,-0.02889003,-0.82178059
'00:18:51.424,0.059082,0.029297,1.004883,0.365854,1.341463,-0.609756,-4.818750,17.668751,19.375000,31.310,0.56898930,-0.00973311,-0.02889163,-0.82177960
'00:18:51.435,0.060547,0.029785,1.002930,0.365854,1.341463,-0.609756,-4.818750,17.668751,19.375000,31.295,0.56899061,-0.00973913,-0.02890344,-0.82177821
'00:18:51.444,0.060059,0.030762,1.002441,0.365854,1.341463,-0.548781,-5.012500,17.806250,19.612501,31.341,0.56898550,-0.00973012,-0.02890534,-0.82178179
'00:18:51.454,0.059570,0.030762,1.001953,0.304878,1.341463,-0.609756,-5.012500,17.806250,19.612501,31.310,0.56897545,-0.00972054,-0.02890146,-0.82178899
'00:18:51.464,0.059082,0.030273,1.003418,0.365854,1.341463,-0.548781,-5.193750,18.231251,19.831251,31.310,0.56896696,-0.00970317,-0.02889301,-0.82179538
'00:18:51.480,0.060059,0.029297,1.005859,0.243902,1.341463,-0.548781,-5.243750,18.206251,19.856251,31.310,0.56894737,-0.00969419,-0.02885478,-0.82181039
'00:18:51.485,0.061035,0.027832,1.006348,0.365854,1.341463,-0.548781,-5.243750,18.206251,19.856251,31.310,0.56894150,-0.00969383,-0.02884527,-0.82181479
'00:18:51.494,0.060059,0.027832,1.006348,0.304878,1.341463,-0.548781,-5.243750,18.206251,19.856251,31.310,0.56893095,-0.00969123,-0.02882106,-0.82182297
'00:18:51.504,0.059570,0.028809,1.003906,0.426829,1.402439,-0.609756,-4.750000,17.443750,19.356251,31.341,0.56893254,-0.00968967,-0.02882489,-0.82182176
'00:18:51.515,0.059570,0.030762,1.002930,0.365854,1.341463,-0.609756,-4.750000,17.443750,19.356251,31.325,0.56893359,-0.00968778,-0.02884028,-0.82182052
'00:18:51.524,0.059570,0.031738,1.002441,0.365854,1.341463,-0.548781,-4.987500,17.875000,19.562500,31.295,0.56893181,-0.00967594,-0.02884989,-0.82182155
'00:18:51.534,0.058594,0.030762,1.003418,0.304878,1.341463,-0.548781,-4.987500,17.875000,19.562500,31.265,0.56893003,-0.00966422,-0.02884648,-0.82182304
'00:18:51.544,0.058594,0.030762,1.003418,0.304878,1.341463,-0.548781,-5.037500,17.993750,19.675001,31.265,0.56892722,-0.00965167,-0.02884193,-0.82182529
'00:18:51.556,0.058594,0.030273,1.003418,0.304878,1.341463,-0.548781,-4.931250,17.743750,19.506250,31.310,0.56892648,-0.00964200,-0.02883631,-0.82182611
'00:18:51.564,0.058594,0.030273,1.003418,0.304878,1.341463,-0.548781,-4.931250,17.743750,19.506250,31.310,0.56892600,-0.00963567,-0.02883265,-0.82182664
'00:18:51.574,0.060059,0.029297,1.005371,0.304878,1.341463,-0.548781,-4.931250,17.743750,19.506250,31.310,0.56892561,-0.00963933,-0.02882752,-0.82182706
'00:18:51.584,0.059570,0.028809,1.005371,0.365854,1.341463,-0.609756,-4.706250,17.475000,19.275000,31.310,0.56893129,-0.00964859,-0.02883385,-0.82182280
'00:18:51.595,0.059082,0.030762,1.004883,0.365854,1.341463,-0.609756,-4.850000,17.681250,19.387501,31.325,0.56893081,-0.00964090,-0.02884371,-0.82182287
'00:18:51.604,0.059082,0.030762,1.004883,0.365854,1.341463,-0.609756,-4.850000,17.681250,19.387501,31.325,0.56893043,-0.00963470,-0.02885164,-0.82182293
'00:18:51.614,0.059082,0.030273,1.002930,0.304878,1.341463,-0.609756,-4.750000,17.512501,19.331251,31.310,0.56893325,-0.00963691,-0.02885794,-0.82182073
'00:18:51.624,0.060059,0.030762,1.001465,0.304878,1.341463,-0.548781,-4.750000,17.512501,19.331251,31.280,0.56894026,-0.00964302,-0.02887124,-0.82181533
'00:18:51.637,0.060059,0.031250,1.002930,0.304878,1.341463,-0.548781,-5.037500,17.950001,19.581251,31.280,0.56893555,-0.00963404,-0.02887478,-0.82181858
'00:18:51.644,0.060547,0.030273,1.003906,0.304878,1.341463,-0.548781,-5.037500,17.950001,19.581251,31.280,0.56893316,-0.00963366,-0.02887390,-0.82182026
'00:18:51.654,0.060547,0.028809,1.004883,0.304878,1.280488,-0.548781,-5.112500,18.050001,19.687500,31.325,0.56892682,-0.00964018,-0.02886373,-0.82182494
'00:18:51.665,0.059570,0.029297,1.006348,0.304878,1.341463,-0.548781,-5.112500,18.050001,19.687500,31.265,0.56891997,-0.00963428,-0.02884768,-0.82183031
'00:18:51.676,0.059570,0.028320,1.005371,0.365854,1.341463,-0.548781,-4.937500,17.831251,19.525000,31.325,0.56892152,-0.00963717,-0.02884026,-0.82182946
'00:18:51.684,0.060059,0.028320,1.004883,0.365854,1.341463,-0.609756,-4.937500,17.831251,19.525000,31.280,0.56891914,-0.00964135,-0.02883663,-0.82183119
'00:18:51.694,0.059082,0.030273,1.004395,0.365854,1.341463,-0.548781,-4.837500,17.556250,19.375000,31.295,0.56892119,-0.00963566,-0.02884099,-0.82182969
'00:18:51.704,0.058594,0.030273,1.001465,0.304878,1.341463,-0.548781,-4.837500,17.556250,19.375000,31.310,0.56892317,-0.00963096,-0.02884019,-0.82182840
'00:18:51.716,0.059082,0.030762,1.000977,0.304878,1.341463,-0.548781,-4.731250,17.500000,19.318750,31.265,0.56893301,-0.00963323,-0.02885371,-0.82182108
'00:18:51.724,0.058594,0.030273,1.002441,0.304878,1.341463,-0.548781,-4.731250,17.500000,19.318750,31.310,0.56893964,-0.00963380,-0.02885828,-0.82181633
'00:18:51.734,0.059570,0.029297,1.004395,0.304878,1.280488,-0.548781,-5.106250,17.981251,19.643751,31.310,0.56893222,-0.00963259,-0.02884646,-0.82182190
'00:18:51.744,0.060059,0.028320,1.003906,0.304878,1.341463,-0.548781,-5.106250,17.981251,19.643751,31.310,0.56892518,-0.00963358,-0.02882847,-0.82182738
'00:18:51.758,0.061035,0.029297,1.006836,0.304878,1.280488,-0.548781,-4.956250,17.731251,19.556250,31.356,0.56892132,-0.00964977,-0.02882677,-0.82182993
'00:18:51.764,0.060547,0.029297,1.004395,0.426829,1.341463,-0.548781,-4.956250,17.731251,19.556250,31.341,0.56891981,-0.00964904,-0.02882894,-0.82183090
'00:18:51.774,0.060059,0.029785,1.004883,0.426829,1.341463,-0.548781,-5.031250,17.856251,19.618750,31.310,0.56891482,-0.00964056,-0.02883036,-0.82183441
'00:18:51.784,0.058594,0.029785,1.002930,0.365854,1.341463,-0.609756,-5.031250,17.856251,19.618750,31.280,0.56890546,-0.00962748,-0.02882263,-0.82184131
'00:18:51.794,0.059570,0.029785,1.002930,0.304878,1.341463,-0.548781,-5.081250,17.981251,19.662500,31.310,0.56889985,-0.00962208,-0.02881356,-0.82184558
'00:18:51.804,0.059082,0.030762,1.003906,0.304878,1.341463,-0.548781,-5.081250,17.981251,19.662500,31.310,0.56889411,-0.00961015,-0.02880784,-0.82184990
'00:18:51.814,0.059570,0.029297,1.004883,0.304878,1.341463,-0.548781,-4.762500,17.500000,19.275000,31.341,0.56890081,-0.00961812,-0.02880937,-0.82184511
'00:18:51.824,0.059570,0.029297,1.005371,0.365854,1.280488,-0.609756,-4.762500,17.500000,19.275000,31.310,0.56890300,-0.00962703,-0.02881809,-0.82184318
'00:18:51.836,0.059570,0.029785,1.003906,0.365854,1.341463,-0.548781,-4.712500,17.400000,19.331251,31.280,0.56891196,-0.00963287,-0.02883042,-0.82183648
'00:18:51.844,0.059570,0.029297,1.003906,0.365854,1.341463,-0.548781,-4.712500,17.400000,19.331251,31.325,0.56891797,-0.00963822,-0.02883620,-0.82183205
'00:18:51.854,0.060059,0.029785,1.002930,0.365854,1.280488,-0.548781,-4.981250,17.787500,19.593750,31.280,0.56891463,-0.00963967,-0.02883915,-0.82183424
'00:18:51.864,0.059570,0.031250,1.003418,0.304878,1.402439,-0.548781,-4.937500,17.775000,19.550001,31.310,0.56891412,-0.00962918,-0.02884096,-0.82183466
'00:18:51.874,0.061035,0.030762,1.001953,0.304878,1.341463,-0.609756,-4.937500,17.775000,19.550001,31.341,0.56890915,-0.00963335,-0.02884930,-0.82183776
'00:18:51.884,0.060547,0.029297,1.004395,0.304878,1.341463,-0.548781,-4.737500,17.481251,19.237501,31.356,0.56891711,-0.00964754,-0.02885564,-0.82183186
'00:18:51.894,0.060059,0.029297,1.004883,0.243902,1.341463,-0.548781,-4.737500,17.481251,19.237501,31.325,0.56892498,-0.00966171,-0.02885537,-0.82182625
'00:18:51.904,0.060059,0.028809,1.004395,0.304878,1.280488,-0.609756,-5.181250,18.043751,19.706251,31.280,0.56890954,-0.00966121,-0.02883865,-0.82183753
'00:18:51.914,0.060059,0.029297,1.004883,0.304878,1.341463,-0.609756,-5.181250,18.043751,19.706251,31.280,0.56889423,-0.00965444,-0.02882172,-0.82184880
'00:18:51.924,0.059570,0.030762,1.004395,0.365854,1.402439,-0.609756,-4.837500,17.600000,19.318750,31.310,0.56889330,-0.00964537,-0.02882923,-0.82184929
'00:18:51.934,0.059082,0.030762,1.002441,0.304878,1.402439,-0.548781,-4.837500,17.600000,19.318750,31.310,0.56889669,-0.00963731,-0.02883112,-0.82184697
'00:18:51.944,0.059570,0.029785,1.002441,0.304878,1.341463,-0.548781,-5.137500,17.993750,19.725000,31.310,0.56888738,-0.00962896,-0.02881808,-0.82185397
'00:18:51.954,0.059082,0.029785,1.002930,0.365854,1.341463,-0.548781,-5.137500,17.993750,19.725000,31.325,0.56887821,-0.00961499,-0.02880761,-0.82186085
'00:18:51.964,0.061523,0.029297,1.002441,0.182927,1.219512,-0.548781,-5.025000,17.825001,19.500000,31.295,0.56887315,-0.00963799,-0.02880199,-0.82186428
'00:18:51.974,0.059570,0.028809,1.005371,0.304878,1.341463,-0.548781,-5.025000,17.825001,19.500000,31.341,0.56886866,-0.00963654,-0.02878784,-0.82186790
'00:18:51.984,0.060059,0.029297,1.006836,0.365854,1.341463,-0.609756,-4.793750,17.543751,19.356251,31.341,0.56886962,-0.00964222,-0.02879368,-0.82186697
'00:18:51.994,0.059570,0.030273,1.005371,0.304878,1.402439,-0.548781,-4.793750,17.543751,19.356251,31.310,0.56887482,-0.00964036,-0.02879620,-0.82186330
'00:18:52.004,0.059082,0.030273,1.002930,0.304878,1.402439,-0.548781,-4.775000,17.568750,19.375000,31.310,0.56888183,-0.00963787,-0.02879978,-0.82185835
'00:18:52.014,0.060059,0.028809,1.003418,0.304878,1.341463,-0.548781,-4.775000,17.568750,19.375000,31.280,0.56888894,-0.00965088,-0.02880157,-0.82185322
'00:18:52.024,0.059570,0.029297,1.002441,0.365854,1.402439,-0.548781,-5.043750,17.900000,19.637501,31.310,0.56888439,-0.00964082,-0.02879257,-0.82185679
'00:18:52.034,0.059082,0.029785,1.002930,0.304878,1.280488,-0.487805,-5.043750,17.900000,19.637501,31.325,0.56888382,-0.00963819,-0.02878605,-0.82185745
'00:18:52.044,0.058105,0.031250,1.002930,0.304878,1.402439,-0.548781,-5.218750,18.156250,19.750000,31.310,0.56887285,-0.00960964,-0.02877099,-0.82186591
'00:18:52.054,0.059082,0.029785,1.001953,0.243902,1.341463,-0.609756,-5.218750,18.156250,19.750000,31.280,0.56885769,-0.00959988,-0.02875097,-0.82187721
'00:18:52.066,0.061035,0.029785,1.004883,0.182927,1.219512,-0.609756,-5.037500,17.925001,19.625000,31.295,0.56884771,-0.00962284,-0.02874674,-0.82188400
'00:18:52.074,0.061035,0.029297,1.004883,0.000000,1.036585,-0.548781,-5.037500,17.925001,19.625000,31.310,0.56884415,-0.00965729,-0.02873853,-0.82188635
'00:18:52.084,0.061035,0.027832,1.003906,0.182927,1.219512,-0.548781,-4.756250,17.550001,19.393751,31.310,0.56885199,-0.00969516,-0.02873773,-0.82188050
'00:18:52.094,0.061523,0.027832,1.003418,0.548781,1.524390,-0.609756,-4.756250,17.550001,19.393751,31.295,0.56885643,-0.00969510,-0.02875010,-0.82187700
'00:18:52.104,0.060059,0.028809,1.003418,0.487805,1.524390,-0.609756,-4.762500,17.518751,19.250000,31.295,0.56886006,-0.00968476,-0.02875685,-0.82187437
'00:18:52.114,0.059082,0.029785,1.004395,0.304878,1.341463,-0.548781,-4.781250,17.512501,19.306250,31.341,0.56886559,-0.00968634,-0.02875903,-0.82187045
'00:18:52.125,0.058594,0.029297,1.004395,0.304878,1.280488,-0.548781,-4.781250,17.512501,19.306250,31.325,0.56887161,-0.00969198,-0.02875956,-0.82186619
'00:18:52.134,0.059570,0.030273,1.002930,0.487805,1.585366,-0.609756,-4.781250,17.568750,19.356251,31.325,0.56887419,-0.00967104,-0.02876823,-0.82186436
'00:18:52.144,0.056641,0.031250,1.003418,0.426829,1.463415,-0.548781,-4.781250,17.568750,19.356251,31.295,0.56888098,-0.00963968,-0.02877337,-0.82185984
'00:18:52.154,0.060059,0.029297,1.003906,0.060976,1.036585,-0.548781,-5.112500,18.075001,19.656250,31.325,0.56887476,-0.00967195,-0.02876150,-0.82186418
'00:18:52.164,0.061035,0.027344,1.003418,0.000000,1.036585,-0.548781,-5.112500,18.075001,19.656250,31.280,0.56886884,-0.00971964,-0.02873853,-0.82186852
'00:18:52.174,0.061523,0.028320,1.002441,0.548781,1.524390,-0.548781,-5.025000,17.912500,19.606251,31.325,0.56886663,-0.00970651,-0.02874136,-0.82187011
'00:18:52.184,0.060059,0.031250,1.005859,0.914634,2.012195,-0.609756,-5.025000,17.912500,19.606251,31.341,0.56886107,-0.00962030,-0.02875563,-0.82187447
'00:18:52.194,0.062012,0.028809,1.003906,-0.243902,0.731707,-0.426829,-4.862500,17.700001,19.443750,31.280,0.56887175,-0.00971205,-0.02875253,-0.82186611
'00:18:52.207,0.062500,0.026855,1.001953,0.243902,1.219512,-0.548781,-4.862500,17.700001,19.443750,31.280,0.56887662,-0.00976615,-0.02875156,-0.82186213
'00:18:52.214,0.061035,0.027832,1.002441,0.792683,1.768293,-0.609756,-4.881250,17.750000,19.456251,31.310,0.56887718,-0.00973934,-0.02875907,-0.82186179
'00:18:52.224,0.055176,0.033203,1.006348,0.487805,1.524390,-0.609756,-4.881250,17.750000,19.456251,31.265,0.56887626,-0.00967984,-0.02876614,-0.82186289
'00:18:52.234,0.060547,0.028809,1.001465,0.060976,1.036585,-0.548781,-4.781250,17.493750,19.375000,31.325,0.56888014,-0.00972797,-0.02876644,-0.82185963
'00:18:52.244,0.058594,0.029297,1.001953,0.731707,1.768293,-0.670732,-4.781250,17.493750,19.375000,31.325,0.56887757,-0.00967641,-0.02877350,-0.82186177
'00:18:52.254,0.056641,0.032227,1.005859,-0.121951,0.914634,-0.487805,-5.200000,18.125000,19.731251,31.310,0.56886977,-0.00969193,-0.02875153,-0.82186775
'00:18:52.264,0.061035,0.028320,1.002930,0.304878,1.341463,-0.548781,-5.200000,18.125000,19.731251,31.310,0.56885977,-0.00969461,-0.02873561,-0.82187519
'00:18:52.274,0.059082,0.029785,1.004883,0.670732,1.707317,-0.609756,-4.931250,17.837500,19.518751,31.280,0.56885859,-0.00964739,-0.02874170,-0.82187636
'00:18:52.284,0.060547,0.029785,1.003418,0.000000,0.914634,-0.548781,-4.931250,17.837500,19.518751,31.280,0.56885923,-0.00969940,-0.02874515,-0.82187518
'00:18:52.294,0.060547,0.029785,1.003418,0.000000,0.914634,-0.548781,-4.756250,17.562500,19.350000,31.280,0.56886611,-0.00975719,-0.02875596,-0.82186936
'00:18:52.304,0.061035,0.028320,1.003418,0.243902,1.219512,-0.548781,-4.756250,17.562500,19.350000,31.310,0.56887410,-0.00978859,-0.02876238,-0.82186323
'00:18:52.314,0.061523,0.030273,1.003418,0.548781,1.585366,-0.609756,-4.762500,17.518751,19.312500,31.280,0.56887705,-0.00977188,-0.02878389,-0.82186064
'00:18:52.324,0.058105,0.031738,1.004883,0.304878,1.341463,-0.609756,-4.762500,17.518751,19.312500,31.325,0.56887901,-0.00975988,-0.02879421,-0.82185906
'00:18:52.334,0.060059,0.029785,1.002930,0.060976,1.097561,-0.548781,-4.743750,17.512501,19.362501,31.310,0.56888579,-0.00979801,-0.02879742,-0.82185380
'00:18:52.344,0.060059,0.029785,1.001465,0.304878,1.341463,-0.609756,-4.743750,17.512501,19.362501,31.295,0.56888891,-0.00980613,-0.02880652,-0.82185122
'00:18:52.354,0.059082,0.030273,1.003418,0.426829,1.463415,-0.548781,-4.956250,17.750000,19.518751,31.356,0.56888698,-0.00978245,-0.02880505,-0.82185289
'00:18:52.364,0.057129,0.030273,1.004395,0.304878,1.341463,-0.609756,-4.956250,17.750000,19.518751,31.341,0.56888039,-0.00976279,-0.02879311,-0.82185811
'00:18:52.374,0.058594,0.029297,1.004395,0.182927,1.158537,-0.548781,-4.806250,17.531250,19.356251,31.295,0.56888369,-0.00978028,-0.02878853,-0.82185578
'00:18:52.384,0.059082,0.028320,1.005371,0.243902,1.219512,-0.548781,-5.056250,17.950001,19.593750,31.280,0.56887913,-0.00978781,-0.02877186,-0.82185943
'00:18:52.394,0.059570,0.029297,1.004395,0.426829,1.463415,-0.548781,-5.056250,17.950001,19.593750,31.280,0.56887515,-0.00976783,-0.02876413,-0.82186269
'00:18:52.407,0.060547,0.029297,1.004395,0.548781,1.585366,-0.609756,-4.918750,17.743750,19.506250,31.310,0.56887115,-0.00973644,-0.02877008,-0.82186562
'00:18:52.414,0.059082,0.030273,1.004883,0.304878,1.341463,-0.609756,-4.918750,17.743750,19.506250,31.341,0.56886836,-0.00973219,-0.02876927,-0.82186763
'00:18:52.424,0.060059,0.029785,1.003906,0.365854,1.280488,-0.609756,-4.818750,17.593750,19.387501,31.295,0.56886821,-0.00973874,-0.02878138,-0.82186723
'00:18:52.434,0.059082,0.029785,1.003418,0.487805,1.524390,-0.609756,-4.818750,17.593750,19.387501,31.341,0.56886877,-0.00971634,-0.02878633,-0.82186693
'00:18:52.444,0.060059,0.028809,1.002930,0.182927,1.158537,-0.609756,-4.962500,17.831251,19.568750,31.310,0.56886331,-0.00973994,-0.02878018,-0.82187065
'00:18:52.454,0.060059,0.029785,1.004395,0.365854,1.463415,-0.609756,-4.962500,17.831251,19.568750,31.295,0.56885857,-0.00972819,-0.02877699,-0.82187419
'00:18:52.464,0.060059,0.029297,1.004395,0.182927,1.219512,-0.548781,-4.931250,17.800001,19.500000,31.371,0.56885924,-0.00974648,-0.02877189,-0.82187368
'00:18:52.474,0.060059,0.030273,1.004883,0.365854,1.402439,-0.548781,-4.931250,17.800001,19.500000,31.310,0.56886031,-0.00973842,-0.02877616,-0.82187289
'00:18:52.484,0.059082,0.028809,1.002930,0.304878,1.280488,-0.548781,-4.925000,17.750000,19.500000,31.341,0.56886059,-0.00974269,-0.02877011,-0.82187285
'00:18:52.494,0.059082,0.029297,1.004395,0.365854,1.402439,-0.548781,-4.925000,17.750000,19.500000,31.295,0.56886115,-0.00973293,-0.02876466,-0.82187277
'00:18:52.504,0.060547,0.028809,1.002930,0.304878,1.341463,-0.548781,-4.756250,17.512501,19.331251,31.310,0.56886835,-0.00974770,-0.02876925,-0.82186745
'00:18:52.514,0.059082,0.029785,1.003906,0.304878,1.341463,-0.548781,-4.756250,17.512501,19.331251,31.341,0.56887536,-0.00975001,-0.02877320,-0.82186243
'00:18:52.524,0.060059,0.027832,1.003906,0.304878,1.280488,-0.548781,-4.768750,17.506250,19.356251,31.310,0.56888142,-0.00976898,-0.02877154,-0.82185807
'00:18:52.534,0.060059,0.029785,1.003418,0.365854,1.341463,-0.548781,-4.768750,17.506250,19.356251,31.310,0.56888722,-0.00977264,-0.02878254,-0.82185363
'00:18:52.545,0.060059,0.029297,1.005859,0.304878,1.280488,-0.548781,-4.725000,17.512501,19.318750,31.325,0.56889719,-0.00978923,-0.02879286,-0.82184617
'00:18:52.554,0.060547,0.029297,1.004395,0.365854,1.280488,-0.548781,-4.725000,17.512501,19.318750,31.325,0.56890528,-0.00980253,-0.02880726,-0.82183991
'00:18:52.564,0.061523,0.029297,1.004395,0.365854,1.341463,-0.548781,-4.893750,17.675001,19.456251,31.325,0.56890584,-0.00981019,-0.02881405,-0.82183919
'00:18:52.575,0.060059,0.028809,1.003906,0.304878,1.341463,-0.548781,-4.893750,17.675001,19.456251,31.310,0.56890653,-0.00981518,-0.02880758,-0.82183888
'00:18:52.584,0.061035,0.029785,1.002441,0.304878,1.341463,-0.609756,-5.012500,17.875000,19.637501,31.325,0.56889924,-0.00981723,-0.02880701,-0.82184393
'00:18:52.594,0.060059,0.029785,1.002930,0.304878,1.341463,-0.548781,-5.012500,17.875000,19.637501,31.295,0.56889555,-0.00981420,-0.02880242,-0.82184667
'00:18:52.604,0.060059,0.029297,1.003418,0.304878,1.280488,-0.609756,-4.718750,17.518751,19.375000,31.310,0.56890043,-0.00982963,-0.02881292,-0.82184274
'00:18:52.614,0.059082,0.030273,1.004883,0.365854,1.341463,-0.548781,-4.718750,17.518751,19.375000,31.295,0.56890967,-0.00982789,-0.02882570,-0.82183592
'00:18:52.624,0.060059,0.029297,1.004883,0.304878,1.341463,-0.548781,-4.706250,17.525000,19.275000,31.310,0.56892043,-0.00983904,-0.02883345,-0.82182806
'00:18:52.634,0.058594,0.029785,1.003906,0.304878,1.341463,-0.548781,-4.756250,17.450001,19.275000,31.341,0.56892576,-0.00983593,-0.02883272,-0.82182444
'00:18:52.644,0.059570,0.029297,1.004883,0.365854,1.280488,-0.548781,-4.756250,17.450001,19.275000,31.295,0.56893105,-0.00984137,-0.02884003,-0.82182046
'00:18:52.654,0.059570,0.029297,1.003418,0.304878,1.280488,-0.548781,-4.762500,17.512501,19.287500,31.295,0.56893723,-0.00985054,-0.02884438,-0.82181591
'00:18:52.664,0.059082,0.028809,1.003906,0.365854,1.341463,-0.548781,-4.762500,17.512501,19.287500,31.341,0.56894370,-0.00985127,-0.02884511,-0.82181140
'00:18:52.675,0.060059,0.029785,1.004395,0.243902,1.280488,-0.609756,-4.950000,17.850000,19.518751,31.325,0.56893887,-0.00985814,-0.02884197,-0.82181477
'00:18:52.684,0.060547,0.028809,1.005371,0.304878,1.280488,-0.548781,-4.950000,17.850000,19.518751,31.310,0.56893908,-0.00986672,-0.02883977,-0.82181460
'00:18:52.694,0.060547,0.029785,1.004395,0.304878,1.341463,-0.609756,-4.781250,17.612501,19.393751,31.356,0.56894144,-0.00987474,-0.02884792,-0.82181258
'00:18:52.704,0.059082,0.028809,1.003906,0.365854,1.402439,-0.548781,-4.781250,17.612501,19.393751,31.280,0.56894861,-0.00987122,-0.02884617,-0.82180772
'00:18:52.714,0.059570,0.029785,1.004395,0.304878,1.341463,-0.548781,-4.806250,17.606251,19.343750,31.341,0.56895365,-0.00987211,-0.02884836,-0.82180415
'00:18:52.725,0.059570,0.030273,1.002930,0.304878,1.280488,-0.548781,-4.806250,17.606251,19.343750,31.356,0.56895888,-0.00987609,-0.02885771,-0.82180015
'00:18:52.735,0.059082,0.029785,1.003418,0.304878,1.280488,-0.548781,-4.831250,17.543751,19.268751,31.341,0.56896080,-0.00987614,-0.02885792,-0.82179881
'00:18:52.744,0.060059,0.029785,1.002930,0.365854,1.341463,-0.548781,-4.831250,17.543751,19.268751,31.356,0.56896268,-0.00987447,-0.02886287,-0.82179735
'00:18:52.754,0.059570,0.028809,1.004883,0.243902,1.280488,-0.548781,-4.800000,17.568750,19.356251,31.341,0.56896714,-0.00988628,-0.02885722,-0.82179432
'00:18:52.764,0.060547,0.029785,1.003906,0.304878,1.341463,-0.609756,-4.800000,17.568750,19.356251,31.310,0.56896716,-0.00989213,-0.02886271,-0.82179405
'00:18:52.774,0.058594,0.030273,1.004395,0.304878,1.280488,-0.609756,-5.012500,17.843750,19.525000,31.341,0.56895818,-0.00988099,-0.02885605,-0.82180063
'00:18:52.784,0.060547,0.029297,1.003418,0.182927,1.158537,-0.548781,-5.012500,17.843750,19.525000,31.250,0.56895336,-0.00989965,-0.02884919,-0.82180399
'00:18:52.794,0.061523,0.028809,1.002930,0.243902,1.219512,-0.548781,-4.962500,17.806250,19.481251,31.310,0.56895149,-0.00992031,-0.02884795,-0.82180508
'00:18:52.804,0.059570,0.029297,1.003906,0.304878,1.341463,-0.609756,-4.962500,17.806250,19.481251,31.295,0.56894554,-0.00991600,-0.02883996,-0.82180953
'00:18:52.814,0.059570,0.029785,1.003418,0.365854,1.402439,-0.548781,-4.806250,17.562500,19.337500,31.341,0.56894971,-0.00990842,-0.02884288,-0.82180663
'00:18:52.824,0.059082,0.029297,1.004883,0.243902,1.280488,-0.609756,-4.806250,17.562500,19.337500,31.356,0.56894923,-0.00991449,-0.02883788,-0.82180706
'00:18:52.834,0.059570,0.029297,1.004395,0.182927,1.158537,-0.548781,-4.731250,17.468750,19.325001,31.310,0.56895582,-0.00993853,-0.02884033,-0.82180213
'00:18:52.844,0.060059,0.028320,1.004395,0.243902,1.219512,-0.548781,-4.731250,17.468750,19.325001,31.310,0.56896273,-0.00996138,-0.02884034,-0.82179707
'00:18:52.854,0.061523,0.028320,1.002930,0.548781,1.524390,-0.548781,-4.812500,17.525000,19.337500,31.325,0.56896613,-0.00995102,-0.02884822,-0.82179456
'00:18:52.864,0.060059,0.029297,1.004395,0.487805,1.524390,-0.670732,-4.812500,17.525000,19.337500,31.341,0.56896059,-0.00993126,-0.02885100,-0.82179853
'00:18:52.874,0.060059,0.029297,1.004395,0.182927,1.219512,-0.609756,-4.868750,17.643751,19.387501,31.310,0.56895715,-0.00994726,-0.02884540,-0.82180092
'00:18:52.884,0.059570,0.029785,1.002930,0.121951,1.036585,-0.548781,-4.868750,17.643751,19.387501,31.310,0.56895746,-0.00997503,-0.02884597,-0.82180035
'00:18:52.894,0.060547,0.029297,1.001465,0.243902,1.280488,-0.548781,-4.993750,17.837500,19.518751,31.325,0.56895398,-0.00998197,-0.02883949,-0.82180290
'00:18:52.904,0.060547,0.028809,1.003418,0.487805,1.646341,-0.609756,-4.718750,17.462500,19.306250,31.325,0.56895841,-0.00996297,-0.02884177,-0.82179999
'00:18:52.914,0.059570,0.029297,1.005371,0.487805,1.585366,-0.609756,-4.718750,17.462500,19.306250,31.310,0.56896267,-0.00994082,-0.02884526,-0.82179718
'00:18:52.924,0.059082,0.029785,1.004395,0.182927,1.219512,-0.548781,-4.806250,17.493750,19.356251,31.325,0.56896442,-0.00995115,-0.02883996,-0.82179603
'00:18:52.934,0.060059,0.029785,1.004883,0.121951,1.097561,-0.548781,-4.806250,17.493750,19.356251,31.280,0.56896577,-0.00997842,-0.02884000,-0.82179477
'00:18:52.944,0.060547,0.028320,1.002930,0.365854,1.402439,-0.548781,-4.818750,17.562500,19.381250,31.341,0.56896897,-0.00998047,-0.02883732,-0.82179262
'00:18:52.954,0.060547,0.028809,1.003906,0.487805,1.463415,-0.609756,-4.818750,17.562500,19.381250,31.341,0.56896796,-0.00996978,-0.02884282,-0.82179326
'00:18:52.964,0.060059,0.029785,1.003906,0.426829,1.402439,-0.548781,-5.143750,18.043751,19.725000,31.280,0.56895882,-0.00994854,-0.02883654,-0.82180006
'00:18:52.974,0.059570,0.029785,1.004395,0.243902,1.219512,-0.609756,-5.143750,18.043751,19.725000,31.295,0.56894479,-0.00994692,-0.02882441,-0.82181022
'00:18:52.984,0.060059,0.029297,1.002930,0.304878,1.280488,-0.548781,-5.125000,17.937500,19.681250,31.295,0.56893443,-0.00994249,-0.02881246,-0.82181787
'00:18:52.994,0.059082,0.029297,1.003418,0.426829,1.402439,-0.609756,-5.125000,17.937500,19.681250,31.325,0.56892019,-0.00991782,-0.02879958,-0.82182847
'00:18:53.004,0.059082,0.029297,1.003418,0.487805,1.463415,-0.548781,-5.106250,18.018751,19.600000,31.371,0.56891410,-0.00988835,-0.02879189,-0.82183331
'00:18:53.014,0.058594,0.029785,1.003418,0.304878,1.280488,-0.548781,-5.106250,18.018751,19.600000,31.310,0.56890739,-0.00987700,-0.02878121,-0.82183847
'00:18:53.025,0.060059,0.028809,1.003418,0.182927,1.219512,-0.548781,-5.318750,18.306250,19.781250,31.280,0.56889122,-0.00988069,-0.02875375,-0.82185058
'00:18:53.034,0.060059,0.028809,1.003418,0.182927,1.219512,-0.548781,-5.318750,18.306250,19.781250,31.280,0.56887807,-0.00988374,-0.02873172,-0.82186041
'00:18:53.045,0.061035,0.028809,1.003418,0.304878,1.219512,-0.609756,-4.787500,17.550001,19.337500,31.341,0.56887908,-0.00990817,-0.02874385,-0.82185900
'00:18:53.054,0.060059,0.029297,1.003418,0.426829,1.402439,-0.548781,-4.787500,17.550001,19.337500,31.310,0.56888423,-0.00990411,-0.02875231,-0.82185519
'00:18:53.064,0.060547,0.029297,1.003418,0.487805,1.402439,-0.548781,-4.775000,17.550001,19.350000,31.341,0.56889077,-0.00990014,-0.02876877,-0.82185013
'00:18:53.074,0.059570,0.029297,1.005859,0.426829,1.402439,-0.548781,-4.775000,17.550001,19.350000,31.295,0.56889729,-0.00989326,-0.02877582,-0.82184546
'00:18:53.084,0.060059,0.028809,1.004395,0.243902,1.219512,-0.548781,-5.031250,17.931250,19.537500,31.341,0.56889384,-0.00990379,-0.02876750,-0.82184801
'00:18:53.094,0.060547,0.030273,1.003418,0.182927,1.219512,-0.548781,-5.031250,17.931250,19.537500,31.341,0.56889002,-0.00991441,-0.02876528,-0.82185060
'00:18:53.104,0.060059,0.028809,1.002930,0.365854,1.341463,-0.609756,-4.787500,17.593750,19.312500,31.325,0.56889232,-0.00991953,-0.02877151,-0.82184873
'00:18:53.114,0.060059,0.029297,1.003418,0.487805,1.463415,-0.548781,-4.787500,17.593750,19.312500,31.310,0.56889927,-0.00990789,-0.02878284,-0.82184366
'00:18:53.125,0.059570,0.030762,1.003906,0.426829,1.402439,-0.548781,-4.768750,17.475000,19.243750,31.341,0.56890502,-0.00989320,-0.02879912,-0.82183929
'00:18:53.135,0.060059,0.030273,1.002441,0.243902,1.280488,-0.548781,-4.806250,17.562500,19.393751,31.325,0.56890865,-0.00990209,-0.02880512,-0.82183646
'00:18:53.144,0.058594,0.028809,1.004883,0.243902,1.219512,-0.548781,-4.806250,17.562500,19.393751,31.325,0.56891210,-0.00991130,-0.02879965,-0.82183415
'00:18:53.154,0.059570,0.028809,1.004883,0.365854,1.341463,-0.548781,-4.737500,17.493750,19.312500,31.341,0.56891982,-0.00991514,-0.02880405,-0.82182861
'00:18:53.164,0.060547,0.029297,1.004395,0.426829,1.463415,-0.609756,-4.737500,17.493750,19.312500,31.310,0.56892333,-0.00991056,-0.02881349,-0.82182590
'00:18:53.174,0.059082,0.029785,1.003418,0.365854,1.402439,-0.548781,-5.125000,18.018751,19.725000,31.325,0.56891511,-0.00988891,-0.02880082,-0.82183229
'00:18:53.184,0.059082,0.029297,1.003906,0.304878,1.341463,-0.609756,-5.125000,18.018751,19.725000,31.310,0.56890251,-0.00987664,-0.02878423,-0.82184174
'00:18:53.194,0.060059,0.029297,1.002441,0.365854,1.341463,-0.609756,-4.887500,17.681250,19.506250,31.341,0.56889903,-0.00987607,-0.02878699,-0.82184407
'00:18:53.204,0.059082,0.029297,1.003906,0.304878,1.280488,-0.548781,-4.887500,17.681250,19.506250,31.310,0.56889975,-0.00987734,-0.02878396,-0.82184365
'00:18:53.214,0.059082,0.029297,1.003418,0.304878,1.280488,-0.548781,-4.818750,17.562500,19.412500,31.280,0.56890282,-0.00988100,-0.02878387,-0.82184149
'00:18:53.224,0.059082,0.029785,1.003418,0.365854,1.402439,-0.548781,-4.818750,17.562500,19.412500,31.341,0.56890612,-0.00987090,-0.02878486,-0.82183929
'00:18:53.234,0.058594,0.029297,1.004883,0.426829,1.463415,-0.548781,-4.762500,17.481251,19.293751,31.310,0.56891228,-0.00985448,-0.02878468,-0.82183523
'00:18:53.245,0.059082,0.029785,1.004395,0.365854,1.402439,-0.548781,-4.762500,17.481251,19.293751,31.280,0.56891869,-0.00984578,-0.02878837,-0.82183077
'00:18:53.254,0.058594,0.029297,1.003418,0.243902,1.280488,-0.548781,-4.818750,17.537500,19.362501,31.310,0.56892106,-0.00984930,-0.02878215,-0.82182930
'00:18:53.264,0.059082,0.028320,1.004883,0.304878,1.280488,-0.548781,-4.818750,17.537500,19.362501,31.280,0.56892395,-0.00985637,-0.02877547,-0.82182746
'00:18:53.274,0.060547,0.029297,1.004395,0.304878,1.341463,-0.548781,-5.168750,18.137501,19.775000,31.341,0.56891543,-0.00985184,-0.02876412,-0.82183380
'00:18:53.284,0.059570,0.029297,1.002930,0.426829,1.402439,-0.548781,-5.168750,18.137501,19.775000,31.341,0.56890723,-0.00983203,-0.02875558,-0.82184001
'00:18:53.294,0.061035,0.029297,1.003418,0.426829,1.341463,-0.548781,-5.150000,18.106251,19.706251,31.341,0.56889971,-0.00982520,-0.02875643,-0.82184527
'00:18:53.304,0.059082,0.028809,1.002930,0.304878,1.280488,-0.548781,-5.150000,18.106251,19.706251,31.310,0.56889211,-0.00982033,-0.02874169,-0.82185111
'00:18:53.314,0.060547,0.029297,1.003906,0.365854,1.341463,-0.548781,-4.712500,17.518751,19.325001,31.341,0.56890231,-0.00983137,-0.02875680,-0.82184339
'00:18:53.325,0.060059,0.028809,1.004395,0.365854,1.341463,-0.548781,-4.712500,17.518751,19.325001,31.341,0.56891359,-0.00984230,-0.02876771,-0.82183507
'00:18:53.334,0.059082,0.029297,1.003418,0.365854,1.402439,-0.609756,-4.775000,17.562500,19.381250,31.310,0.56891565,-0.00983770,-0.02876958,-0.82183363
'00:18:53.344,0.058594,0.029297,1.003906,0.365854,1.341463,-0.487805,-4.775000,17.562500,19.381250,31.310,0.56892655,-0.00983449,-0.02877245,-0.82182602
'00:18:53.354,0.059082,0.029297,1.004883,0.243902,1.280488,-0.548781,-4.731250,17.500000,19.350000,31.295,0.56893451,-0.00984586,-0.02877311,-0.82182035
'00:18:53.364,0.060059,0.028809,1.004395,0.365854,1.280488,-0.548781,-4.731250,17.500000,19.350000,31.265,0.56894257,-0.00985847,-0.02878366,-0.82181425
'00:18:53.374,0.060059,0.029297,1.003906,0.365854,1.341463,-0.609756,-4.975000,17.781250,19.537500,31.310,0.56893526,-0.00985393,-0.02878138,-0.82181945
'00:18:53.384,0.059082,0.029297,1.003906,0.365854,1.341463,-0.548781,-4.975000,17.781250,19.537500,31.325,0.56893237,-0.00984427,-0.02877537,-0.82182177
'00:18:53.394,0.060059,0.029785,1.003418,0.304878,1.341463,-0.548781,-5.031250,17.925001,19.637501,31.341,0.56892850,-0.00984028,-0.02877074,-0.82182466
'00:18:53.405,0.060059,0.029297,1.004395,0.243902,1.280488,-0.548781,-4.781250,17.606251,19.343750,31.325,0.56893612,-0.00985690,-0.02877434,-0.82181906
'00:18:53.414,0.060059,0.029297,1.002930,0.304878,1.341463,-0.548781,-4.781250,17.606251,19.343750,31.310,0.56894247,-0.00986387,-0.02877891,-0.82181442
'00:18:53.424,0.059570,0.028320,1.003906,0.365854,1.402439,-0.548781,-4.818750,17.487501,19.306250,31.265,0.56894464,-0.00986097,-0.02877172,-0.82181320
'00:18:53.434,0.059570,0.028809,1.003906,0.304878,1.341463,-0.609756,-4.818750,17.487501,19.306250,31.325,0.56894215,-0.00986343,-0.02876612,-0.82181510
'00:18:53.446,0.059082,0.028320,1.003418,0.304878,1.280488,-0.609756,-4.775000,17.481251,19.325001,31.341,0.56894254,-0.00987402,-0.02876162,-0.82181486
'00:18:53.454,0.059570,0.029297,1.004395,0.304878,1.280488,-0.548781,-4.775000,17.481251,19.325001,31.295,0.56894610,-0.00987999,-0.02876428,-0.82181223
'00:18:53.464,0.059082,0.030762,1.003906,0.365854,1.402439,-0.548781,-4.825000,17.550001,19.350000,31.310,0.56894863,-0.00986515,-0.02877015,-0.82181045
'00:18:53.474,0.059570,0.029785,1.004395,0.365854,1.341463,-0.548781,-4.825000,17.550001,19.350000,31.386,0.56895121,-0.00986133,-0.02877513,-0.82180853
'00:18:53.484,0.059570,0.029297,1.003418,0.243902,1.280488,-0.609756,-4.968750,17.793751,19.481251,31.341,0.56894458,-0.00986498,-0.02876649,-0.82181338
'00:18:53.495,0.058594,0.028809,1.003906,0.304878,1.280488,-0.548781,-4.968750,17.793751,19.481251,31.280,0.56894233,-0.00986190,-0.02875458,-0.82181539
'00:18:53.504,0.059570,0.029785,1.004395,0.304878,1.341463,-0.548781,-5.025000,17.856251,19.537500,31.310,0.56893815,-0.00985475,-0.02874781,-0.82181861
'00:18:53.514,0.059082,0.030273,1.003418,0.365854,1.341463,-0.548781,-5.025000,17.856251,19.537500,31.280,0.56893349,-0.00983956,-0.02874603,-0.82182208
'00:18:53.524,0.059570,0.029785,1.004883,0.304878,1.341463,-0.609756,-4.806250,17.600000,19.275000,31.325,0.56893460,-0.00984061,-0.02874982,-0.82182117
'00:18:53.534,0.060059,0.028809,1.003906,0.304878,1.280488,-0.548781,-4.806250,17.600000,19.275000,31.265,0.56894009,-0.00985288,-0.02875328,-0.82181710
'00:18:53.545,0.061035,0.029297,1.003906,0.365854,1.280488,-0.548781,-4.812500,17.543751,19.343750,31.310,0.56894371,-0.00986560,-0.02876676,-0.82181397
'00:18:53.554,0.060547,0.029297,1.003418,0.365854,1.341463,-0.548781,-4.812500,17.543751,19.343750,31.325,0.56894677,-0.00986955,-0.02877332,-0.82181157
'00:18:53.565,0.060547,0.030273,1.001953,0.304878,1.341463,-0.670732,-4.731250,17.506250,19.387501,31.356,0.56894565,-0.00987855,-0.02878928,-0.82181168
'00:18:53.574,0.059570,0.029785,1.004395,0.304878,1.341463,-0.609756,-4.731250,17.506250,19.387501,31.310,0.56894877,-0.00988228,-0.02879521,-0.82180927
'00:18:53.584,0.060059,0.029785,1.003906,0.304878,1.280488,-0.548781,-5.218750,18.118750,19.750000,31.310,0.56893625,-0.00987410,-0.02878347,-0.82181844
'00:18:53.594,0.059570,0.029297,1.004395,0.365854,1.341463,-0.548781,-5.218750,18.118750,19.750000,31.310,0.56892412,-0.00985784,-0.02876862,-0.82182756
'00:18:53.605,0.059570,0.029297,1.003906,0.365854,1.341463,-0.548781,-5.175000,17.987501,19.681250,31.325,0.56891098,-0.00984094,-0.02875303,-0.82183740
'00:18:53.614,0.058105,0.030273,1.003906,0.426829,1.341463,-0.548781,-5.175000,17.987501,19.681250,31.325,0.56890021,-0.00981415,-0.02874435,-0.82184548
'00:18:53.624,0.059570,0.029297,1.003906,0.365854,1.402439,-0.548781,-5.056250,18.037500,19.637501,31.295,0.56889781,-0.00980255,-0.02873776,-0.82184751
'00:18:53.636,0.058594,0.029297,1.004395,0.304878,1.341463,-0.609756,-5.225000,18.087500,19.687500,31.280,0.56887730,-0.00978056,-0.02871029,-0.82186293
'00:18:53.646,0.060059,0.028809,1.003906,0.304878,1.280488,-0.548781,-5.225000,18.087500,19.687500,31.295,0.56886465,-0.00977701,-0.02869394,-0.82187230
'00:18:53.655,0.059570,0.030273,1.003418,0.365854,1.341463,-0.548781,-4.937500,17.637501,19.443750,31.310,0.56886192,-0.00976876,-0.02869660,-0.82187419
'00:18:53.664,0.059570,0.030273,1.003418,0.304878,1.341463,-0.548781,-4.937500,17.637501,19.443750,31.325,0.56885916,-0.00976334,-0.02869531,-0.82187621
'00:18:53.674,0.059570,0.029785,1.004395,0.304878,1.280488,-0.548781,-4.975000,17.793751,19.493750,31.280,0.56885699,-0.00976355,-0.02869460,-0.82187774
'00:18:53.685,0.060547,0.029297,1.003418,0.304878,1.280488,-0.548781,-4.975000,17.793751,19.493750,31.325,0.56885469,-0.00977195,-0.02869535,-0.82187920
'00:18:53.694,0.060059,0.029297,1.004395,0.304878,1.341463,-0.609756,-5.150000,18.037500,19.668751,31.371,0.56884297,-0.00976629,-0.02868437,-0.82188777
'00:18:53.704,0.060059,0.029297,1.003906,0.426829,1.402439,-0.609756,-5.150000,18.037500,19.668751,31.310,0.56883027,-0.00974981,-0.02867828,-0.82189697
'00:18:53.714,0.060059,0.029785,1.004395,0.426829,1.402439,-0.609756,-4.850000,17.531250,19.356251,31.325,0.56882721,-0.00974162,-0.02868623,-0.82189890
'00:18:53.727,0.059570,0.028809,1.004395,0.365854,1.341463,-0.548781,-4.850000,17.531250,19.356251,31.325,0.56882895,-0.00974242,-0.02868497,-0.82189773
'00:18:53.734,0.059570,0.029785,1.003906,0.365854,1.341463,-0.548781,-4.818750,17.531250,19.343750,31.325,0.56883130,-0.00974155,-0.02869004,-0.82189594
'00:18:53.744,0.060059,0.029297,1.003418,0.304878,1.280488,-0.609756,-4.818750,17.531250,19.343750,31.310,0.56883014,-0.00975227,-0.02869521,-0.82189644
'00:18:53.754,0.060059,0.029297,1.003418,0.365854,1.341463,-0.609756,-4.793750,17.518751,19.325001,31.356,0.56883068,-0.00975675,-0.02870333,-0.82189572
'00:18:53.764,0.060059,0.029297,1.003418,0.365854,1.341463,-0.609756,-4.793750,17.518751,19.325001,31.356,0.56883121,-0.00976115,-0.02871131,-0.82189503
'00:18:53.774,0.058594,0.029297,1.004395,0.365854,1.341463,-0.609756,-5.000000,17.906250,19.631250,31.310,0.56882545,-0.00975086,-0.02870581,-0.82189933
'00:18:53.784,0.059570,0.029785,1.005371,0.365854,1.280488,-0.609756,-5.000000,17.906250,19.631250,31.295,0.56881946,-0.00974836,-0.02870955,-0.82190337
'00:18:53.794,0.060059,0.029785,1.004395,0.304878,1.280488,-0.548781,-5.081250,17.987501,19.656250,31.265,0.56881412,-0.00974838,-0.02870685,-0.82190716
'00:18:53.808,0.060547,0.029297,1.003418,0.426829,1.341463,-0.548781,-5.081250,17.987501,19.656250,31.310,0.56880716,-0.00974049,-0.02871050,-0.82191195
'00:18:53.814,0.060547,0.029297,1.003418,0.426829,1.341463,-0.548781,-5.000000,17.818750,19.481251,31.310,0.56880552,-0.00973839,-0.02871355,-0.82191300
'00:18:53.824,0.059570,0.029297,1.003906,0.365854,1.341463,-0.609756,-5.000000,17.818750,19.481251,31.280,0.56879841,-0.00973237,-0.02871037,-0.82191810
'00:18:53.834,0.059570,0.029297,1.004395,0.304878,1.280488,-0.548781,-4.812500,17.581251,19.325001,31.325,0.56880343,-0.00974155,-0.02871475,-0.82191436
'00:18:53.846,0.059570,0.028809,1.002930,0.426829,1.402439,-0.609756,-4.812500,17.581251,19.325001,31.310,0.56880477,-0.00973712,-0.02872054,-0.82191329
'00:18:53.854,0.059570,0.028809,1.002930,0.426829,1.402439,-0.609756,-4.787500,17.531250,19.312500,31.310,0.56880614,-0.00973488,-0.02872496,-0.82191221
'00:18:53.864,0.058594,0.029785,1.004395,0.426829,1.463415,-0.609756,-4.787500,17.531250,19.312500,31.341,0.56880785,-0.00971816,-0.02872856,-0.82191110
'00:18:53.874,0.059082,0.028320,1.004395,0.426829,1.402439,-0.548781,-4.793750,17.493750,19.312500,31.341,0.56881275,-0.00971378,-0.02872727,-0.82190780
'00:18:53.886,0.059082,0.029785,1.003418,0.304878,1.280488,-0.548781,-4.925000,17.825001,19.518751,31.341,0.56881522,-0.00971620,-0.02872968,-0.82190599
'00:18:53.894,0.059570,0.029785,1.004395,0.304878,1.280488,-0.548781,-4.925000,17.825001,19.518751,31.295,0.56881684,-0.00971977,-0.02873244,-0.82190472
'00:18:53.904,0.059570,0.029297,1.002441,0.304878,1.341463,-0.609756,-4.925000,17.825001,19.518751,31.341,0.56881472,-0.00972195,-0.02873088,-0.82190622
'00:18:53.914,0.059570,0.029297,1.004883,0.426829,1.402439,-0.548781,-5.012500,17.856251,19.556250,31.310,0.56881189,-0.00970865,-0.02872809,-0.82190843
'00:18:53.927,0.059570,0.029297,1.003906,0.304878,1.341463,-0.548781,-4.731250,17.475000,19.381250,31.341,0.56882239,-0.00972036,-0.02873455,-0.82190080
'00:18:53.935,0.059570,0.029297,1.003906,0.304878,1.341463,-0.548781,-4.731250,17.475000,19.381250,31.341,0.56882880,-0.00972739,-0.02873840,-0.82189615
'00:18:53.944,0.059570,0.029297,1.004395,0.304878,1.280488,-0.609756,-4.718750,17.531250,19.343750,31.341,0.56883405,-0.00974018,-0.02874742,-0.82189205
'00:18:53.955,0.060059,0.029297,1.004395,0.426829,1.341463,-0.609756,-4.718750,17.531250,19.343750,31.325,0.56884066,-0.00974708,-0.02876660,-0.82188672
'00:18:53.968,0.060059,0.029785,1.003906,0.426829,1.402439,-0.548781,-4.806250,17.487501,19.318750,31.341,0.56884492,-0.00973917,-0.02877838,-0.82188346
'00:18:53.974,0.059082,0.029297,1.003906,0.365854,1.280488,-0.548781,-4.806250,17.487501,19.318750,31.310,0.56884674,-0.00974053,-0.02878078,-0.82188209
'00:18:53.984,0.058594,0.029297,1.003906,0.243902,1.280488,-0.548781,-4.993750,17.856251,19.493750,31.310,0.56884476,-0.00974041,-0.02876822,-0.82188390
'00:18:53.994,0.059570,0.029785,1.002930,0.304878,1.341463,-0.548781,-4.993750,17.856251,19.493750,31.310,0.56884288,-0.00973656,-0.02876404,-0.82188539
'00:18:54.005,0.059570,0.030273,1.004883,0.365854,1.280488,-0.548781,-5.156250,18.012501,19.687500,31.325,0.56883185,-0.00972392,-0.02876004,-0.82189332
'00:18:54.014,0.061035,0.029785,1.004395,0.304878,1.280488,-0.609756,-5.156250,18.012501,19.687500,31.295,0.56881897,-0.00972526,-0.02875572,-0.82190237
'00:18:54.024,0.059570,0.029785,1.003906,0.304878,1.341463,-0.548781,-4.831250,17.562500,19.362501,31.310,0.56882199,-0.00972692,-0.02875723,-0.82190021
'00:18:54.034,0.058594,0.029785,1.003906,0.365854,1.341463,-0.548781,-4.831250,17.562500,19.362501,31.310,0.56882509,-0.00972011,-0.02875929,-0.82189807
'00:18:54.044,0.059570,0.028809,1.004883,0.365854,1.341463,-0.548781,-4.850000,17.512501,19.381250,31.310,0.56882579,-0.00972064,-0.02875644,-0.82189768
'00:18:54.054,0.060059,0.029297,1.002930,0.365854,1.341463,-0.609756,-4.850000,17.512501,19.381250,31.310,0.56882200,-0.00972222,-0.02875912,-0.82190019
'00:18:54.064,0.059570,0.029297,1.004395,0.304878,1.341463,-0.548781,-4.762500,17.625000,19.337500,31.280,0.56883151,-0.00973076,-0.02876453,-0.82189332
'00:18:54.074,0.058594,0.029785,1.004883,0.304878,1.341463,-0.548781,-4.762500,17.625000,19.337500,31.356,0.56884091,-0.00973170,-0.02876861,-0.82188666
'00:18:54.084,0.059082,0.029297,1.003906,0.365854,1.280488,-0.548781,-4.750000,17.525000,19.306250,31.325,0.56884888,-0.00973810,-0.02877816,-0.82188073
'00:18:54.094,0.060059,0.029785,1.003906,0.304878,1.341463,-0.609756,-4.750000,17.525000,19.306250,31.356,0.56885239,-0.00974635,-0.02878673,-0.82187791
'00:18:54.104,0.059570,0.028809,1.003906,0.365854,1.341463,-0.548781,-5.056250,17.950001,19.625000,31.265,0.56884815,-0.00974086,-0.02877799,-0.82188121
'00:18:54.114,0.061035,0.029785,1.004883,0.304878,1.280488,-0.548781,-5.056250,17.950001,19.625000,31.295,0.56884351,-0.00974686,-0.02877867,-0.82188432
'00:18:54.127,0.059570,0.028809,1.004883,0.304878,1.280488,-0.609756,-4.850000,17.612501,19.381250,31.310,0.56884139,-0.00975810,-0.02877591,-0.82188576
'00:18:54.134,0.059570,0.029785,1.004395,0.426829,1.341463,-0.548781,-4.850000,17.612501,19.381250,31.325,0.56884333,-0.00975425,-0.02878241,-0.82188424
'00:18:54.144,0.060059,0.030273,1.003906,0.304878,1.280488,-0.548781,-4.806250,17.537500,19.350000,31.295,0.56884710,-0.00976166,-0.02879241,-0.82188119
