# FW/GUI: v9.6.1-multi17-dual (PyQt5)
# StartTime: 2026-04-03 16:26:52
# Slot: 13
# DeviceID: 13
# Label: EMG13
# IP: 192.168.137.206
# TCP: 3333
# DeviceFW: EMG_FW_v9.6_MULTI17_DUALCH_RUNTIMECFG_CHEN
# EMG column notes: EMG_t_s=seconds since this Start; sample_idx=device sample index (ADS frame index); fs=sample rate (SPS); gain=gain; flags=0x01(TEST) 0x02(SHORT) 0x04(RLD); emg_valid=1 valid / 0 invalid (spike-guard decision); ch1_raw_uV=raw uV (after spike guard); ch1_filt_uV=filtered uV; ch1_env_uV=envelope (RMS) uV
EMG_t_s,sample_idx,fs,gain,flags,emg_valid,ch1_raw_uV,ch1_filt_uV,ch1_env_uV,ch2_raw_uV,ch2_filt_uV,ch2_env_uV
0.000000,1066651,1000.00,12,0,1,771.016,-1.867,2.054,1098.970,-1.452,1.083
0.001000,1066652,1000.00,12,0,1,776.156,0.910,1.995,1097.288,-3.450,1.184
0.002000,1066653,1000.00,12,0,1,777.093,2.176,1.935,1100.771,-0.052,1.163
0.003000,1066654,1000.00,12,0,1,774.402,-1.705,1.948,1099.066,-0.262,1.163
0.004000,1066655,1000.00,12,0,1,775.435,-0.834,1.943,1098.778,-1.693,1.187
0.005000,1066656,1000.00,12,0,1,774.763,-0.299,1.930,1099.810,0.287,1.173
0.006000,1066657,1000.00,12,0,1,771.160,-2.683,1.957,1100.819,0.751,1.175
0.007000,1066658,1000.00,12,0,1,764.890,-6.380,2.154,1100.363,0.776,1.164
0.008000,1066659,1000.00,12,0,1,767.196,-3.738,2.206,1099.138,-0.656,1.167
0.009000,1066660,1000.00,12,0,1,768.854,1.359,2.181,1098.778,-0.934,1.168
0.010000,1066661,1000.00,12,0,1,768.589,1.342,2.188,1099.498,-0.149,1.168
0.011000,1066662,1000.00,12,0,1,767.292,1.506,2.190,1098.561,-0.640,1.164
0.012000,1066663,1000.00,12,0,1,767.893,1.562,2.174,1100.963,0.915,1.171
0.013000,1066664,1000.00,12,0,1,769.118,2.784,2.201,1101.132,1.914,1.188
0.014000,1066665,1000.00,12,0,1,768.253,1.280,2.208,1100.411,0.431,1.181
0.015000,1066666,1000.00,12,0,1,763.041,-4.100,2.281,1099.162,-0.356,1.181
0.016000,1066667,1000.00,12,0,1,763.713,-5.400,2.404,1100.219,0.050,1.123
0.017000,1066668,1000.00,12,0,1,769.406,-0.630,2.396,1100.411,0.829,1.124
0.018000,1066669,1000.00,12,0,1,771.712,0.706,2.336,1101.420,1.136,1.123
0.019000,1066670,1000.00,12,0,1,770.247,-2.201,2.355,1100.483,0.761,1.128
0.020000,1066671,1000.00,12,0,1,773.418,-1.163,2.339,1098.826,-1.146,1.132
0.021000,1066672,1000.00,12,0,1,776.636,1.507,2.287,1099.762,-0.408,1.116
0.022000,1066673,1000.00,12,0,1,775.700,0.027,2.199,1100.483,0.738,1.113
0.023000,1066674,1000.00,12,0,1,778.390,1.199,2.193,1099.690,-0.157,1.108
0.024000,1066675,1000.00,12,0,1,778.846,2.779,2.220,1100.219,0.211,1.026
0.025000,1066676,1000.00,12,0,1,774.763,-0.952,2.151,1099.642,-0.045,1.024
0.026000,1066677,1000.00,12,0,1,774.450,-0.771,2.104,1100.051,-0.054,0.971
0.027000,1066678,1000.00,12,0,1,772.793,-0.143,2.101,1100.243,0.424,0.973
0.028000,1066679,1000.00,12,0,1,771.184,-0.808,2.094,1099.642,-0.277,0.961
0.029000,1066680,1000.00,12,0,1,769.718,-0.204,2.094,1101.180,0.757,0.964
0.030000,1066681,1000.00,12,0,1,770.223,0.899,2.098,1101.180,1.186,0.966
0.031000,1066682,1000.00,12,0,1,767.869,0.519,2.098,1099.618,-0.692,0.967
0.032000,1066683,1000.00,12,0,1,768.229,0.156,2.083,1101.156,0.349,0.967
0.033000,1066684,1000.00,12,0,1,769.766,2.260,2.089,1100.723,0.544,0.949
0.034000,1066685,1000.00,12,0,1,770.127,1.679,2.101,1099.931,-0.784,0.948
0.035000,1066686,1000.00,12,0,1,774.282,3.665,2.163,1099.955,-0.475,0.933
0.036000,1066687,1000.00,12,0,1,778.126,5.924,2.317,1103.462,2.054,0.972
0.037000,1066688,1000.00,12,0,1,775.243,1.346,2.325,1102.501,2.131,1.012
0.038000,1066689,1000.00,12,0,1,771.640,-4.306,2.403,1101.492,-0.170,0.994
0.039000,1066690,1000.00,12,0,1,773.249,-4.485,2.483,1100.219,-0.651,0.998
0.040000,1066691,1000.00,12,0,1,775.627,-2.586,2.507,1100.051,-1.355,1.015
0.041000,1066692,1000.00,12,0,1,780.624,0.446,2.471,1100.915,-0.149,1.012
0.042000,1066693,1000.00,12,0,1,780.792,1.224,2.456,1100.651,-0.213,1.006
0.043000,1066694,1000.00,12,0,1,780.071,-0.955,2.458,1102.285,0.747,1.005
0.044000,1066695,1000.00,12,0,1,780.263,-0.043,2.456,1103.077,1.947,1.033
0.045000,1066696,1000.00,12,0,1,780.840,0.668,2.455,1102.693,0.884,1.039
0.046000,1066697,1000.00,12,0,1,778.198,-0.217,2.450,1101.108,-0.350,1.020
0.047000,1066698,1000.00,12,0,1,775.363,-2.087,2.430,1099.931,-1.879,1.051
0.048000,1066699,1000.00,12,0,1,772.697,-2.620,2.368,1102.092,0.026,1.034
0.049000,1066700,1000.00,12,0,1,774.210,-0.311,2.359,1102.405,0.817,1.039
0.050000,1066701,1000.00,12,0,1,774.907,2.283,2.366,1102.405,0.161,1.018
0.051000,1066702,1000.00,12,0,1,773.538,1.433,2.371,1100.555,-1.017,0.905
0.052000,1066703,1000.00,12,0,1,770.799,-0.608,2.353,1099.859,-2.243,0.959
0.053000,1066704,1000.00,12,0,1,772.024,-0.143,2.341,1102.165,0.125,0.959
0.054000,1066705,1000.00,12,0,1,770.655,-0.741,2.340,1100.435,-0.683,0.934
0.055000,1066706,1000.00,12,0,1,771.016,-2.105,2.358,1100.483,-1.550,0.958
0.056000,1066707,1000.00,12,0,1,772.889,-0.779,2.330,1101.180,-0.001,0.952
0.057000,1066708,1000.00,12,0,1,778.030,1.867,2.165,1100.891,-0.541,0.949
0.058000,1066709,1000.00,12,0,1,780.336,3.111,2.145,1100.915,-0.287,0.945
0.059000,1066710,1000.00,12,0,1,782.834,2.569,2.167,1101.924,0.488,0.938
0.060000,1066711,1000.00,12,0,1,783.026,1.665,2.171,1100.435,-0.342,0.939
0.061000,1066712,1000.00,12,0,1,788.214,3.459,2.215,1100.747,-0.701,0.940
0.062000,1066713,1000.00,12,0,1,788.142,3.828,2.270,1101.252,0.394,0.933
0.063000,1066714,1000.00,12,0,1,781.801,-3.295,2.284,1101.420,0.275,0.894
0.064000,1066715,1000.00,12,0,1,784.467,-1.967,2.293,1098.826,-1.495,0.916
0.065000,1066716,1000.00,12,0,1,785.404,1.431,2.228,1100.507,-0.852,0.923
0.066000,1066717,1000.00,12,0,1,782.786,-1.123,2.099,1101.084,0.901,0.932
0.067000,1066718,1000.00,12,0,1,776.805,-4.116,2.176,1099.810,-0.747,0.930
0.068000,1066719,1000.00,12,0,1,773.490,-6.491,2.360,1099.234,-1.073,0.929
0.069000,1066720,1000.00,12,0,1,772.096,-4.665,2.431,1101.180,0.534,0.926
0.070000,1066721,1000.00,12,0,1,772.961,-2.596,2.453,1102.044,1.674,0.942
0.071000,1066722,1000.00,12,0,1,775.724,1.537,2.453,1100.363,0.080,0.940
0.072000,1066723,1000.00,12,0,1,774.330,1.326,2.460,1098.537,-1.811,0.969
0.073000,1066724,1000.00,12,0,1,772.793,-0.805,2.457,1097.745,-2.156,1.015
0.074000,1066725,1000.00,12,0,1,773.778,-0.058,2.425,1097.913,-1.791,1.046
0.075000,1066726,1000.00,12,0,1,776.564,1.321,2.429,1100.219,0.537,1.049
0.076000,1066727,1000.00,12,0,1,777.573,1.474,2.435,1100.075,0.987,1.058
0.077000,1066728,1000.00,12,0,1,784.731,4.705,2.524,1100.987,1.128,1.068
0.078000,1066729,1000.00,12,0,1,782.786,3.339,2.566,1102.140,2.451,1.122
0.079000,1066730,1000.00,12,0,1,779.038,-4.061,2.629,1100.699,0.982,1.126
0.080000,1066731,1000.00,12,0,1,779.014,-4.265,2.694,1098.105,-1.520,1.134
0.081000,1066732,1000.00,12,0,1,780.648,-3.603,2.741,1100.315,-0.019,1.130
0.082000,1066733,1000.00,12,0,1,784.179,-0.452,2.742,1100.171,0.958,1.137
0.083000,1066734,1000.00,12,0,1,785.572,1.382,2.730,1098.177,-1.377,1.151
0.084000,1066735,1000.00,12,0,1,782.738,-0.923,2.723,1098.153,-1.207,1.158
0.085000,1066736,1000.00,12,0,1,781.368,-1.591,2.683,1099.810,0.451,1.158
0.086000,1066737,1000.00,12,0,1,781.969,0.215,2.549,1098.369,-0.243,1.121
0.087000,1066738,1000.00,12,0,1,780.864,1.044,2.546,1099.090,-0.295,1.081
0.088000,1066739,1000.00,12,0,1,776.564,-1.409,2.480,1099.378,0.730,1.085
0.089000,1066740,1000.00,12,0,1,775.916,-1.063,2.402,1098.778,-0.153,1.082
0.090000,1066741,1000.00,12,0,1,772.000,-1.981,2.391,1099.042,0.117,1.065
0.091000,1066742,1000.00,12,0,1,772.913,-1.496,2.399,1098.826,0.124,1.065
0.092000,1066743,1000.00,12,0,1,774.859,2.244,2.414,1099.570,0.439,1.066
0.093000,1066744,1000.00,12,0,1,775.700,2.304,2.432,1098.994,0.427,1.062
0.094000,1066745,1000.00,12,0,1,775.940,2.157,2.451,1099.450,0.155,1.026
0.095000,1066746,1000.00,12,0,1,775.844,0.809,2.452,1098.754,0.209,1.019
0.096000,1066747,1000.00,12,0,1,778.966,1.745,2.464,1097.817,-1.109,1.030
0.097000,1066748,1000.00,12,0,1,779.423,1.478,2.455,1099.714,0.659,0.999
0.098000,1066749,1000.00,12,0,1,779.519,-1.008,2.431,1098.778,0.466,1.002
0.099000,1066750,1000.00,12,0,1,782.305,0.321,2.431,1098.081,-0.817,1.002
0.100000,1066751,1000.00,12,0,1,782.666,-0.334,2.410,1098.657,0.167,1.002
0.101000,1066752,1000.00,12,0,1,784.635,-0.084,2.402,1100.339,1.376,1.010
0.102000,1066753,1000.00,12,0,1,787.109,1.955,2.416,1099.042,0.814,0.966
0.103000,1066754,1000.00,12,0,1,786.173,0.942,2.420,1098.657,-0.377,0.967
0.104000,1066755,1000.00,12,0,1,783.338,-1.479,2.426,1099.426,0.743,0.968
0.105000,1066756,1000.00,12,0,1,781.633,-2.292,2.430,1099.522,0.686,0.948
0.106000,1066757,1000.00,12,0,1,783.626,0.520,2.428,1099.618,0.646,0.952
0.107000,1066758,1000.00,12,0,1,781.609,1.051,2.419,1097.529,-0.903,0.958
0.108000,1066759,1000.00,12,0,1,781.777,1.191,2.384,1100.243,0.462,0.959
0.109000,1066760,1000.00,12,0,1,783.819,4.772,2.451,1100.699,2.183,1.005
0.110000,1066761,1000.00,12,0,1,783.674,4.953,2.538,1099.690,0.075,1.004
0.111000,1066762,1000.00,12,0,1,779.855,1.910,2.505,1099.690,0.344,1.000
0.112000,1066763,1000.00,12,0,1,775.171,-2.595,2.473,1098.922,-0.509,1.001
0.113000,1066764,1000.00,12,0,1,774.691,-3.355,2.475,1099.258,-0.411,1.002
0.114000,1066765,1000.00,12,0,1,777.645,-0.648,2.461,1097.913,-1.051,0.991
0.115000,1066766,1000.00,12,0,1,780.504,1.185,2.459,1101.684,1.152,0.997
0.116000,1066767,1000.00,12,0,1,783.386,2.317,2.475,1101.396,2.471,1.049
0.117000,1066768,1000.00,12,0,1,785.188,2.185,2.426,1100.459,-0.101,1.044
0.118000,1066769,1000.00,12,0,1,791.001,4.556,2.336,1101.420,1.241,1.047
0.119000,1066770,1000.00,12,0,1,789.127,2.370,2.266,1100.243,-0.001,1.045
0.120000,1066771,1000.00,12,0,1,789.271,-1.354,2.244,1100.987,0.080,1.017
0.121000,1066772,1000.00,12,0,1,789.872,-0.584,2.235,1100.627,0.370,1.019
0.122000,1066773,1000.00,12,0,1,786.413,-4.546,2.318,1100.243,-0.667,0.991
0.123000,1066774,1000.00,12,0,1,784.443,-6.251,2.478,1100.723,0.126,0.943
0.124000,1066775,1000.00,12,0,1,784.227,-5.059,2.579,1099.138,-1.227,0.924
0.125000,1066776,1000.00,12,0,1,780.215,-6.585,2.736,1098.994,-1.584,0.948
0.126000,1066777,1000.00,12,0,1,779.807,-5.668,2.843,1100.267,-0.118,0.938
0.127000,1066778,1000.00,12,0,1,780.624,-2.028,2.779,1099.594,-0.418,0.926
0.128000,1066779,1000.00,12,0,1,783.746,2.044,2.754,1100.051,-0.420,0.861
0.129000,1066780,1000.00,12,0,1,784.419,4.657,2.773,1099.162,-0.606,0.854
0.130000,1066781,1000.00,12,0,1,783.146,3.671,2.756,1098.970,-1.272,0.846
0.131000,1066782,1000.00,12,0,1,777.597,-0.329,2.709,1097.649,-1.687,0.879
0.132000,1066783,1000.00,12,0,1,778.030,-1.075,2.712,1099.498,-0.705,0.874
0.133000,1066784,1000.00,12,0,1,778.102,0.426,2.706,1101.084,1.603,0.882
0.134000,1066785,1000.00,12,0,1,779.615,0.253,2.703,1100.339,0.557,0.869
0.135000,1066786,1000.00,12,0,1,782.209,2.221,2.712,1101.564,1.156,0.881
0.136000,1066787,1000.00,12,0,1,783.146,1.615,2.721,1100.723,0.896,0.890
0.137000,1066788,1000.00,12,0,1,788.214,3.590,2.764,1100.747,-0.044,0.889
0.138000,1066789,1000.00,12,0,1,790.592,4.927,2.844,1099.138,-0.636,0.887
0.139000,1066790,1000.00,12,0,1,790.953,2.171,2.856,1100.123,-0.764,0.894
0.140000,1066791,1000.00,12,0,1,794.195,3.380,2.882,1100.459,0.638,0.898
0.141000,1066792,1000.00,12,0,1,792.706,1.213,2.880,1099.883,-0.451,0.900
0.142000,1066793,1000.00,12,0,1,788.815,-3.514,2.905,1099.666,-0.316,0.899
0.143000,1066794,1000.00,12,0,1,787.518,-4.608,2.959,1101.852,1.262,0.915
0.144000,1066795,1000.00,12,0,1,786.965,-3.921,2.995,1100.171,0.561,0.918
0.145000,1066796,1000.00,12,0,1,785.308,-3.895,3.043,1099.138,-1.281,0.935
0.146000,1066797,1000.00,12,0,1,784.275,-3.249,3.068,1099.426,-0.485,0.924
0.147000,1066798,1000.00,12,0,1,785.380,-0.569,3.062,1100.147,0.075,0.920
0.148000,1066799,1000.00,12,0,1,785.836,1.676,3.068,1099.762,-0.024,0.917
0.149000,1066800,1000.00,12,0,1,786.533,3.049,3.098,1099.114,-0.694,0.915
0.150000,1066801,1000.00,12,0,1,784.179,2.186,3.113,1102.020,1.393,0.936
0.151000,1066802,1000.00,12,0,1,779.879,-1.622,3.121,1100.579,1.147,0.930
0.152000,1066803,1000.00,12,0,1,781.080,-0.813,3.111,1100.819,-0.268,0.924
0.153000,1066804,1000.00,12,0,1,782.930,1.491,3.115,1101.444,1.220,0.938
0.154000,1066805,1000.00,12,0,1,779.423,-2.001,3.121,1100.051,-0.638,0.936
0.155000,1066806,1000.00,12,0,1,782.810,-1.163,3.108,1100.363,-0.482,0.934
0.156000,1066807,1000.00,12,0,1,782.930,-0.197,3.108,1099.714,-0.665,0.934
0.157000,1066808,1000.00,12,0,1,785.908,-0.726,3.106,1102.213,0.785,0.932
0.158000,1066809,1000.00,12,0,1,788.575,1.774,3.111,1101.084,0.982,0.940
0.159000,1066810,1000.00,12,0,1,789.103,0.041,3.037,1100.243,-1.080,0.901
0.160000,1066811,1000.00,12,0,1,791.529,0.961,2.959,1099.714,-0.635,0.905
0.161000,1066812,1000.00,12,0,1,791.289,0.420,2.947,1100.291,-0.662,0.909
0.162000,1066813,1000.00,12,0,1,791.553,-0.632,2.925,1100.675,0.317,0.907
0.163000,1066814,1000.00,12,0,1,794.556,2.323,2.905,1101.492,0.693,0.911
0.164000,1066815,1000.00,12,0,1,793.691,2.079,2.919,1101.324,0.803,0.906
0.165000,1066816,1000.00,12,0,1,793.187,1.518,2.922,1099.859,-0.625,0.895
0.166000,1066817,1000.00,12,0,1,793.235,2.550,2.926,1100.123,-0.698,0.830
0.167000,1066818,1000.00,12,0,1,784.972,-2.861,2.937,1101.468,0.830,0.838
0.168000,1066819,1000.00,12,0,1,782.569,-5.429,2.967,1099.979,-0.357,0.821
0.169000,1066820,1000.00,12,0,1,785.884,0.400,2.948,1099.979,-0.843,0.830
0.170000,1066821,1000.00,12,0,1,784.419,0.561,2.943,1096.255,-3.089,0.938
0.171000,1066822,1000.00,12,0,1,783.915,0.104,2.942,1098.057,-2.673,1.010
0.172000,1066823,1000.00,12,0,1,783.891,0.836,2.873,1100.963,1.536,1.028
0.173000,1066824,1000.00,12,0,1,781.657,-1.432,2.741,1101.132,1.215,1.042
0.174000,1066825,1000.00,12,0,1,782.281,-1.719,2.658,1099.931,0.184,1.028
0.175000,1066826,1000.00,12,0,1,786.725,1.424,2.497,1098.730,-1.074,1.015
0.176000,1066827,1000.00,12,0,1,788.142,1.996,2.382,1100.123,-0.086,1.015
0.177000,1066828,1000.00,12,0,1,788.166,-0.152,2.365,1099.714,0.348,1.014
0.178000,1066829,1000.00,12,0,1,791.914,1.319,2.354,1098.922,-0.959,1.022
0.179000,1066830,1000.00,12,0,1,790.712,-0.220,2.260,1100.099,0.425,1.020
0.180000,1066831,1000.00,12,0,1,792.898,-1.024,2.205,1100.171,0.638,1.008
0.181000,1066832,1000.00,12,0,1,794.940,1.297,2.212,1099.282,-0.150,0.980
0.182000,1066833,1000.00,12,0,1,794.436,-0.277,2.207,1099.979,0.274,0.975
0.183000,1066834,1000.00,12,0,1,793.523,-0.876,2.210,1099.810,0.567,0.952
0.184000,1066835,1000.00,12,0,1,793.235,-0.816,2.212,1101.660,1.578,0.975
0.185000,1066836,1000.00,12,0,1,791.697,-0.974,2.194,1100.603,1.406,0.981
0.186000,1066837,1000.00,12,0,1,792.970,0.797,2.185,1099.186,-0.759,0.979
0.187000,1066838,1000.00,12,0,1,793.331,2.893,2.165,1098.946,-0.594,0.982
0.188000,1066839,1000.00,12,0,1,794.171,3.993,2.126,1101.516,1.265,0.994
0.189000,1066840,1000.00,12,0,1,789.271,1.333,2.112,1099.594,0.504,0.991
0.190000,1066841,1000.00,12,0,1,783.170,-4.230,2.142,1099.162,-1.130,1.000
0.191000,1066842,1000.00,12,0,1,783.386,-3.345,2.187,1100.603,0.770,1.004
0.192000,1066843,1000.00,12,0,1,786.509,0.518,2.131,1100.171,0.333,1.004
0.193000,1066844,1000.00,12,0,1,785.788,0.181,2.029,1099.714,-0.402,0.989
0.194000,1066845,1000.00,12,0,1,787.542,0.353,1.953,1099.762,-0.200,0.987
0.195000,1066846,1000.00,12,0,1,788.022,0.544,1.875,1099.570,-0.512,0.973
0.196000,1066847,1000.00,12,0,1,787.133,-1.950,1.839,1100.411,0.253,0.971
0.197000,1066848,1000.00,12,0,1,791.385,-0.009,1.837,1100.651,0.520,0.974
0.198000,1066849,1000.00,12,0,1,792.586,0.791,1.825,1101.396,0.923,0.982
0.199000,1066850,1000.00,12,0,1,792.658,-1.513,1.786,1101.420,0.989,0.987
0.200000,1066851,1000.00,12,0,1,794.460,-0.581,1.761,1098.177,-1.717,0.997
0.201000,1066852,1000.00,12,0,1,796.525,0.294,1.747,1098.898,-1.836,1.018
0.202000,1066853,1000.00,12,0,1,795.108,-0.784,1.746,1099.042,-0.400,1.019
0.203000,1066854,1000.00,12,0,1,793.379,-2.745,1.776,1099.186,-0.821,1.011
0.204000,1066855,1000.00,12,0,1,793.091,-2.034,1.777,1102.261,2.131,1.051
0.205000,1066856,1000.00,12,0,1,789.920,-3.157,1.825,1100.171,0.954,1.057
0.206000,1066857,1000.00,12,0,1,792.898,-0.251,1.825,1098.970,-1.299,1.069
0.207000,1066858,1000.00,12,0,1,790.448,1.195,1.830,1097.721,-1.399,1.081
0.208000,1066859,1000.00,12,0,1,791.337,1.003,1.818,1099.738,-0.451,1.074
0.209000,1066860,1000.00,12,0,1,793.595,5.620,1.984,1100.219,1.212,1.077
0.210000,1066861,1000.00,12,0,1,790.520,2.992,2.024,1100.867,0.782,1.079
0.211000,1066862,1000.00,12,0,1,788.214,0.711,2.026,1101.204,1.499,1.096
0.212000,1066863,1000.00,12,0,1,788.935,1.391,2.034,1099.594,-0.266,1.096
0.213000,1066864,1000.00,12,0,1,787.302,-0.057,2.007,1100.339,-0.146,1.091
0.214000,1066865,1000.00,12,0,1,787.109,-1.337,1.994,1098.609,-0.809,1.091
0.215000,1066866,1000.00,12,0,1,791.649,1.530,1.994,1098.609,-1.790,1.117
0.216000,1066867,1000.00,12,0,1,795.372,4.012,2.042,1098.850,-0.481,1.115
0.217000,1066868,1000.00,12,0,1,793.259,0.397,2.002,1099.786,-0.228,1.109
0.218000,1066869,1000.00,12,0,1,793.307,-2.000,1.871,1100.075,0.702,1.112
0.219000,1066870,1000.00,12,0,1,797.534,0.520,1.871,1098.561,-0.835,1.112
0.220000,1066871,1000.00,12,0,1,799.000,1.186,1.877,1099.859,0.015,1.023
0.221000,1066872,1000.00,12,0,1,798.639,-0.556,1.879,1098.994,0.140,0.950
0.222000,1066873,1000.00,12,0,1,799.120,-0.567,1.877,1097.913,-1.440,0.947
0.223000,1066874,1000.00,12,0,1,793.427,-4.679,1.980,1097.961,-0.779,0.938
0.224000,1066875,1000.00,12,0,1,791.337,-6.909,2.194,1099.282,0.243,0.938
0.225000,1066876,1000.00,12,0,1,793.379,-2.648,2.217,1099.162,0.738,0.932
0.226000,1066877,1000.00,12,0,1,791.865,-1.943,2.216,1099.234,0.332,0.933
0.227000,1066878,1000.00,12,0,1,791.938,-0.854,2.219,1099.282,0.655,0.936
0.228000,1066879,1000.00,12,0,1,790.088,-0.027,2.211,1100.339,1.199,0.942
0.229000,1066880,1000.00,12,0,1,788.094,-1.179,2.217,1099.570,0.845,0.948
0.230000,1066881,1000.00,12,0,1,787.590,-0.057,2.213,1099.498,0.132,0.943
0.231000,1066882,1000.00,12,0,1,789.800,2.155,2.226,1098.970,0.005,0.943
0.232000,1066883,1000.00,12,0,1,791.193,4.036,2.298,1098.489,-0.706,0.948
0.233000,1066884,1000.00,12,0,1,793.211,4.569,2.384,1100.651,1.018,0.955
0.234000,1066885,1000.00,12,0,1,795.829,5.805,2.518,1099.931,1.011,0.940
0.235000,1066886,1000.00,12,0,1,796.838,4.879,2.607,1099.378,-0.414,0.920
0.236000,1066887,1000.00,12,0,1,795.901,1.957,2.620,1098.249,-0.742,0.920
0.237000,1066888,1000.00,12,0,1,792.466,-2.693,2.615,1099.570,-0.328,0.917
0.238000,1066889,1000.00,12,0,1,792.466,-4.728,2.640,1100.531,1.344,0.920
0.239000,1066890,1000.00,12,0,1,796.261,-1.775,2.645,1099.979,0.398,0.918
0.240000,1066891,1000.00,12,0,1,801.978,2.245,2.596,1099.690,0.118,0.905
0.241000,1066892,1000.00,12,0,1,803.059,3.123,2.590,1101.468,1.382,0.919
0.242000,1066893,1000.00,12,0,1,800.585,-0.335,2.590,1100.531,0.988,0.928
0.243000,1066894,1000.00,12,0,1,800.129,-1.048,2.594,1100.243,-0.064,0.927
0.244000,1066895,1000.00,12,0,1,799.072,-1.099,2.598,1099.883,0.003,0.926
0.245000,1066896,1000.00,12,0,1,795.637,-3.199,2.636,1100.027,-0.218,0.924
0.246000,1066897,1000.00,12,0,1,796.333,-1.798,2.634,1099.282,-0.545,0.927
0.247000,1066898,1000.00,12,0,1,793.499,-1.593,2.643,1098.321,-1.506,0.948
0.248000,1066899,1000.00,12,0,1,792.970,-1.872,2.654,1099.714,-0.368,0.940
0.249000,1066900,1000.00,12,0,1,793.547,0.910,2.649,1099.234,-0.080,0.930
0.250000,1066901,1000.00,12,0,1,791.745,0.016,2.648,1098.297,-1.419,0.920
0.251000,1066902,1000.00,12,0,1,792.538,0.803,2.650,1099.835,0.119,0.882
0.252000,1066903,1000.00,12,0,1,794.051,2.620,2.673,1099.306,0.043,0.881
0.253000,1066904,1000.00,12,0,1,794.316,2.055,2.661,1098.609,-0.954,0.883
0.254000,1066905,1000.00,12,0,1,792.346,-0.263,2.645,1101.012,1.049,0.844
0.255000,1066906,1000.00,12,0,1,793.307,-1.313,2.614,1100.051,0.838,0.841
0.256000,1066907,1000.00,12,0,1,795.060,-0.184,2.614,1100.003,-0.228,0.821
0.257000,1066908,1000.00,12,0,1,800.753,2.503,2.632,1099.162,-0.224,0.798
0.258000,1066909,1000.00,12,0,1,800.105,1.980,2.643,1098.826,-1.123,0.811
0.259000,1066910,1000.00,12,0,1,798.399,-2.526,2.546,1100.243,0.473,0.795
0.260000,1066911,1000.00,12,0,1,798.399,-2.693,2.540,1100.747,1.041,0.801
0.261000,1066912,1000.00,12,0,1,799.864,-2.154,2.556,1100.915,0.911,0.783
0.262000,1066913,1000.00,12,0,1,802.987,0.708,2.550,1100.267,0.463,0.785
0.263000,1066914,1000.00,12,0,1,803.131,1.484,2.559,1100.195,-0.020,0.785
0.264000,1066915,1000.00,12,0,1,800.008,-1.176,2.557,1100.051,0.164,0.777
0.265000,1066916,1000.00,12,0,1,798.831,-1.513,2.557,1099.426,-0.558,0.739
0.266000,1066917,1000.00,12,0,1,794.436,-3.394,2.539,1101.852,1.303,0.758
0.267000,1066918,1000.00,12,0,1,795.589,-2.016,2.554,1101.276,1.448,0.785
0.268000,1066919,1000.00,12,0,1,796.189,1.433,2.547,1098.898,-1.371,0.802
0.269000,1066920,1000.00,12,0,1,791.529,-1.740,2.558,1097.673,-2.257,0.855
0.270000,1066921,1000.00,12,0,1,792.226,-1.001,2.556,1098.177,-1.723,0.889
0.271000,1066922,1000.00,12,0,1,792.970,1.503,2.564,1098.537,-0.877,0.898
0.272000,1066923,1000.00,12,0,1,791.601,-0.141,2.562,1099.378,-0.183,0.875
0.273000,1066924,1000.00,12,0,1,791.457,-0.329,2.476,1098.513,-0.503,0.871
0.274000,1066925,1000.00,12,0,1,788.479,-3.056,2.316,1099.330,-0.288,0.871
0.275000,1066926,1000.00,12,0,1,788.575,-4.222,2.362,1099.883,0.728,0.871
0.276000,1066927,1000.00,12,0,1,792.514,-0.928,2.350,1100.555,0.874,0.878
0.277000,1066928,1000.00,12,0,1,795.060,0.664,2.348,1100.411,0.909,0.883
0.278000,1066929,1000.00,12,0,1,797.390,1.287,2.355,1097.937,-1.301,0.886
0.279000,1066930,1000.00,12,0,1,797.438,0.592,2.351,1099.738,-0.429,0.880
0.280000,1066931,1000.00,12,0,1,797.438,-0.815,2.354,1100.099,1.070,0.893
0.281000,1066932,1000.00,12,0,1,803.059,3.205,2.378,1101.012,0.841,0.900
0.282000,1066933,1000.00,12,0,1,802.795,3.859,2.372,1100.771,1.378,0.916
0.283000,1066934,1000.00,12,0,1,801.450,1.095,2.287,1100.291,0.172,0.905
0.284000,1066935,1000.00,12,0,1,801.954,2.336,2.160,1098.850,-0.612,0.898
0.285000,1066936,1000.00,12,0,1,801.954,2.671,2.082,1101.516,0.899,0.905
0.286000,1066937,1000.00,12,0,1,800.393,2.212,2.087,1099.042,0.193,0.899
0.287000,1066938,1000.00,12,0,1,795.781,-0.767,2.055,1097.961,-2.227,0.951
0.288000,1066939,1000.00,12,0,1,791.697,-3.537,2.006,1096.520,-2.088,0.978
0.289000,1066940,1000.00,12,0,1,790.352,-3.067,2.037,1097.312,-1.975,1.015
0.290000,1066941,1000.00,12,0,1,789.968,-1.964,2.031,1098.297,-0.067,1.015
0.291000,1066942,1000.00,12,0,1,788.551,-1.918,2.001,1098.513,0.037,0.996
0.292000,1066943,1000.00,12,0,1,788.575,-1.702,2.015,1098.994,0.429,0.988
0.293000,1066944,1000.00,12,0,1,794.460,3.193,2.060,1099.402,0.924,0.997
0.294000,1066945,1000.00,12,0,1,798.255,6.500,2.250,1098.273,-0.240,0.998
0.295000,1066946,1000.00,12,0,1,800.633,6.118,2.368,1099.090,0.209,0.997
0.296000,1066947,1000.00,12,0,1,804.548,7.300,2.571,1099.522,0.798,1.001
0.297000,1066948,1000.00,12,0,1,805.509,5.879,2.692,1099.090,0.260,0.979
0.298000,1066949,1000.00,12,0,1,803.540,1.438,2.687,1098.009,-0.733,0.983
0.299000,1066950,1000.00,12,0,1,804.668,0.025,2.684,1097.408,-1.222,0.998
0.300000,1066951,1000.00,12,0,1,807.359,1.299,2.690,1098.946,0.086,0.977
0.301000,1066952,1000.00,12,0,1,805.221,-1.092,2.692,1100.531,1.887,1.013
0.302000,1066953,1000.00,12,0,1,798.039,-7.717,2.881,1100.843,1.909,1.048
0.303000,1066954,1000.00,12,0,1,800.465,-6.169,2.996,1099.522,0.737,1.045
0.304000,1066955,1000.00,12,0,1,808.007,2.814,3.022,1098.177,-0.782,1.040
0.305000,1066956,1000.00,12,0,1,810.313,5.806,3.126,1100.483,1.030,1.044
0.306000,1066957,1000.00,12,0,1,803.467,0.659,3.128,1099.354,0.909,1.051
0.307000,1066958,1000.00,12,0,1,800.873,-2.356,3.125,1099.570,-0.024,1.051
0.308000,1066959,1000.00,12,0,1,801.786,0.488,3.114,1098.826,0.249,1.039
0.309000,1066960,1000.00,12,0,1,798.423,-1.215,3.098,1097.625,-1.427,1.056
0.310000,1066961,1000.00,12,0,1,796.045,-3.112,3.106,1095.919,-2.289,1.095
0.311000,1066962,1000.00,12,0,1,795.541,-2.399,3.109,1098.609,-0.468,1.089
0.312000,1066963,1000.00,12,0,1,795.036,-2.611,3.130,1099.450,1.441,1.106
0.313000,1066964,1000.00,12,0,1,796.477,-1.388,3.129,1101.900,2.388,1.157
0.314000,1066965,1000.00,12,0,1,798.952,0.298,3.125,1100.243,1.775,1.183
0.315000,1066966,1000.00,12,0,1,805.461,4.390,3.178,1098.730,-1.002,1.189
0.316000,1066967,1000.00,12,0,1,802.939,2.060,3.155,1098.657,-0.672,1.179
0.317000,1066968,1000.00,12,0,1,801.426,-3.055,3.172,1098.129,-1.155,1.172
0.318000,1066969,1000.00,12,0,1,805.077,-0.407,3.166,1097.072,-1.989,1.190
0.319000,1066970,1000.00,12,0,1,805.845,-0.630,3.158,1098.970,-0.356,1.147
0.320000,1066971,1000.00,12,0,1,806.230,-1.642,3.163,1101.060,1.833,1.151
0.321000,1066972,1000.00,12,0,1,807.575,-0.704,3.158,1099.883,0.969,1.152
0.322000,1066973,1000.00,12,0,1,805.389,-2.431,3.176,1099.738,0.040,1.152
0.323000,1066974,1000.00,12,0,1,804.548,-3.180,3.208,1099.330,0.277,1.150
0.324000,1066975,1000.00,12,0,1,806.542,-0.340,3.179,1099.330,-0.252,1.150
0.325000,1066976,1000.00,12,0,1,804.164,-0.536,3.123,1099.402,0.294,1.146
0.326000,1066977,1000.00,12,0,1,798.663,-4.431,3.182,1099.474,0.103,1.140
0.327000,1066978,1000.00,12,0,1,797.534,-3.936,3.229,1099.498,0.333,1.134
0.328000,1066979,1000.00,12,0,1,799.144,-0.338,3.225,1097.697,-1.099,1.129
0.329000,1066980,1000.00,12,0,1,804.308,5.103,3.303,1099.955,0.230,1.128
0.330000,1066981,1000.00,12,0,1,806.638,8.298,3.504,1100.651,1.858,1.148
0.331000,1066982,1000.00,12,0,1,803.371,4.680,3.537,1099.714,0.173,1.142
0.332000,1066983,1000.00,12,0,1,802.050,2.043,3.506,1098.657,-0.554,1.128
0.333000,1066984,1000.00,12,0,1,800.873,0.670,3.504,1098.057,-1.370,1.145
0.334000,1066985,1000.00,12,0,1,802.074,-0.012,3.489,1098.850,-0.572,1.144
0.335000,1066986,1000.00,12,0,1,802.603,0.036,3.468,1099.042,-0.145,1.137
0.336000,1066987,1000.00,12,0,1,806.374,0.949,3.457,1100.963,1.032,1.146
0.337000,1066988,1000.00,12,0,1,808.872,2.564,3.474,1099.042,0.140,1.102
0.338000,1066989,1000.00,12,0,1,808.296,-0.098,3.438,1096.592,-2.951,1.141
0.339000,1066990,1000.00,12,0,1,809.353,-0.796,3.412,1098.609,-0.891,1.114
0.340000,1066991,1000.00,12,0,1,809.569,-1.144,3.405,1099.162,0.305,1.114
0.341000,1066992,1000.00,12,0,1,812.235,-0.121,3.394,1099.330,0.076,1.114
0.342000,1066993,1000.00,12,0,1,809.064,-1.616,3.393,1100.483,1.270,1.127
0.343000,1066994,1000.00,12,0,1,806.518,-5.005,3.437,1100.051,0.916,1.127
0.344000,1066995,1000.00,12,0,1,803.876,-4.960,3.385,1099.859,0.423,1.128
0.345000,1066996,1000.00,12,0,1,804.404,-3.971,3.320,1097.553,-1.153,1.139
0.346000,1066997,1000.00,12,0,1,805.605,-0.233,3.156,1098.537,-0.985,1.142
0.347000,1066998,1000.00,12,0,1,802.194,-1.583,3.052,1100.795,1.838,1.171
0.348000,1066999,1000.00,12,0,1,802.218,-1.033,3.049,1100.891,1.718,1.191
0.349000,1067000,1000.00,12,0,1,806.182,4.095,3.104,1098.321,-0.521,1.181
0.350000,1067001,1000.00,12,0,1,805.365,4.182,3.154,1099.642,-0.179,1.181
0.351000,1067002,1000.00,12,0,1,798.783,-1.566,3.158,1099.666,0.777,1.156
0.352000,1067003,1000.00,12,0,1,798.303,-3.240,2.999,1099.114,-0.425,1.126
0.353000,1067004,1000.00,12,0,1,798.471,-1.744,2.880,1097.913,-1.067,1.131
0.354000,1067005,1000.00,12,0,1,800.489,-1.383,2.859,1098.609,-0.890,1.133
0.355000,1067006,1000.00,12,0,1,801.810,0.037,2.738,1098.489,-0.379,1.124
0.356000,1067007,1000.00,12,0,1,802.627,-0.902,2.740,1100.651,0.882,1.124
0.357000,1067008,1000.00,12,0,1,806.518,1.291,2.726,1100.267,1.247,1.138
0.358000,1067009,1000.00,12,0,1,810.506,3.746,2.776,1099.642,-0.186,1.137
0.359000,1067010,1000.00,12,0,1,812.956,4.190,2.833,1097.384,-1.639,1.143
0.360000,1067011,1000.00,12,0,1,812.115,2.414,2.819,1097.865,-1.818,1.126
0.361000,1067012,1000.00,12,0,1,811.947,0.573,2.800,1098.874,-0.088,1.124
0.362000,1067013,1000.00,12,0,1,814.013,2.229,2.794,1100.099,0.797,1.111
0.363000,1067014,1000.00,12,0,1,816.246,3.945,2.842,1099.618,0.701,1.063
0.364000,1067015,1000.00,12,0,1,815.286,3.513,2.885,1097.288,-1.387,1.052
0.365000,1067016,1000.00,12,0,1,813.412,1.654,2.827,1097.673,-1.371,1.060
0.366000,1067017,1000.00,12,0,1,805.389,-3.662,2.859,1098.657,0.328,1.057
0.367000,1067018,1000.00,12,0,1,803.083,-6.017,2.952,1098.778,0.262,1.045
0.368000,1067019,1000.00,12,0,1,801.354,-4.019,3.005,1098.441,0.265,1.007
0.369000,1067020,1000.00,12,0,1,801.210,-3.568,3.046,1099.931,1.118,1.018
0.370000,1067021,1000.00,12,0,1,799.672,-2.465,3.057,1097.072,-0.445,0.987
0.371000,1067022,1000.00,12,0,1,798.615,-3.186,3.088,1098.730,-0.528,0.980
0.372000,1067023,1000.00,12,0,1,800.705,-0.757,3.071,1097.721,0.394,0.981
0.373000,1067024,1000.00,12,0,1,801.474,0.331,3.038,1099.859,0.491,0.983
0.374000,1067025,1000.00,12,0,1,802.338,-0.142,3.038,1098.489,1.003,0.993
0.375000,1067026,1000.00,12,0,1,805.077,1.500,3.045,1098.730,-0.535,0.995
0.376000,1067027,1000.00,12,0,1,811.250,4.834,3.057,1099.642,1.213,1.009
0.377000,1067028,1000.00,12,0,1,812.811,5.436,3.102,1099.258,0.388,1.010
0.378000,1067029,1000.00,12,0,1,812.956,2.305,3.119,1098.850,-0.122,0.998
0.379000,1067030,1000.00,12,0,1,812.811,1.082,3.038,1099.018,0.091,0.997
0.380000,1067031,1000.00,12,0,1,812.451,-0.882,2.805,1098.321,-0.604,0.966
0.381000,1067032,1000.00,12,0,1,815.214,0.774,2.728,1097.937,-0.780,0.972
0.382000,1067033,1000.00,12,0,1,814.829,0.959,2.716,1097.480,-1.137,0.982
0.383000,1067034,1000.00,12,0,1,812.787,-1.311,2.721,1098.225,-0.267,0.963
0.384000,1067035,1000.00,12,0,1,811.875,-1.162,2.726,1098.369,0.113,0.960
0.385000,1067036,1000.00,12,0,1,810.914,-0.953,2.729,1099.162,0.731,0.965
0.386000,1067037,1000.00,12,0,1,809.401,-0.803,2.728,1097.961,0.045,0.954
0.387000,1067038,1000.00,12,0,1,807.863,-0.853,2.707,1098.561,0.011,0.954
0.388000,1067039,1000.00,12,0,1,805.966,-1.026,2.711,1098.345,0.470,0.861
0.389000,1067040,1000.00,12,0,1,800.393,-4.228,2.774,1098.682,0.235,0.852
0.390000,1067041,1000.00,12,0,1,799.168,-4.993,2.858,1097.529,-0.242,0.852
0.391000,1067042,1000.00,12,0,1,803.828,0.544,2.858,1097.937,-0.486,0.854
0.392000,1067043,1000.00,12,0,1,807.479,4.201,2.911,1099.258,1.075,0.849
0.393000,1067044,1000.00,12,0,1,804.885,1.562,2.832,1099.690,1.290,0.859
0.394000,1067045,1000.00,12,0,1,803.828,-1.434,2.751,1098.850,0.381,0.858
0.395000,1067046,1000.00,12,0,1,804.885,-1.110,2.698,1096.760,-1.471,0.868
0.396000,1067047,1000.00,12,0,1,807.959,0.003,2.698,1097.336,-1.408,0.879
0.397000,1067048,1000.00,12,0,1,811.154,1.770,2.700,1099.450,1.010,0.852
0.398000,1067049,1000.00,12,0,1,814.709,3.035,2.730,1099.018,0.675,0.822
0.399000,1067050,1000.00,12,0,1,817.760,4.220,2.734,1098.778,0.086,0.819
0.400000,1067051,1000.00,12,0,1,818.408,3.376,2.711,1098.081,-0.315,0.820
0.401000,1067052,1000.00,12,0,1,818.192,1.764,2.714,1097.504,-0.980,0.824
0.402000,1067053,1000.00,12,0,1,818.216,1.318,2.681,1098.802,0.210,0.823
0.403000,1067054,1000.00,12,0,1,818.000,1.020,2.674,1098.273,0.248,0.809
0.404000,1067055,1000.00,12,0,1,816.054,0.023,2.667,1097.336,-0.914,0.810
0.405000,1067056,1000.00,12,0,1,812.355,-2.393,2.688,1098.081,-0.076,0.808
0.406000,1067057,1000.00,12,0,1,808.680,-4.172,2.749,1098.081,0.215,0.799
0.407000,1067058,1000.00,12,0,1,807.095,-3.907,2.798,1097.697,-0.206,0.780
0.408000,1067059,1000.00,12,0,1,806.158,-2.597,2.772,1097.817,-0.018,0.780
0.409000,1067060,1000.00,12,0,1,804.212,-2.660,2.734,1099.114,1.009,0.758
0.410000,1067061,1000.00,12,0,1,804.476,-1.549,2.721,1099.690,1.659,0.750
0.411000,1067062,1000.00,12,0,1,804.596,-0.274,2.720,1098.393,0.299,0.752
0.412000,1067063,1000.00,12,0,1,807.431,1.599,2.711,1097.360,-0.897,0.754
0.413000,1067064,1000.00,12,0,1,805.317,0.420,2.654,1097.000,-1.098,0.763
0.414000,1067065,1000.00,12,0,1,805.485,-1.896,2.621,1095.703,-1.954,0.788
0.415000,1067066,1000.00,12,0,1,806.326,-1.069,2.615,1097.673,-0.541,0.767
0.416000,1067067,1000.00,12,0,1,809.761,-0.247,2.563,1099.546,1.825,0.808
0.417000,1067068,1000.00,12,0,1,813.364,2.250,2.439,1099.474,1.385,0.831
0.418000,1067069,1000.00,12,0,1,815.478,2.218,2.392,1099.810,1.342,0.851
0.419000,1067070,1000.00,12,0,1,816.679,1.762,2.352,1098.369,0.177,0.837
0.420000,1067071,1000.00,12,0,1,817.351,1.196,2.332,1097.889,-0.835,0.843
0.421000,1067072,1000.00,12,0,1,817.952,0.801,2.291,1098.802,0.287,0.840
0.422000,1067073,1000.00,12,0,1,819.057,1.647,2.300,1098.225,-0.105,0.839
0.423000,1067074,1000.00,12,0,1,819.994,2.461,2.326,1096.736,-1.396,0.859
0.424000,1067075,1000.00,12,0,1,819.297,2.534,2.353,1097.889,-0.540,0.850
0.425000,1067076,1000.00,12,0,1,821.867,4.554,2.430,1097.769,0.110,0.847
0.426000,1067077,1000.00,12,0,1,815.574,1.564,2.343,1097.408,-0.565,0.834
0.427000,1067078,1000.00,12,0,1,808.896,-5.191,2.332,1097.312,-0.274,0.833
0.428000,1067079,1000.00,12,0,1,804.765,-6.051,2.462,1097.937,0.147,0.833
0.429000,1067080,1000.00,12,0,1,803.588,-5.862,2.593,1096.520,-0.602,0.837
0.430000,1067081,1000.00,12,0,1,806.350,-1.526,2.599,1097.769,-0.170,0.833
0.431000,1067082,1000.00,12,0,1,807.191,0.587,2.598,1100.123,2.418,0.894
0.432000,1067083,1000.00,12,0,1,805.990,-0.754,2.597,1097.769,0.450,0.881
0.433000,1067084,1000.00,12,0,1,806.662,-0.627,2.592,1095.919,-1.991,0.924
0.434000,1067085,1000.00,12,0,1,809.929,1.151,2.592,1098.730,0.554,0.928
0.435000,1067086,1000.00,12,0,1,813.052,2.888,2.620,1098.129,0.745,0.928
0.436000,1067087,1000.00,12,0,1,814.085,1.846,2.631,1099.570,0.870,0.936
0.437000,1067088,1000.00,12,0,1,814.205,0.073,2.628,1099.234,1.424,0.957
0.438000,1067089,1000.00,12,0,1,816.198,-0.163,2.624,1097.769,-0.747,0.961
0.439000,1067090,1000.00,12,0,1,817.520,0.134,2.555,1098.633,0.039,0.960
0.440000,1067091,1000.00,12,0,1,818.769,-0.107,2.456,1098.105,-0.044,0.960
0.441000,1067092,1000.00,12,0,1,818.408,-0.503,2.456,1099.883,0.786,0.964
0.442000,1067093,1000.00,12,0,1,816.078,-2.632,2.412,1100.483,2.070,0.996
0.443000,1067094,1000.00,12,0,1,814.733,-3.186,2.443,1101.012,1.534,1.003
0.444000,1067095,1000.00,12,0,1,816.054,-0.786,2.437,1099.546,0.744,1.007
0.445000,1067096,1000.00,12,0,1,818.120,2.590,2.460,1099.570,-0.261,0.986
0.446000,1067097,1000.00,12,0,1,816.270,2.635,2.488,1097.673,-1.023,0.976
0.447000,1067098,1000.00,12,0,1,814.733,1.706,2.487,1099.498,-0.530,0.968
0.448000,1067099,1000.00,12,0,1,809.184,-1.028,2.454,1097.913,-0.367,0.965
0.449000,1067100,1000.00,12,0,1,808.127,-2.281,2.402,1098.081,-1.560,0.990
0.450000,1067101,1000.00,12,0,1,809.689,1.207,2.360,1097.985,-0.454,0.991
0.451000,1067102,1000.00,12,0,1,808.176,0.163,2.347,1097.048,-1.687,1.010
0.452000,1067103,1000.00,12,0,1,803.948,-3.418,2.389,1097.240,-1.304,1.026
0.453000,1067104,1000.00,12,0,1,807.263,-1.817,2.399,1098.898,0.301,1.026
0.454000,1067105,1000.00,12,0,1,810.097,1.373,2.406,1101.468,2.330,1.070
0.455000,1067106,1000.00,12,0,1,811.394,0.540,2.384,1099.330,0.987,1.079
0.456000,1067107,1000.00,12,0,1,813.676,1.103,2.315,1099.330,-0.590,1.082
0.457000,1067108,1000.00,12,0,1,816.102,1.538,2.259,1098.898,0.103,1.082
0.458000,1067109,1000.00,12,0,1,816.174,0.087,2.228,1098.850,-0.908,1.089
0.459000,1067110,1000.00,12,0,1,815.838,-1.665,2.209,1096.976,-1.574,1.103
0.460000,1067111,1000.00,12,0,1,817.952,-0.875,2.202,1097.480,-1.917,1.111
0.461000,1067112,1000.00,12,0,1,818.456,-0.086,2.201,1098.730,0.187,1.111
0.462000,1067113,1000.00,12,0,1,814.613,-3.368,2.241,1096.496,-1.526,1.124
0.463000,1067114,1000.00,12,0,1,818.312,-0.442,2.241,1096.520,-1.875,1.145
0.464000,1067115,1000.00,12,0,1,816.991,1.474,2.235,1096.856,-0.530,1.113
0.465000,1067116,1000.00,12,0,1,816.174,0.161,2.230,1098.177,0.259,1.111
0.466000,1067117,1000.00,12,0,1,812.235,-0.244,2.230,1099.426,2.013,1.118
0.467000,1067118,1000.00,12,0,1,809.449,-2.477,2.234,1096.904,-0.229,1.101
0.468000,1067119,1000.00,12,0,1,812.139,1.839,2.228,1097.721,-0.223,1.085
0.469000,1067120,1000.00,12,0,1,812.739,4.058,2.287,1098.802,1.495,1.105
0.470000,1067121,1000.00,12,0,1,813.892,4.586,2.371,1097.889,0.344,1.100
0.471000,1067122,1000.00,12,0,1,812.475,4.041,2.436,1097.745,0.061,1.099
0.472000,1067123,1000.00,12,0,1,811.010,0.987,2.429,1096.808,-0.557,1.102
0.473000,1067124,1000.00,12,0,1,810.289,0.083,2.404,1096.712,-0.924,1.092
0.474000,1067125,1000.00,12,0,1,811.082,-0.933,2.381,1097.913,0.380,1.090
0.475000,1067126,1000.00,12,0,1,811.803,-1.025,2.297,1097.697,0.332,1.091
0.476000,1067127,1000.00,12,0,1,813.172,-1.626,2.297,1099.907,1.662,1.113
0.477000,1067128,1000.00,12,0,1,817.303,0.534,2.178,1099.883,2.201,1.155
0.478000,1067129,1000.00,12,0,1,819.922,1.753,2.019,1099.114,0.571,1.158
0.479000,1067130,1000.00,12,0,1,820.138,0.255,1.841,1097.336,-0.656,1.159
0.480000,1067131,1000.00,12,0,1,820.738,-0.363,1.829,1097.937,-0.778,1.164
0.481000,1067132,1000.00,12,0,1,820.882,-0.685,1.830,1096.928,-0.707,1.117
0.482000,1067133,1000.00,12,0,1,820.642,-0.932,1.831,1096.544,-1.549,1.136
0.483000,1067134,1000.00,12,0,1,820.546,-0.544,1.831,1094.814,-2.094,1.140
0.484000,1067135,1000.00,12,0,1,823.981,2.864,1.868,1097.697,-0.240,1.138
0.485000,1067136,1000.00,12,0,1,818.072,0.232,1.823,1097.408,1.111,1.144
0.486000,1067137,1000.00,12,0,1,814.565,-3.739,1.880,1098.657,0.897,1.144
0.487000,1067138,1000.00,12,0,1,817.496,1.322,1.889,1097.889,1.307,1.141
0.488000,1067139,1000.00,12,0,1,817.496,2.890,1.933,1098.706,0.818,1.142
0.489000,1067140,1000.00,12,0,1,813.676,0.250,1.933,1099.210,1.833,1.171
0.490000,1067141,1000.00,12,0,1,811.755,-1.233,1.941,1097.697,0.100,1.171
0.491000,1067142,1000.00,12,0,1,811.995,-0.583,1.941,1098.201,-0.034,1.166
0.492000,1067143,1000.00,12,0,1,812.067,-0.337,1.906,1098.177,0.495,1.131
0.493000,1067144,1000.00,12,0,1,812.475,-0.766,1.855,1099.042,0.408,1.111
0.494000,1067145,1000.00,12,0,1,814.733,0.314,1.852,1099.018,0.973,1.115
0.495000,1067146,1000.00,12,0,1,816.823,0.882,1.820,1099.378,0.387,1.116
0.496000,1067147,1000.00,12,0,1,821.291,2.723,1.822,1099.042,0.528,1.109
0.497000,1067148,1000.00,12,0,1,823.621,3.385,1.869,1097.048,-1.593,1.129
0.498000,1067149,1000.00,12,0,1,821.219,-0.754,1.866,1096.976,-1.725,1.154
0.499000,1067150,1000.00,12,0,1,819.369,-4.180,1.931,1100.219,1.187,1.145
0.500000,1067151,1000.00,12,0,1,821.795,-2.761,1.963,1098.730,0.716,1.148
0.501000,1067152,1000.00,12,0,1,824.365,-0.236,1.963,1097.192,-1.603,1.145
0.502000,1067153,1000.00,12,0,1,824.726,0.209,1.902,1099.642,0.757,1.135
0.503000,1067154,1000.00,12,0,1,824.101,-0.034,1.885,1102.333,3.264,1.225
0.504000,1067155,1000.00,12,0,1,819.201,-2.918,1.920,1098.609,0.273,1.180
0.505000,1067156,1000.00,12,0,1,816.919,-4.414,2.017,1097.360,-2.112,1.209
0.506000,1067157,1000.00,12,0,1,817.520,-1.367,2.021,1097.601,-0.986,1.215
0.507000,1067158,1000.00,12,0,1,818.288,0.908,2.013,1098.706,-0.314,1.215
0.508000,1067159,1000.00,12,0,1,819.057,3.008,2.057,1097.649,-0.559,1.211
0.509000,1067160,1000.00,12,0,1,820.018,4.473,2.140,1098.369,-0.593,1.193
0.510000,1067161,1000.00,12,0,1,818.697,3.703,2.199,1099.738,1.087,1.172
0.511000,1067162,1000.00,12,0,1,818.264,2.506,2.228,1098.009,-0.364,1.173
0.512000,1067163,1000.00,12,0,1,815.838,0.321,2.176,1098.850,-0.456,1.155
0.513000,1067164,1000.00,12,0,1,815.310,-1.703,2.189,1098.657,0.264,1.125
0.514000,1067165,1000.00,12,0,1,818.384,0.222,2.179,1098.297,-0.856,1.129
0.515000,1067166,1000.00,12,0,1,817.496,-1.156,2.185,1098.465,-0.218,1.129
0.516000,1067167,1000.00,12,0,1,819.417,-2.025,2.204,1099.234,0.088,1.092
0.517000,1067168,1000.00,12,0,1,819.081,-2.249,2.199,1098.417,-0.167,1.092
0.518000,1067169,1000.00,12,0,1,820.186,-3.648,2.243,1100.339,0.726,1.096
0.519000,1067170,1000.00,12,0,1,821.795,-1.994,2.187,1099.714,1.090,1.087
0.520000,1067171,1000.00,12,0,1,820.018,-4.074,2.167,1098.994,-0.494,1.088
0.521000,1067172,1000.00,12,0,1,820.066,-4.251,2.175,1100.795,1.249,1.102
0.522000,1067173,1000.00,12,0,1,825.206,0.790,2.173,1099.570,0.564,1.102
0.523000,1067174,1000.00,12,0,1,824.462,1.886,2.189,1096.039,-2.888,1.168
0.524000,1067175,1000.00,12,0,1,820.810,-1.323,2.193,1095.823,-2.986,1.241
0.525000,1067176,1000.00,12,0,1,821.339,0.149,2.189,1096.976,-1.261,1.253
0.526000,1067177,1000.00,12,0,1,824.558,4.476,2.267,1098.321,0.234,1.231
0.527000,1067178,1000.00,12,0,1,819.345,1.926,2.282,1097.817,0.157,1.191
0.528000,1067179,1000.00,12,0,1,811.971,-4.468,2.355,1098.561,0.404,1.190
0.529000,1067180,1000.00,12,0,1,811.394,-3.769,2.414,1096.616,-0.601,1.189
0.530000,1067181,1000.00,12,0,1,813.964,0.296,2.414,1096.712,-1.339,1.199
0.531000,1067182,1000.00,12,0,1,814.301,1.389,2.420,1097.192,-0.061,1.195
0.532000,1067183,1000.00,12,0,1,816.030,2.381,2.440,1098.009,0.264,1.175
0.533000,1067184,1000.00,12,0,1,819.922,5.013,2.539,1098.417,0.909,1.145
0.534000,1067185,1000.00,12,0,1,818.841,3.304,2.550,1099.378,1.338,1.160
0.535000,1067186,1000.00,12,0,1,820.979,2.034,2.566,1098.682,0.871,1.156
0.536000,1067187,1000.00,12,0,1,823.861,3.739,2.566,1095.703,-1.871,1.179
0.537000,1067188,1000.00,12,0,1,822.804,0.593,2.560,1095.607,-2.329,1.210
0.538000,1067189,1000.00,12,0,1,824.245,-0.311,2.528,1100.003,1.920,1.235
0.539000,1067190,1000.00,12,0,1,827.080,1.248,2.534,1099.979,2.595,1.262
0.540000,1067191,1000.00,12,0,1,826.095,-0.385,2.529,1100.003,1.501,1.279
0.541000,1067192,1000.00,12,0,1,825.735,-1.708,2.539,1099.186,1.198,1.290
0.542000,1067193,1000.00,12,0,1,824.005,-2.520,2.563,1097.577,-0.722,1.293
0.543000,1067194,1000.00,12,0,1,823.885,-2.524,2.586,1099.378,0.641,1.294
0.544000,1067195,1000.00,12,0,1,822.132,-2.096,2.602,1099.210,1.215,1.299
0.545000,1067196,1000.00,12,0,1,820.138,-2.895,2.631,1097.841,-0.616,1.300
0.546000,1067197,1000.00,12,0,1,821.603,-0.008,2.603,1097.432,-0.703,1.302
0.547000,1067198,1000.00,12,0,1,820.042,0.878,2.561,1097.216,-0.886,1.288
0.548000,1067199,1000.00,12,0,1,816.727,-1.357,2.566,1096.207,-1.398,1.280
0.549000,1067200,1000.00,12,0,1,816.439,-0.494,2.498,1096.544,-1.245,1.282
0.550000,1067201,1000.00,12,0,1,818.120,1.750,2.480,1097.553,0.065,1.278
0.551000,1067202,1000.00,12,0,1,823.693,6.317,2.636,1097.601,0.152,1.257
0.552000,1067203,1000.00,12,0,1,819.273,3.279,2.676,1099.786,1.602,1.273
0.553000,1067204,1000.00,12,0,1,815.406,-3.272,2.716,1099.258,1.638,1.209
0.554000,1067205,1000.00,12,0,1,815.838,-2.813,2.714,1096.279,-1.687,1.232
0.555000,1067206,1000.00,12,0,1,820.666,-0.246,2.641,1094.526,-3.155,1.276
0.556000,1067207,1000.00,12,0,1,824.293,2.568,2.659,1097.096,-0.985,1.276
0.557000,1067208,1000.00,12,0,1,826.383,2.223,2.674,1097.649,0.577,1.277
0.558000,1067209,1000.00,12,0,1,825.182,-0.039,2.640,1098.778,0.802,1.280
0.559000,1067210,1000.00,12,0,1,825.086,-1.968,2.579,1101.300,3.246,1.357
0.560000,1067211,1000.00,12,0,1,826.936,-0.834,2.528,1098.537,1.033,1.356
0.561000,1067212,1000.00,12,0,1,827.368,-0.386,2.503,1097.288,-1.239,1.367
0.562000,1067213,1000.00,12,0,1,827.848,-0.276,2.503,1096.015,-1.339,1.378
0.563000,1067214,1000.00,12,0,1,826.768,-0.155,2.492,1096.760,-1.274,1.389
0.564000,1067215,1000.00,12,0,1,821.795,-3.650,2.544,1098.249,0.983,1.391
0.565000,1067216,1000.00,12,0,1,815.862,-7.222,2.737,1098.826,1.256,1.402
0.566000,1067217,1000.00,12,0,1,816.799,-4.960,2.811,1099.762,1.994,1.430
0.567000,1067218,1000.00,12,0,1,819.537,0.615,2.794,1099.810,1.934,1.456
0.568000,1067219,1000.00,12,0,1,822.516,4.163,2.808,1096.976,-0.676,1.455
0.569000,1067220,1000.00,12,0,1,821.771,4.943,2.880,1098.802,0.012,1.447
0.570000,1067221,1000.00,12,0,1,818.721,1.758,2.833,1096.688,-0.482,1.447
0.571000,1067222,1000.00,12,0,1,817.015,0.117,2.769,1096.448,-2.100,1.467
0.572000,1067223,1000.00,12,0,1,816.679,-0.446,2.767,1096.784,-0.618,1.467
0.573000,1067224,1000.00,12,0,1,817.039,-0.691,2.756,1098.489,0.187,1.409
0.574000,1067225,1000.00,12,0,1,819.249,0.317,2.750,1098.345,0.759,1.349
0.575000,1067226,1000.00,12,0,1,820.834,0.746,2.752,1101.132,2.053,1.368
0.576000,1067227,1000.00,12,0,1,822.083,0.288,2.678,1099.402,1.484,1.384
0.577000,1067228,1000.00,12,0,1,825.110,1.286,2.671,1099.162,-0.367,1.385
0.578000,1067229,1000.00,12,0,1,825.615,0.900,2.598,1098.129,-0.391,1.384
0.579000,1067230,1000.00,12,0,1,826.936,0.125,2.543,1098.249,-1.039,1.390
0.580000,1067231,1000.00,12,0,1,828.065,0.908,2.546,1095.967,-2.096,1.408
0.581000,1067232,1000.00,12,0,1,825.398,-1.774,2.550,1096.928,-1.906,1.434
0.582000,1067233,1000.00,12,0,1,824.654,-2.688,2.556,1097.601,-0.146,1.433
0.583000,1067234,1000.00,12,0,1,827.536,0.775,2.459,1096.904,-0.801,1.432
0.584000,1067235,1000.00,12,0,1,827.728,2.332,2.436,1097.240,-0.457,1.421
0.585000,1067236,1000.00,12,0,1,826.479,1.740,2.432,1098.273,0.850,1.421
0.586000,1067237,1000.00,12,0,1,825.494,1.911,2.389,1100.483,2.382,1.436
0.587000,1067238,1000.00,12,0,1,826.263,3.218,2.430,1098.321,1.236,1.409
0.588000,1067239,1000.00,12,0,1,823.116,1.897,2.445,1097.456,-0.946,1.389
0.589000,1067240,1000.00,12,0,1,819.393,-1.528,2.448,1096.448,-0.788,1.344
0.590000,1067241,1000.00,12,0,1,816.391,-3.149,2.488,1097.336,-0.864,1.333
0.591000,1067242,1000.00,12,0,1,820.594,-0.000,2.476,1099.402,1.626,1.342
0.592000,1067243,1000.00,12,0,1,822.756,3.180,2.491,1100.363,2.068,1.369
0.593000,1067244,1000.00,12,0,1,819.273,-1.175,2.471,1098.393,0.325,1.367
0.594000,1067245,1000.00,12,0,1,821.939,-0.848,2.456,1098.850,-0.195,1.357
0.595000,1067246,1000.00,12,0,1,826.191,2.637,2.450,1097.240,-0.848,1.359
0.596000,1067247,1000.00,12,0,1,827.296,1.619,2.461,1098.297,-0.897,1.361
0.597000,1067248,1000.00,12,0,1,831.740,3.246,2.500,1097.120,-0.730,1.360
0.598000,1067249,1000.00,12,0,1,835.055,4.812,2.584,1098.249,-0.764,1.349
0.599000,1067250,1000.00,12,0,1,832.052,0.565,2.584,1099.138,1.006,1.345
0.600000,1067251,1000.00,12,0,1,828.377,-4.354,2.645,1098.465,0.047,1.345
0.601000,1067252,1000.00,12,0,1,827.200,-5.358,2.602,1099.810,0.952,1.352
0.602000,1067253,1000.00,12,0,1,830.251,-2.373,2.583,1099.883,1.509,1.350
0.603000,1067254,1000.00,12,0,1,835.007,2.978,2.576,1096.760,-1.536,1.347
0.604000,1067255,1000.00,12,0,1,831.716,1.544,2.554,1096.327,-2.081,1.358
0.605000,1067256,1000.00,12,0,1,826.888,-2.889,2.586,1098.537,0.208,1.283
0.606000,1067257,1000.00,12,0,1,822.780,-4.505,2.639,1099.354,1.400,1.291
0.607000,1067258,1000.00,12,0,1,824.894,-1.926,2.634,1098.706,0.510,1.291
0.608000,1067259,1000.00,12,0,1,827.008,2.572,2.659,1096.448,-1.271,1.298
0.609000,1067260,1000.00,12,0,1,823.645,0.298,2.645,1096.784,-1.509,1.233
0.610000,1067261,1000.00,12,0,1,818.552,-3.809,2.696,1097.384,-0.188,1.224
0.611000,1067262,1000.00,12,0,1,817.712,-4.371,2.766,1098.730,0.544,1.214
0.612000,1067263,1000.00,12,0,1,825.062,1.925,2.779,1097.697,0.236,1.200
0.613000,1067264,1000.00,12,0,1,827.848,5.214,2.875,1097.336,-0.856,1.192
0.614000,1067265,1000.00,12,0,1,823.909,-0.381,2.829,1096.976,-0.647,1.188
0.615000,1067266,1000.00,12,0,1,821.579,-4.021,2.699,1097.504,-0.515,1.177
0.616000,1067267,1000.00,12,0,1,824.966,-2.450,2.629,1096.736,-0.658,1.146
0.617000,1067268,1000.00,12,0,1,830.347,1.706,2.638,1097.000,-0.782,1.119
0.618000,1067269,1000.00,12,0,1,830.371,0.966,2.575,1097.360,0.001,1.114
0.619000,1067270,1000.00,12,0,1,830.034,-1.203,2.485,1096.808,-0.414,1.116
0.620000,1067271,1000.00,12,0,1,828.569,-2.380,2.495,1095.679,-1.265,1.128
0.621000,1067272,1000.00,12,0,1,828.161,-3.312,2.538,1097.216,0.036,1.088
0.622000,1067273,1000.00,12,0,1,826.119,-3.606,2.588,1099.258,2.232,1.130
0.623000,1067274,1000.00,12,0,1,822.996,-5.497,2.701,1098.201,1.459,1.148
0.624000,1067275,1000.00,12,0,1,816.415,-8.581,2.961,1097.288,0.053,1.143
0.625000,1067276,1000.00,12,0,1,821.579,-3.577,3.002,1097.889,0.752,1.111
0.626000,1067277,1000.00,12,0,1,825.735,4.713,3.075,1099.594,1.995,1.127
0.627000,1067278,1000.00,12,0,1,828.857,7.095,3.229,1096.976,0.283,1.126
0.628000,1067279,1000.00,12,0,1,828.665,8.541,3.445,1098.898,0.433,1.127
0.629000,1067280,1000.00,12,0,1,825.831,5.146,3.521,1099.498,2.290,1.163
0.630000,1067281,1000.00,12,0,1,821.171,1.103,3.522,1097.889,-0.210,1.125
0.631000,1067282,1000.00,12,0,1,817.568,-2.477,3.531,1100.099,1.404,1.110
0.632000,1067283,1000.00,12,0,1,820.306,-0.727,3.512,1099.522,1.420,1.128
0.633000,1067284,1000.00,12,0,1,825.687,4.224,3.560,1099.426,0.116,1.122
0.634000,1067285,1000.00,12,0,1,827.848,4.715,3.607,1097.865,-0.529,1.123
0.635000,1067286,1000.00,12,0,1,830.827,5.130,3.671,1098.609,-1.015,1.126
0.636000,1067287,1000.00,12,0,1,833.349,5.302,3.737,1099.402,0.595,1.077
0.637000,1067288,1000.00,12,0,1,832.052,2.223,3.723,1099.090,-0.254,1.064
0.638000,1067289,1000.00,12,0,1,831.452,-0.761,3.715,1098.609,-0.505,1.058
0.639000,1067290,1000.00,12,0,1,834.430,0.696,3.710,1097.841,-1.230,1.066
0.640000,1067291,1000.00,12,0,1,833.709,-0.136,3.683,1096.856,-1.935,1.094
0.641000,1067292,1000.00,12,0,1,833.613,-1.417,3.688,1098.465,-0.553,1.072
0.642000,1067293,1000.00,12,0,1,828.305,-4.561,3.717,1098.057,-0.158,1.032
0.643000,1067294,1000.00,12,0,1,821.027,-10.708,4.010,1098.994,0.064,1.031
0.644000,1067295,1000.00,12,0,1,819.537,-9.882,4.245,1100.771,2.011,1.069
0.645000,1067296,1000.00,12,0,1,817.856,-7.844,4.372,1098.417,0.096,1.062
0.646000,1067297,1000.00,12,0,1,816.559,-6.701,4.468,1098.850,-0.561,1.058
0.647000,1067298,1000.00,12,0,1,818.649,-2.209,4.455,1098.850,0.404,1.054
0.648000,1067299,1000.00,12,0,1,819.393,0.699,4.404,1098.657,-0.511,1.051
0.649000,1067300,1000.00,12,0,1,812.067,-3.705,4.434,1099.498,0.566,1.045
0.650000,1067301,1000.00,12,0,1,812.355,-4.218,4.431,1099.955,0.743,1.050
0.651000,1067302,1000.00,12,0,1,823.357,6.860,4.473,1098.273,-0.588,1.045
0.652000,1067303,1000.00,12,0,1,833.782,15.556,4.973,1097.240,-1.889,1.057
0.653000,1067304,1000.00,12,0,1,836.808,16.039,5.450,1099.426,0.043,1.034
0.654000,1067305,1000.00,12,0,1,837.985,12.821,5.739,1099.162,0.495,0.994
0.655000,1067306,1000.00,12,0,1,835.415,7.647,5.826,1099.330,-0.167,0.994
0.656000,1067307,1000.00,12,0,1,835.511,3.603,5.813,1099.378,0.396,0.975
0.657000,1067308,1000.00,12,0,1,835.631,2.168,5.815,1098.369,-0.826,0.980
0.658000,1067309,1000.00,12,0,1,840.579,3.436,5.824,1098.249,-0.864,0.971
0.659000,1067310,1000.00,12,0,1,840.603,3.434,5.844,1098.441,-0.520,0.950
0.660000,1067311,1000.00,12,0,1,841.036,0.982,5.821,1098.441,-0.414,0.951
0.661000,1067312,1000.00,12,0,1,843.126,2.752,5.801,1098.417,-0.302,0.949
0.662000,1067313,1000.00,12,0,1,839.186,-0.607,5.795,1097.889,-0.633,0.953
0.663000,1067314,1000.00,12,0,1,836.928,-3.430,5.769,1100.867,1.577,0.971
0.664000,1067315,1000.00,12,0,1,837.000,-1.688,5.773,1100.411,2.040,1.009
0.665000,1067316,1000.00,12,0,1,833.037,-3.939,5.772,1098.105,-0.901,1.014
0.666000,1067317,1000.00,12,0,1,828.737,-6.456,5.834,1098.633,-0.465,1.012
0.667000,1067318,1000.00,12,0,1,828.041,-5.669,5.884,1100.075,0.987,1.016
0.668000,1067319,1000.00,12,0,1,828.713,-3.141,5.899,1100.051,0.958,1.025
0.669000,1067320,1000.00,12,0,1,827.872,-2.793,5.910,1097.697,-1.069,1.034
0.670000,1067321,1000.00,12,0,1,824.029,-5.273,5.947,1100.051,0.097,1.019
0.671000,1067322,1000.00,12,0,1,822.132,-7.055,6.012,1100.891,1.962,1.056
0.672000,1067323,1000.00,12,0,1,825.062,-4.131,6.018,1097.408,-1.687,1.035
0.673000,1067324,1000.00,12,0,1,827.080,-2.019,5.975,1098.009,-1.641,1.041
0.674000,1067325,1000.00,12,0,1,828.137,-2.097,5.858,1100.435,1.112,1.053
0.675000,1067326,1000.00,12,0,1,828.353,-2.564,5.847,1099.402,0.342,1.048
0.676000,1067327,1000.00,12,0,1,827.608,-4.191,5.839,1096.327,-2.485,1.069
0.677000,1067328,1000.00,12,0,1,829.506,-3.384,5.772,1097.048,-2.154,1.111
0.678000,1067329,1000.00,12,0,1,833.229,-0.290,5.645,1099.450,0.725,1.114
0.679000,1067330,1000.00,12,0,1,835.295,1.341,5.601,1097.841,-0.297,1.067
0.680000,1067331,1000.00,12,0,1,834.358,0.394,5.599,1097.000,-1.537,1.088
0.681000,1067332,1000.00,12,0,1,835.511,0.982,5.590,1097.120,-0.836,1.076
0.682000,1067333,1000.00,12,0,1,839.186,4.847,5.631,1098.081,-0.067,1.058
0.683000,1067334,1000.00,12,0,1,839.474,5.884,5.660,1097.264,-0.163,1.058
0.684000,1067335,1000.00,12,0,1,836.808,3.688,5.645,1098.417,0.247,1.056
0.685000,1067336,1000.00,12,0,1,835.079,2.618,5.610,1099.402,1.740,1.074
0.686000,1067337,1000.00,12,0,1,830.851,0.299,5.560,1098.922,0.945,1.079
0.687000,1067338,1000.00,12,0,1,829.410,-0.739,5.552,1098.345,0.322,1.080
0.688000,1067339,1000.00,12,0,1,824.077,-2.949,5.567,1099.354,0.951,1.086
0.689000,1067340,1000.00,12,0,1,823.236,-4.229,5.598,1098.754,0.696,1.076
0.690000,1067341,1000.00,12,0,1,822.732,-2.214,5.607,1098.057,-0.335,1.042
0.691000,1067342,1000.00,12,0,1,825.687,-0.531,5.604,1099.714,0.974,1.048
0.692000,1067343,1000.00,12,0,1,825.086,0.256,5.567,1099.498,1.196,1.061
0.693000,1067344,1000.00,12,0,1,827.344,-0.103,5.357,1097.577,-0.949,1.070
0.694000,1067345,1000.00,12,0,1,835.127,5.918,5.238,1097.649,-0.949,1.040
0.695000,1067346,1000.00,12,0,1,837.865,7.083,5.217,1098.105,-0.250,1.041
0.696000,1067347,1000.00,12,0,1,836.928,3.107,5.149,1098.009,-0.246,1.038
0.697000,1067348,1000.00,12,0,1,833.685,-1.171,5.142,1097.793,-0.382,1.038
0.698000,1067349,1000.00,12,0,1,833.181,-3.874,5.170,1097.961,-0.193,1.036
0.699000,1067350,1000.00,12,0,1,832.268,-3.988,5.174,1096.688,-0.987,1.042
0.700000,1067351,1000.00,12,0,1,832.220,-4.659,5.182,1096.544,-1.338,1.054
0.701000,1067352,1000.00,12,0,1,831.572,-3.629,5.116,1098.898,0.952,1.059
0.702000,1067353,1000.00,12,0,1,828.737,-5.093,4.675,1098.177,0.858,1.032
0.703000,1067354,1000.00,12,0,1,832.196,-1.153,4.091,1097.168,-0.679,1.037
0.704000,1067355,1000.00,12,0,1,836.544,5.158,3.739,1095.367,-1.671,1.061
0.705000,1067356,1000.00,12,0,1,833.205,3.511,3.613,1098.225,0.058,1.061
0.706000,1067357,1000.00,12,0,1,829.914,0.769,3.579,1096.063,-0.077,1.059
0.707000,1067358,1000.00,12,0,1,829.818,1.821,3.575,1098.730,0.230,1.053
0.708000,1067359,1000.00,12,0,1,828.713,1.951,3.552,1095.871,0.184,1.046
0.709000,1067360,1000.00,12,0,1,827.848,1.325,3.524,1098.321,-0.323,1.045
0.710000,1067361,1000.00,12,0,1,828.545,2.054,3.533,1099.234,2.780,1.115
0.711000,1067362,1000.00,12,0,1,828.329,1.617,3.519,1098.802,0.777,1.119
0.712000,1067363,1000.00,12,0,1,828.209,0.502,3.519,1097.360,0.124,1.116
0.713000,1067364,1000.00,12,0,1,829.962,0.859,3.487,1097.360,-0.481,1.096
0.714000,1067365,1000.00,12,0,1,829.818,-0.157,3.479,1098.009,0.333,1.058
0.715000,1067366,1000.00,12,0,1,833.733,0.867,3.437,1098.561,0.950,1.059
0.716000,1067367,1000.00,12,0,1,839.667,5.097,3.391,1099.546,1.355,1.074
0.717000,1067368,1000.00,12,0,1,837.649,2.015,3.307,1099.210,1.455,1.085
0.718000,1067369,1000.00,12,0,1,837.745,-0.852,3.279,1096.688,-1.288,1.091
0.719000,1067370,1000.00,12,0,1,831.980,-4.865,3.327,1097.865,-0.477,1.083
0.720000,1067371,1000.00,12,0,1,828.929,-9.329,3.500,1099.979,1.696,1.109
0.721000,1067372,1000.00,12,0,1,836.496,-1.233,3.360,1101.060,2.469,1.129
0.722000,1067373,1000.00,12,0,1,842.621,5.848,3.410,1100.699,1.783,1.132
0.723000,1067374,1000.00,12,0,1,842.789,6.199,3.510,1099.138,0.091,1.108
0.724000,1067375,1000.00,12,0,1,846.825,8.854,3.715,1097.889,-1.364,1.114
0.725000,1067376,1000.00,12,0,1,848.915,11.302,4.028,1099.690,0.027,1.113
0.726000,1067377,1000.00,12,0,1,840.243,3.644,4.017,1099.931,0.719,1.061
0.727000,1067378,1000.00,12,0,1,831.860,-4.907,4.048,1098.441,-0.973,1.025
0.728000,1067379,1000.00,12,0,1,825.999,-8.296,4.215,1100.315,0.241,1.021
0.729000,1067380,1000.00,12,0,1,822.684,-10.139,4.448,1099.042,-0.025,1.020
0.730000,1067381,1000.00,12,0,1,821.291,-9.159,4.632,1098.657,-1.420,1.016
0.731000,1067382,1000.00,12,0,1,823.381,-6.446,4.719,1096.015,-2.544,1.072
0.732000,1067383,1000.00,12,0,1,825.086,-3.531,4.696,1096.327,-3.179,1.162
0.733000,1067384,1000.00,12,0,1,825.374,-3.518,4.648,1097.312,-0.905,1.169
0.734000,1067385,1000.00,12,0,1,827.656,-2.135,4.628,1096.496,-1.645,1.191
0.735000,1067386,1000.00,12,0,1,835.751,3.666,4.643,1097.553,-0.656,1.169
0.736000,1067387,1000.00,12,0,1,844.351,9.997,4.853,1098.201,0.513,1.164
0.737000,1067388,1000.00,12,0,1,844.639,8.342,4.993,1097.432,-0.344,1.164
0.738000,1067389,1000.00,12,0,1,841.660,2.463,4.988,1098.177,0.296,1.157
0.739000,1067390,1000.00,12,0,1,840.459,-0.125,4.952,1099.114,1.189,1.165
0.740000,1067391,1000.00,12,0,1,840.243,-1.087,4.944,1098.994,1.080,1.174
0.741000,1067392,1000.00,12,0,1,839.763,-1.320,4.947,1098.898,0.649,1.170
0.742000,1067393,1000.00,12,0,1,834.574,-4.729,4.992,1098.321,0.240,1.158
0.743000,1067394,1000.00,12,0,1,834.190,-4.875,5.040,1098.730,0.219,1.150
0.744000,1067395,1000.00,12,0,1,835.535,-0.785,4.971,1100.027,1.475,1.161
0.745000,1067396,1000.00,12,0,1,830.371,-3.231,4.890,1100.603,1.803,1.189
0.746000,1067397,1000.00,12,0,1,830.611,-2.413,4.883,1098.609,0.053,1.188
0.747000,1067398,1000.00,12,0,1,831.860,1.716,4.886,1096.928,-1.861,1.216
0.748000,1067399,1000.00,12,0,1,837.072,5.978,4.928,1096.640,-1.793,1.241
0.749000,1067400,1000.00,12,0,1,843.918,12.831,5.221,1098.441,-0.148,1.234
0.750000,1067401,1000.00,12,0,1,845.335,12.638,5.479,1098.441,0.494,1.221
0.751000,1067402,1000.00,12,0,1,846.224,10.510,5.654,1098.513,0.090,1.214
0.752000,1067403,1000.00,12,0,1,837.817,2.072,5.615,1098.537,0.408,1.209
0.753000,1067404,1000.00,12,0,1,828.809,-9.376,5.767,1099.018,0.531,1.208
0.754000,1067405,1000.00,12,0,1,831.067,-8.237,5.839,1099.570,1.069,1.194
0.755000,1067406,1000.00,12,0,1,833.349,-5.567,5.870,1098.129,-0.153,1.194
0.756000,1067407,1000.00,12,0,1,837.072,-3.724,5.893,1098.730,-0.263,1.195
0.757000,1067408,1000.00,12,0,1,839.571,-1.370,5.891,1098.778,0.402,1.196
0.758000,1067409,1000.00,12,0,1,840.675,-1.789,5.890,1099.714,0.511,1.197
0.759000,1067410,1000.00,12,0,1,846.200,2.085,5.894,1100.891,1.850,1.225
0.760000,1067411,1000.00,12,0,1,846.128,2.581,5.898,1098.706,-0.205,1.160
0.761000,1067412,1000.00,12,0,1,841.973,-2.247,5.902,1098.489,-1.095,1.165
0.762000,1067413,1000.00,12,0,1,842.861,-1.393,5.905,1097.192,-1.414,1.182
0.763000,1067414,1000.00,12,0,1,844.255,1.219,5.906,1097.480,-1.760,1.206
0.764000,1067415,1000.00,12,0,1,841.156,-0.346,5.906,1098.369,-0.127,1.206
0.765000,1067416,1000.00,12,0,1,836.472,-3.467,5.926,1097.264,-1.058,1.207
0.766000,1067417,1000.00,12,0,1,835.943,-2.748,5.894,1097.360,-1.034,1.201
0.767000,1067418,1000.00,12,0,1,833.085,-2.645,5.899,1096.231,-1.334,1.198
0.768000,1067419,1000.00,12,0,1,833.109,-2.301,5.907,1097.120,-0.976,1.192
0.769000,1067420,1000.00,12,0,1,834.742,1.029,5.869,1099.042,1.430,1.207
0.770000,1067421,1000.00,12,0,1,834.358,0.900,5.720,1099.090,1.349,1.199
0.771000,1067422,1000.00,12,0,1,832.917,-0.455,5.718,1097.096,-0.369,1.148
0.772000,1067423,1000.00,12,0,1,835.175,0.523,5.658,1096.496,-1.276,1.134
0.773000,1067424,1000.00,12,0,1,839.210,3.427,5.611,1096.928,-0.485,1.136
0.774000,1067425,1000.00,12,0,1,842.717,4.871,5.512,1099.378,1.445,1.138
0.775000,1067426,1000.00,12,0,1,848.266,7.161,5.372,1098.874,1.590,1.160
0.776000,1067427,1000.00,12,0,1,851.221,7.857,5.461,1100.483,1.800,1.184
0.777000,1067428,1000.00,12,0,1,846.344,1.143,5.419,1099.042,1.387,1.192
0.778000,1067429,1000.00,12,0,1,837.865,-8.151,5.415,1097.360,-1.249,1.204
0.779000,1067430,1000.00,12,0,1,842.429,-6.042,5.291,1101.132,1.914,1.234
0.780000,1067431,1000.00,12,0,1,849.539,2.374,5.141,1099.138,1.246,1.231
0.781000,1067432,1000.00,12,0,1,845.263,-0.970,5.062,1098.297,-1.212,1.189
0.782000,1067433,1000.00,12,0,1,841.852,-4.646,5.080,1098.657,0.194,1.101
0.783000,1067434,1000.00,12,0,1,840.195,-4.031,5.087,1098.345,-0.644,1.098
0.784000,1067435,1000.00,12,0,1,838.418,-4.226,5.113,1099.618,0.675,1.077
0.785000,1067436,1000.00,12,0,1,837.168,-3.083,5.106,1099.186,0.508,1.075
0.786000,1067437,1000.00,12,0,1,833.421,-4.190,4.942,1098.561,-0.437,1.075
0.787000,1067438,1000.00,12,0,1,828.137,-6.880,4.896,1097.841,-0.763,1.079
0.788000,1067439,1000.00,12,0,1,822.035,-9.820,5.078,1096.736,-1.787,1.107
0.789000,1067440,1000.00,12,0,1,823.693,-7.080,5.175,1097.697,-0.851,1.101
0.790000,1067441,1000.00,12,0,1,826.984,-1.220,5.176,1096.856,-0.930,1.098
0.791000,1067442,1000.00,12,0,1,831.980,2.942,5.189,1097.168,-1.076,1.105
0.792000,1067443,1000.00,12,0,1,834.262,5.492,5.204,1098.201,0.371,1.106
0.793000,1067444,1000.00,12,0,1,834.358,3.627,5.184,1099.642,1.346,1.122
0.794000,1067445,1000.00,12,0,1,840.627,6.812,5.271,1097.793,0.161,1.102
0.795000,1067446,1000.00,12,0,1,848.674,12.221,5.529,1098.778,-0.065,1.072
0.796000,1067447,1000.00,12,0,1,847.690,9.022,5.664,1099.690,1.500,1.093
0.797000,1067448,1000.00,12,0,1,848.026,5.197,5.706,1097.504,-0.738,1.066
0.798000,1067449,1000.00,12,0,1,850.068,5.444,5.695,1098.802,-0.231,1.036
0.799000,1067450,1000.00,12,0,1,853.671,6.268,5.471,1098.321,0.336,1.037
0.800000,1067451,1000.00,12,0,1,850.164,3.089,5.189,1099.762,0.465,1.037
0.801000,1067452,1000.00,12,0,1,845.311,-2.926,4.989,1097.144,-0.405,1.038
0.802000,1067453,1000.00,12,0,1,842.669,-4.264,5.017,1097.577,-1.633,1.062
0.803000,1067454,1000.00,12,0,1,836.208,-7.907,4.966,1098.417,0.631,1.063
0.804000,1067455,1000.00,12,0,1,831.692,-10.405,5.046,1097.817,-0.452,1.054
0.805000,1067456,1000.00,12,0,1,833.421,-5.840,5.053,1097.577,-0.346,1.055
0.806000,1067457,1000.00,12,0,1,831.259,-4.275,5.061,1097.384,-0.402,1.056
0.807000,1067458,1000.00,12,0,1,831.812,-2.734,5.072,1096.784,-0.826,1.061
0.808000,1067459,1000.00,12,0,1,837.745,4.217,5.101,1099.402,1.288,1.074
0.809000,1067460,1000.00,12,0,1,838.826,6.261,5.169,1097.961,0.831,1.048
0.810000,1067461,1000.00,12,0,1,836.616,3.056,5.174,1096.039,-1.690,1.075
0.811000,1067462,1000.00,12,0,1,832.388,-1.118,5.167,1097.961,0.065,1.064
0.812000,1067463,1000.00,12,0,1,833.998,-1.785,5.169,1096.544,-0.306,1.046
0.813000,1067464,1000.00,12,0,1,835.463,-0.148,5.166,1096.928,-1.007,1.025
0.814000,1067465,1000.00,12,0,1,837.553,-0.568,5.167,1096.688,-0.079,1.025
0.815000,1067466,1000.00,12,0,1,841.997,2.245,5.153,1098.994,0.852,1.021
0.816000,1067467,1000.00,12,0,1,844.951,3.246,5.159,1099.066,2.022,1.051
0.817000,1067468,1000.00,12,0,1,843.894,0.806,5.147,1097.913,-0.070,1.034
0.818000,1067469,1000.00,12,0,1,844.543,-0.439,5.137,1099.042,0.941,1.033
0.819000,1067470,1000.00,12,0,1,849.947,3.426,5.158,1098.730,0.852,1.020
0.820000,1067471,1000.00,12,0,1,852.157,5.614,5.217,1098.177,-0.127,1.002
0.821000,1067472,1000.00,12,0,1,843.654,-1.791,5.222,1096.976,-0.769,1.007
0.822000,1067473,1000.00,12,0,1,842.309,-4.222,5.256,1099.738,0.852,0.998
0.823000,1067474,1000.00,12,0,1,845.408,1.226,5.236,1100.939,2.954,1.080
0.824000,1067475,1000.00,12,0,1,849.827,5.622,5.251,1099.594,0.871,1.067
0.825000,1067476,1000.00,12,0,1,848.314,6.193,5.227,1098.657,0.011,1.043
0.826000,1067477,1000.00,12,0,1,842.261,0.614,5.108,1099.378,0.309,1.013
0.827000,1067478,1000.00,12,0,1,835.343,-4.532,5.146,1097.673,-0.649,0.998
0.828000,1067479,1000.00,12,0,1,833.613,-5.498,5.075,1098.561,-0.666,0.986
0.829000,1067480,1000.00,12,0,1,833.133,-4.089,5.036,1097.937,-0.225,0.949
0.830000,1067481,1000.00,12,0,1,835.799,-1.676,5.030,1098.465,-0.570,0.936
0.831000,1067482,1000.00,12,0,1,832.052,-3.554,5.053,1100.171,1.355,0.940
0.832000,1067483,1000.00,12,0,1,833.037,-4.886,5.058,1099.162,0.460,0.942
0.833000,1067484,1000.00,12,0,1,839.426,1.039,5.028,1099.138,-0.290,0.938
0.834000,1067485,1000.00,12,0,1,837.457,-0.992,4.994,1099.498,0.366,0.935
0.835000,1067486,1000.00,12,0,1,833.037,-7.168,5.077,1097.048,-1.886,0.969
0.836000,1067487,1000.00,12,0,1,834.382,-6.530,5.126,1098.922,-0.864,0.975
0.837000,1067488,1000.00,12,0,1,834.790,-5.770,5.099,1098.393,-0.169,0.970
0.838000,1067489,1000.00,12,0,1,838.586,-2.989,4.924,1098.898,-0.742,0.942
0.839000,1067490,1000.00,12,0,1,844.903,3.136,4.842,1098.657,-0.054,0.934
0.840000,1067491,1000.00,12,0,1,849.011,6.775,4.933,1094.958,-3.347,1.039
0.841000,1067492,1000.00,12,0,1,849.275,6.729,5.006,1097.384,-1.795,1.059
0.842000,1067493,1000.00,12,0,1,846.152,3.949,4.977,1099.258,1.455,1.077
0.843000,1067494,1000.00,12,0,1,840.868,-0.260,4.951,1097.697,-0.408,1.062
0.844000,1067495,1000.00,12,0,1,841.636,0.853,4.858,1096.736,-1.048,1.072
0.845000,1067496,1000.00,12,0,1,845.936,6.476,4.631,1096.760,-0.943,1.080
0.846000,1067497,1000.00,12,0,1,852.253,12.200,4.774,1097.841,0.269,1.060
0.847000,1067498,1000.00,12,0,1,849.971,11.118,4.973,1097.841,0.600,1.058
0.848000,1067499,1000.00,12,0,1,843.510,3.485,4.937,1097.985,0.472,1.060
0.849000,1067500,1000.00,12,0,1,841.276,0.786,4.858,1097.288,0.174,1.059
0.850000,1067501,1000.00,12,0,1,843.678,2.283,4.850,1099.258,1.243,1.071
0.851000,1067502,1000.00,12,0,1,842.621,1.179,4.835,1096.976,0.297,1.071
0.852000,1067503,1000.00,12,0,1,840.027,-2.826,4.814,1096.231,-1.686,1.072
0.853000,1067504,1000.00,12,0,1,842.261,-2.482,4.695,1098.561,1.071,1.079
0.854000,1067505,1000.00,12,0,1,845.119,-0.668,4.459,1098.177,0.873,1.084
0.855000,1067506,1000.00,12,0,1,844.999,-2.426,4.396,1097.192,-0.431,1.085
0.856000,1067507,1000.00,12,0,1,842.141,-6.052,4.437,1096.520,-0.793,1.089
0.857000,1067508,1000.00,12,0,1,840.483,-8.726,4.589,1096.928,-0.652,1.087
0.858000,1067509,1000.00,12,0,1,842.477,-6.912,4.654,1098.657,1.140,1.084
0.859000,1067510,1000.00,12,0,1,839.619,-8.040,4.709,1099.450,1.797,1.107
0.860000,1067511,1000.00,12,0,1,837.433,-9.851,4.891,1098.754,1.061,1.091
0.861000,1067512,1000.00,12,0,1,838.610,-6.644,4.978,1098.585,0.486,1.093
0.862000,1067513,1000.00,12,0,1,836.904,-5.658,5.036,1101.132,2.437,1.145
0.863000,1067514,1000.00,12,0,1,835.991,-4.755,5.081,1100.651,2.363,1.185
0.864000,1067515,1000.00,12,0,1,838.874,0.142,5.080,1101.612,1.938,1.216
0.865000,1067516,1000.00,12,0,1,846.681,8.333,5.205,1097.553,-0.606,1.213
0.866000,1067517,1000.00,12,0,1,850.668,13.488,5.525,1097.889,-2.159,1.218
0.867000,1067518,1000.00,12,0,1,840.003,4.576,5.561,1098.922,0.389,1.219
0.868000,1067519,1000.00,12,0,1,830.491,-5.370,5.612,1097.000,-1.732,1.236
0.869000,1067520,1000.00,12,0,1,830.202,-4.349,5.625,1097.432,-1.414,1.246
0.870000,1067521,1000.00,12,0,1,831.764,-1.574,5.573,1100.435,1.490,1.264
0.871000,1067522,1000.00,12,0,1,834.022,0.639,5.568,1100.819,1.967,1.290
0.872000,1067523,1000.00,12,0,1,842.981,7.358,5.633,1099.714,0.535,1.286
0.873000,1067524,1000.00,12,0,1,843.005,7.722,5.735,1101.924,1.643,1.238
0.874000,1067525,1000.00,12,0,1,843.342,3.698,5.704,1098.682,-0.185,1.233
0.875000,1067526,1000.00,12,0,1,845.432,4.562,5.673,1098.778,-2.059,1.266
0.876000,1067527,1000.00,12,0,1,844.375,1.343,5.676,1097.913,-1.091,1.275
0.877000,1067528,1000.00,12,0,1,843.438,-1.248,5.642,1098.513,-1.821,1.298
0.878000,1067529,1000.00,12,0,1,851.124,3.552,5.611,1098.970,-0.228,1.295
0.879000,1067530,1000.00,12,0,1,851.173,4.493,5.617,1097.529,-1.794,1.319
0.880000,1067531,1000.00,12,0,1,844.831,-2.994,5.628,1098.417,-1.080,1.325
0.881000,1067532,1000.00,12,0,1,841.540,-5.811,5.666,1098.129,-0.517,1.313
0.882000,1067533,1000.00,12,0,1,845.167,-1.828,5.629,1098.369,-0.833,1.317
0.883000,1067534,1000.00,12,0,1,848.458,2.972,5.643,1099.859,1.043,1.325
0.884000,1067535,1000.00,12,0,1,852.109,6.487,5.715,1097.937,-0.478,1.325
0.885000,1067536,1000.00,12,0,1,853.406,8.319,5.746,1095.415,-2.795,1.357
0.886000,1067537,1000.00,12,0,1,849.827,5.161,5.718,1099.162,0.172,1.352
0.887000,1067538,1000.00,12,0,1,845.263,0.632,5.661,1098.706,1.385,1.366
0.888000,1067539,1000.00,12,0,1,840.651,-2.787,5.659,1097.048,-1.249,1.373
0.889000,1067540,1000.00,12,0,1,839.979,-3.618,5.664,1099.594,1.252,1.384
0.890000,1067541,1000.00,12,0,1,842.045,-0.878,5.584,1097.336,0.058,1.301
0.891000,1067542,1000.00,12,0,1,844.519,0.797,5.504,1094.814,-3.027,1.346
0.892000,1067543,1000.00,12,0,1,844.855,0.669,5.476,1096.688,-0.905,1.336
0.893000,1067544,1000.00,12,0,1,843.078,-2.334,5.486,1098.393,1.037,1.343
0.894000,1067545,1000.00,12,0,1,844.423,-2.759,5.498,1099.186,1.653,1.355
0.895000,1067546,1000.00,12,0,1,849.827,0.798,5.423,1100.003,2.090,1.380
0.896000,1067547,1000.00,12,0,1,851.581,1.502,5.145,1100.651,2.354,1.419
0.897000,1067548,1000.00,12,0,1,852.518,0.083,4.899,1099.258,0.959,1.423
0.898000,1067549,1000.00,12,0,1,853.118,-0.282,4.874,1098.730,-0.150,1.422
0.899000,1067550,1000.00,12,0,1,853.911,-0.760,4.874,1099.282,0.452,1.423
0.900000,1067551,1000.00,12,0,1,851.148,-2.878,4.881,1097.937,-0.589,1.415
0.901000,1067552,1000.00,12,0,1,849.923,-4.432,4.918,1098.802,-0.332,1.415
0.902000,1067553,1000.00,12,0,1,845.792,-5.926,4.973,1099.042,0.576,1.397
0.903000,1067554,1000.00,12,0,1,836.424,-12.416,5.262,1097.985,-0.666,1.392
0.904000,1067555,1000.00,12,0,1,829.194,-16.211,5.739,1098.129,-0.462,1.388
0.905000,1067556,1000.00,12,0,1,827.416,-13.817,6.053,1099.907,1.095,1.395
0.906000,1067557,1000.00,12,0,1,827.056,-9.869,6.152,1098.441,0.322,1.392
0.907000,1067558,1000.00,12,0,1,827.824,-5.796,6.083,1098.802,-0.239,1.389
0.908000,1067559,1000.00,12,0,1,828.809,-2.160,6.012,1098.898,0.553,1.382
0.909000,1067560,1000.00,12,0,1,827.344,-1.355,5.906,1098.177,-0.504,1.360
0.910000,1067561,1000.00,12,0,1,838.057,6.989,5.824,1096.736,-1.476,1.368
0.911000,1067562,1000.00,12,0,1,847.738,17.135,6.238,1097.408,-1.164,1.376
0.912000,1067563,1000.00,12,0,1,850.308,15.961,6.585,1098.393,0.199,1.332
0.913000,1067564,1000.00,12,0,1,849.635,12.419,6.782,1098.345,0.119,1.290
0.914000,1067565,1000.00,12,0,1,847.185,6.726,6.848,1098.826,0.302,1.261
0.915000,1067566,1000.00,12,0,1,843.702,1.113,6.748,1100.051,1.363,1.273
0.916000,1067567,1000.00,12,0,1,845.023,-0.119,6.473,1099.210,0.590,1.239
0.917000,1067568,1000.00,12,0,1,849.467,2.824,6.453,1099.762,0.460,1.239
0.918000,1067569,1000.00,12,0,1,853.142,5.014,6.447,1097.504,-0.910,1.221
0.919000,1067570,1000.00,12,0,1,856.721,6.632,6.486,1097.312,-1.929,1.235
0.920000,1067571,1000.00,12,0,1,858.163,7.178,6.561,1099.498,0.660,1.221
0.921000,1067572,1000.00,12,0,1,859.724,6.945,6.634,1101.516,2.329,1.234
0.922000,1067573,1000.00,12,0,1,854.752,3.197,6.567,1099.810,1.054,1.240
0.923000,1067574,1000.00,12,0,1,848.482,-3.371,6.493,1097.937,-1.247,1.231
0.924000,1067575,1000.00,12,0,1,852.854,0.842,6.473,1098.898,-0.385,1.232
0.925000,1067576,1000.00,12,0,1,852.518,3.253,6.457,1096.327,-1.704,1.221
0.926000,1067577,1000.00,12,0,1,852.830,2.244,6.462,1096.231,-2.619,1.267
0.927000,1067578,1000.00,12,0,1,850.284,1.833,6.465,1098.778,0.679,1.244
0.928000,1067579,1000.00,12,0,1,845.504,-3.358,6.463,1099.642,1.425,1.260
0.929000,1067580,1000.00,12,0,1,843.774,-4.512,6.463,1098.177,0.248,1.234
0.930000,1067581,1000.00,12,0,1,843.630,-4.431,6.480,1099.162,0.399,1.226
0.931000,1067582,1000.00,12,0,1,846.296,-2.605,6.438,1098.850,0.747,1.229
0.932000,1067583,1000.00,12,0,1,847.065,-1.839,6.438,1098.585,-0.195,1.223
0.933000,1067584,1000.00,12,0,1,843.318,-6.302,6.486,1099.330,0.589,1.217
0.934000,1067585,1000.00,12,0,1,842.477,-8.243,6.526,1097.480,-0.850,1.221
0.935000,1067586,1000.00,12,0,1,842.237,-8.286,6.525,1097.264,-1.658,1.179
0.936000,1067587,1000.00,12,0,1,843.942,-7.320,6.566,1097.697,-0.580,1.182
0.937000,1067588,1000.00,12,0,1,840.555,-8.932,6.686,1099.210,0.342,1.166
0.938000,1067589,1000.00,12,0,1,842.261,-8.439,6.780,1098.321,0.300,1.154
0.939000,1067590,1000.00,12,0,1,849.107,-0.518,6.761,1098.081,-0.693,1.144
0.940000,1067591,1000.00,12,0,1,853.358,3.948,6.783,1098.609,0.311,1.145
0.941000,1067592,1000.00,12,0,1,854.127,4.886,6.817,1099.690,0.974,1.071
0.942000,1067593,1000.00,12,0,1,859.412,8.813,6.929,1100.891,2.113,1.104
0.943000,1067594,1000.00,12,0,1,860.204,10.630,7.083,1098.537,0.223,1.095
0.944000,1067595,1000.00,12,0,1,856.073,6.104,7.125,1098.321,-0.857,1.077
0.945000,1067596,1000.00,12,0,1,854.151,4.123,7.148,1099.162,0.618,1.039
0.946000,1067597,1000.00,12,0,1,858.187,7.588,7.225,1098.682,-0.017,0.984
0.947000,1067598,1000.00,12,0,1,858.931,8.907,7.333,1099.738,0.783,0.981
0.948000,1067599,1000.00,12,0,1,853.863,3.628,7.351,1099.258,0.677,0.985
0.949000,1067600,1000.00,12,0,1,850.572,-0.542,7.351,1097.120,-1.464,1.005
0.950000,1067601,1000.00,12,0,1,849.563,-1.461,7.343,1097.745,-1.120,1.014
0.951000,1067602,1000.00,12,0,1,852.325,-0.192,7.316,1099.931,1.116,1.025
0.952000,1067603,1000.00,12,0,1,851.004,-1.014,7.269,1100.459,1.606,1.047
0.953000,1067604,1000.00,12,0,1,844.567,-8.205,7.149,1098.778,-0.101,1.043
0.954000,1067605,1000.00,12,0,1,842.189,-11.164,6.953,1101.156,1.092,1.052
0.955000,1067606,1000.00,12,0,1,843.582,-9.561,6.808,1103.005,3.229,1.136
0.956000,1067607,1000.00,12,0,1,847.473,-6.120,6.719,1101.180,0.963,1.143
0.957000,1067608,1000.00,12,0,1,850.476,-3.021,6.683,1099.234,-1.265,1.157
0.958000,1067609,1000.00,12,0,1,853.310,-1.157,6.678,1098.874,-1.666,1.178
0.959000,1067610,1000.00,12,0,1,859.003,3.364,6.692,1097.841,-2.188,1.216
0.960000,1067611,1000.00,12,0,1,864.288,7.650,6.707,1099.498,-0.959,1.206
0.961000,1067612,1000.00,12,0,1,863.495,6.501,6.321,1100.171,0.452,1.196
0.962000,1067613,1000.00,12,0,1,861.886,3.745,5.928,1101.060,0.720,1.200
0.963000,1067614,1000.00,12,0,1,858.355,1.236,5.664,1100.651,0.780,1.205
0.964000,1067615,1000.00,12,0,1,857.082,-0.146,5.584,1100.771,0.307,1.205
0.965000,1067616,1000.00,12,0,1,853.046,-1.564,5.586,1099.402,-0.444,1.191
0.966000,1067617,1000.00,12,0,1,847.714,-5.557,5.641,1098.441,-1.670,1.211
0.967000,1067618,1000.00,12,0,1,850.116,-2.319,5.636,1099.330,-0.643,1.213
0.968000,1067619,1000.00,12,0,1,848.746,-0.584,5.592,1097.841,-1.319,1.221
0.969000,1067620,1000.00,12,0,1,849.227,-0.951,5.514,1098.850,-1.106,1.200
0.970000,1067621,1000.00,12,0,1,848.482,0.259,5.420,1101.060,1.616,1.218
0.971000,1067622,1000.00,12,0,1,849.347,-0.421,5.331,1101.204,1.412,1.189
0.972000,1067623,1000.00,12,0,1,849.707,0.433,5.312,1099.522,-0.133,1.180
0.973000,1067624,1000.00,12,0,1,848.722,-1.833,5.297,1100.579,0.040,1.167
0.974000,1067625,1000.00,12,0,1,848.482,-2.878,5.311,1098.922,-0.564,1.168
0.975000,1067626,1000.00,12,0,1,850.044,-2.498,5.303,1098.105,-2.179,1.184
0.976000,1067627,1000.00,12,0,1,852.782,-1.020,5.296,1099.498,-0.383,1.126
0.977000,1067628,1000.00,12,0,1,853.935,-0.543,5.290,1099.738,0.013,1.122
0.978000,1067629,1000.00,12,0,1,853.983,-1.627,5.273,1099.690,-0.171,1.104
0.979000,1067630,1000.00,12,0,1,853.238,-2.348,5.245,1098.561,-0.812,1.109
0.980000,1067631,1000.00,12,0,1,853.647,-2.312,5.218,1097.529,-1.890,1.140
0.981000,1067632,1000.00,12,0,1,855.736,0.270,5.205,1098.730,-0.524,1.137
0.982000,1067633,1000.00,12,0,1,856.025,1.386,5.202,1099.690,0.698,1.141
0.983000,1067634,1000.00,12,0,1,858.619,3.827,5.154,1097.841,-0.589,1.141
0.984000,1067635,1000.00,12,0,1,856.001,3.419,5.043,1098.081,-0.850,1.141
0.985000,1067636,1000.00,12,0,1,847.161,-3.840,4.935,1098.754,0.493,1.119
0.986000,1067637,1000.00,12,0,1,839.787,-8.822,4.984,1099.138,0.605,1.119
0.987000,1067638,1000.00,12,0,1,842.789,-4.627,4.866,1097.000,-0.726,1.123
0.988000,1067639,1000.00,12,0,1,844.279,0.322,4.717,1098.129,-0.521,1.124
0.989000,1067640,1000.00,12,0,1,844.879,1.000,4.719,1098.009,0.501,1.122
0.990000,1067641,1000.00,12,0,1,844.110,1.565,4.691,1098.850,0.394,1.123
0.991000,1067642,1000.00,12,0,1,845.119,1.578,4.645,1098.874,1.073,1.125
0.992000,1067643,1000.00,12,0,1,846.464,2.721,4.491,1099.210,0.705,1.089
0.993000,1067644,1000.00,12,0,1,841.228,-2.220,4.244,1098.850,0.634,1.092
0.994000,1067645,1000.00,12,0,1,837.144,-7.543,4.290,1100.531,1.449,1.105
0.995000,1067646,1000.00,12,0,1,842.765,-3.021,4.272,1100.459,1.756,1.129
0.996000,1067647,1000.00,12,0,1,843.222,-1.469,4.140,1100.531,1.015,1.138
0.997000,1067648,1000.00,12,0,1,844.134,-2.557,3.960,1098.153,-0.695,1.137
0.998000,1067649,1000.00,12,0,1,852.974,4.725,3.983,1098.441,-1.260,1.147
0.999000,1067650,1000.00,12,0,1,862.510,12.570,4.361,1099.570,0.452,1.130
1.000000,1067651,1000.00,12,0,1,865.849,13.971,4.783,1098.850,-0.161,1.119
1.001000,1067652,1000.00,12,0,1,862.919,9.491,4.968,1098.009,-1.003,1.116
1.002000,1067653,1000.00,12,0,1,858.283,3.710,4.994,1099.931,0.677,1.097
1.003000,1067654,1000.00,12,0,1,856.313,1.607,4.862,1097.913,-0.314,1.098
1.004000,1067655,1000.00,12,0,1,852.133,-0.930,4.601,1099.883,0.246,1.088
1.005000,1067656,1000.00,12,0,1,845.840,-5.404,4.463,1100.219,1.819,1.020
1.006000,1067657,1000.00,12,0,1,843.222,-6.193,4.465,1098.345,-0.641,1.015
1.007000,1067658,1000.00,12,0,1,842.621,-4.162,4.484,1097.697,-1.115,1.012
1.008000,1067659,1000.00,12,0,1,840.868,-3.761,4.512,1098.129,-0.613,0.988
1.009000,1067660,1000.00,12,0,1,838.009,-4.651,4.535,1098.970,0.150,0.938
1.010000,1067661,1000.00,12,0,1,838.706,-3.389,4.430,1099.594,0.852,0.936
1.011000,1067662,1000.00,12,0,1,841.108,-0.199,4.334,1099.234,0.296,0.935
1.012000,1067663,1000.00,12,0,1,845.768,3.192,4.325,1096.760,-1.643,0.958
1.013000,1067664,1000.00,12,0,1,849.683,5.974,4.403,1096.352,-2.527,1.016
1.014000,1067665,1000.00,12,0,1,850.956,5.005,4.460,1097.216,-0.977,1.025
1.015000,1067666,1000.00,12,0,1,857.490,7.512,4.579,1099.402,0.702,1.028
1.016000,1067667,1000.00,12,0,1,858.451,7.305,4.628,1100.099,1.838,1.033
1.017000,1067668,1000.00,12,0,1,852.974,-0.884,4.618,1100.003,1.136,1.042
1.018000,1067669,1000.00,12,0,1,851.869,-3.835,4.649,1099.282,0.565,1.028
1.019000,1067670,1000.00,12,0,1,854.175,-2.149,4.657,1098.417,-0.458,1.018
1.020000,1067671,1000.00,12,0,1,851.269,-4.008,4.691,1099.570,0.402,0.994
1.021000,1067672,1000.00,12,0,1,846.945,-7.714,4.816,1099.618,0.898,0.982
1.022000,1067673,1000.00,12,0,1,849.203,-4.654,4.860,1098.657,-0.286,0.982
1.023000,1067674,1000.00,12,0,1,852.013,0.400,4.854,1100.219,0.946,0.992
1.024000,1067675,1000.00,12,0,1,854.535,3.535,4.862,1101.540,2.311,1.041
1.025000,1067676,1000.00,12,0,1,854.535,5.204,4.905,1101.540,1.961,1.032
1.026000,1067677,1000.00,12,0,1,852.109,3.407,4.927,1097.529,-1.371,1.049
1.027000,1067678,1000.00,12,0,1,848.770,1.305,4.929,1097.529,-2.396,1.102
1.028000,1067679,1000.00,12,0,1,849.371,1.816,4.931,1099.642,0.471,1.104
1.029000,1067680,1000.00,12,0,1,852.542,5.201,4.974,1100.027,0.685,1.102
1.030000,1067681,1000.00,12,0,1,854.247,6.242,5.041,1098.706,-0.435,1.071
1.031000,1067682,1000.00,12,0,1,854.752,5.247,5.096,1099.474,-0.258,1.069
1.032000,1067683,1000.00,12,0,1,852.950,2.250,5.102,1100.387,0.850,1.071
1.033000,1067684,1000.00,12,0,1,855.208,1.483,5.077,1099.883,0.206,1.069
1.034000,1067685,1000.00,12,0,1,859.580,4.033,5.086,1099.426,-0.487,1.064
1.035000,1067686,1000.00,12,0,1,861.381,3.242,5.078,1099.859,-0.144,1.062
1.036000,1067687,1000.00,12,0,1,859.844,-0.217,4.922,1100.483,0.302,1.059
1.037000,1067688,1000.00,12,0,1,860.493,-2.161,4.888,1099.234,-0.575,1.057
1.038000,1067689,1000.00,12,0,1,862.102,-1.567,4.893,1100.723,-0.006,1.055
1.039000,1067690,1000.00,12,0,1,861.814,-2.635,4.905,1097.048,-1.826,1.084
1.040000,1067691,1000.00,12,0,1,858.931,-5.254,4.956,1097.889,-2.729,1.149
1.041000,1067692,1000.00,12,0,1,856.697,-6.940,5.047,1099.690,0.718,1.143
1.042000,1067693,1000.00,12,0,1,856.289,-5.952,5.103,1099.810,0.231,1.140
1.043000,1067694,1000.00,12,0,1,855.712,-4.529,5.133,1098.273,-0.559,1.139
1.044000,1067695,1000.00,12,0,1,851.197,-6.213,5.097,1098.537,-0.777,1.126
1.045000,1067696,1000.00,12,0,1,846.705,-8.307,5.214,1098.081,-0.471,1.100
1.046000,1067697,1000.00,12,0,1,847.810,-5.136,5.260,1100.387,1.034,1.100
1.047000,1067698,1000.00,12,0,1,847.978,-1.907,5.254,1100.939,2.206,1.139
1.048000,1067699,1000.00,12,0,1,849.323,0.029,5.212,1098.754,-0.150,1.126
1.049000,1067700,1000.00,12,0,1,855.520,6.216,4.977,1097.841,-1.318,1.139
1.050000,1067701,1000.00,12,0,1,862.198,11.715,4.860,1098.922,-0.116,1.139
1.051000,1067702,1000.00,12,0,1,860.685,9.357,4.854,1098.609,-0.208,1.131
1.052000,1067703,1000.00,12,0,1,859.243,4.569,4.869,1101.468,1.729,1.153
1.053000,1067704,1000.00,12,0,1,858.931,2.757,4.879,1099.690,1.060,1.162
1.054000,1067705,1000.00,12,0,1,858.571,0.113,4.878,1098.441,-1.373,1.177
1.055000,1067706,1000.00,12,0,1,853.070,-5.468,4.879,1098.802,-0.454,1.150
1.056000,1067707,1000.00,12,0,1,852.446,-8.280,4.941,1099.642,0.062,1.147
1.057000,1067708,1000.00,12,0,1,856.745,-3.940,4.937,1099.330,0.082,1.136
1.058000,1067709,1000.00,12,0,1,856.769,-3.487,4.933,1099.859,0.221,1.133
1.059000,1067710,1000.00,12,0,1,856.433,-4.327,4.927,1097.384,-1.350,1.149
1.060000,1067711,1000.00,12,0,1,854.007,-5.002,4.954,1099.859,-0.185,1.143
1.061000,1067712,1000.00,12,0,1,854.295,-4.698,4.999,1102.189,3.015,1.219
1.062000,1067713,1000.00,12,0,1,853.430,-2.723,4.993,1100.291,0.923,1.204
1.063000,1067714,1000.00,12,0,1,855.784,-0.330,4.921,1099.786,-0.146,1.150
1.064000,1067715,1000.00,12,0,1,857.058,3.483,4.895,1102.285,2.081,1.179
1.065000,1067716,1000.00,12,0,1,856.697,3.493,4.804,1098.922,-0.270,1.175
1.066000,1067717,1000.00,12,0,1,850.764,0.154,4.691,1097.288,-2.810,1.213
1.067000,1067718,1000.00,12,0,1,845.864,-4.152,4.726,1096.327,-2.551,1.255
1.068000,1067719,1000.00,12,0,1,845.311,-3.001,4.714,1098.585,-0.986,1.261
1.069000,1067720,1000.00,12,0,1,844.711,-2.022,4.713,1100.531,1.694,1.282
1.070000,1067721,1000.00,12,0,1,845.912,-0.774,4.680,1098.802,0.061,1.280
1.071000,1067722,1000.00,12,0,1,848.554,2.083,4.561,1099.979,0.273,1.275
1.072000,1067723,1000.00,12,0,1,851.509,3.726,4.544,1099.162,0.501,1.276
1.073000,1067724,1000.00,12,0,1,853.839,4.843,4.595,1098.033,-1.472,1.286
1.074000,1067725,1000.00,12,0,1,851.701,1.544,4.573,1098.850,-0.275,1.244
1.075000,1067726,1000.00,12,0,1,849.995,-1.906,4.521,1099.450,0.161,1.213
1.076000,1067727,1000.00,12,0,1,850.836,-2.029,4.505,1097.721,-0.993,1.206
1.077000,1067728,1000.00,12,0,1,851.076,-2.163,4.511,1098.225,-1.112,1.168
1.078000,1067729,1000.00,12,0,1,846.657,-5.790,4.578,1099.090,0.357,1.167
1.079000,1067730,1000.00,12,0,1,846.320,-6.554,4.612,1099.642,0.600,1.166
1.080000,1067731,1000.00,12,0,1,848.915,-2.416,4.540,1098.441,-0.104,1.165
1.081000,1067732,1000.00,12,0,1,849.395,-0.725,4.480,1099.330,0.131,1.164
1.082000,1067733,1000.00,12,0,1,851.437,1.851,4.476,1099.570,0.972,1.166
1.083000,1067734,1000.00,12,0,1,853.599,5.191,4.531,1100.051,0.914,1.173
1.084000,1067735,1000.00,12,0,1,854.968,6.824,4.598,1100.723,1.639,1.194
1.085000,1067736,1000.00,12,0,1,857.970,9.647,4.774,1098.561,-0.135,1.193
1.086000,1067737,1000.00,12,0,1,860.060,11.455,5.041,1100.435,0.509,1.195
1.087000,1067738,1000.00,12,0,1,856.121,7.739,5.150,1098.465,0.245,1.193
1.088000,1067739,1000.00,12,0,1,851.581,2.335,5.155,1098.898,-1.039,1.202
1.089000,1067740,1000.00,12,0,1,848.987,-0.066,5.142,1098.417,0.070,1.174
1.090000,1067741,1000.00,12,0,1,852.085,1.677,5.093,1097.312,-1.784,1.137
1.091000,1067742,1000.00,12,0,1,853.527,3.349,5.020,1097.697,-0.896,1.139
1.092000,1067743,1000.00,12,0,1,853.551,1.479,4.954,1099.931,0.897,1.146
1.093000,1067744,1000.00,12,0,1,854.199,0.882,4.914,1099.138,0.726,1.148
1.094000,1067745,1000.00,12,0,1,855.208,0.176,4.835,1099.378,0.114,1.143
1.095000,1067746,1000.00,12,0,1,854.031,-1.952,4.698,1097.889,-0.612,1.144
1.096000,1067747,1000.00,12,0,1,854.824,-2.935,4.660,1098.922,-0.508,1.137
1.097000,1067748,1000.00,12,0,1,856.529,-1.893,4.660,1099.835,0.979,1.102
1.098000,1067749,1000.00,12,0,1,857.034,-2.034,4.669,1100.579,1.146,1.113
1.099000,1067750,1000.00,12,0,1,858.331,-1.499,4.590,1099.402,0.324,1.099
1.100000,1067751,1000.00,12,0,1,851.965,-5.738,4.357,1098.177,-1.119,1.110
1.101000,1067752,1000.00,12,0,1,848.963,-9.311,4.355,1099.594,0.008,1.110
1.102000,1067753,1000.00,12,0,1,850.956,-4.841,4.361,1099.402,0.536,1.085
1.103000,1067754,1000.00,12,0,1,855.472,0.227,4.343,1098.706,-0.612,1.078
1.104000,1067755,1000.00,12,0,1,864.048,8.823,4.519,1099.450,0.353,1.062
1.105000,1067756,1000.00,12,0,1,855.712,4.092,4.490,1098.321,-0.424,1.061
1.106000,1067757,1000.00,12,0,1,842.549,-9.381,4.533,1095.583,-2.678,1.127
1.107000,1067758,1000.00,12,0,1,843.390,-7.283,4.615,1098.129,-0.845,1.133
1.108000,1067759,1000.00,12,0,1,847.882,-0.636,4.589,1098.561,0.967,1.141
1.109000,1067760,1000.00,12,0,1,850.908,2.774,4.565,1101.180,1.977,1.159
1.110000,1067761,1000.00,12,0,1,851.076,3.308,4.534,1097.817,0.565,1.161
1.111000,1067762,1000.00,12,0,1,847.834,-0.198,4.485,1099.162,-0.610,1.084
1.112000,1067763,1000.00,12,0,1,850.716,0.772,4.470,1099.258,1.371,1.093
1.113000,1067764,1000.00,12,0,1,851.749,2.131,4.480,1099.738,0.229,1.094
1.114000,1067765,1000.00,12,0,1,856.961,3.861,4.486,1100.603,1.595,1.077
1.115000,1067766,1000.00,12,0,1,863.399,8.958,4.636,1099.354,0.141,1.077
1.116000,1067767,1000.00,12,0,1,859.916,4.180,4.673,1099.642,-0.228,1.001
1.117000,1067768,1000.00,12,0,1,855.304,-2.687,4.652,1098.922,-0.201,0.934
1.118000,1067769,1000.00,12,0,1,858.883,-0.677,4.633,1098.249,-1.494,0.948
1.119000,1067770,1000.00,12,0,1,858.643,-0.066,4.624,1098.201,-0.846,0.925
1.120000,1067771,1000.00,12,0,1,855.833,-3.336,4.647,1099.594,-0.036,0.925
1.121000,1067772,1000.00,12,0,1,852.854,-5.008,4.691,1099.066,0.362,0.925
1.122000,1067773,1000.00,12,0,1,849.083,-7.058,4.767,1098.970,-0.434,0.924
1.123000,1067774,1000.00,12,0,1,849.587,-5.312,4.777,1099.931,0.880,0.909
1.124000,1067775,1000.00,12,0,1,843.102,-7.184,4.879,1098.057,-0.579,0.912
1.125000,1067776,1000.00,12,0,1,838.658,-10.551,5.095,1097.817,-1.246,0.929
1.126000,1067777,1000.00,12,0,1,838.874,-6.554,5.171,1099.090,0.422,0.920
1.127000,1067778,1000.00,12,0,1,842.093,-1.971,5.169,1098.585,0.091,0.907
1.128000,1067779,1000.00,12,0,1,845.720,3.317,5.126,1099.018,0.215,0.906
1.129000,1067780,1000.00,12,0,1,851.701,8.295,5.176,1098.850,0.358,0.903
1.130000,1067781,1000.00,12,0,1,857.730,13.092,5.486,1098.970,0.100,0.903
1.131000,1067782,1000.00,12,0,1,857.802,11.548,5.723,1100.891,1.669,0.933
1.132000,1067783,1000.00,12,0,1,854.031,5.376,5.768,1098.970,0.376,0.925
1.133000,1067784,1000.00,12,0,1,851.845,1.268,5.724,1100.507,0.353,0.917
1.134000,1067785,1000.00,12,0,1,849.803,-1.861,5.648,1098.177,-0.270,0.888
1.135000,1067786,1000.00,12,0,1,846.897,-5.190,5.529,1097.721,-2.275,0.944
1.136000,1067787,1000.00,12,0,1,843.870,-8.124,5.410,1097.625,-0.992,0.952
1.137000,1067788,1000.00,12,0,1,849.107,-4.024,5.329,1098.105,-1.152,0.965
1.138000,1067789,1000.00,12,0,1,857.010,4.075,5.350,1097.961,-0.507,0.956
1.139000,1067790,1000.00,12,0,1,857.226,4.466,5.387,1099.570,0.482,0.959
1.140000,1067791,1000.00,12,0,1,857.490,3.219,5.401,1100.795,1.981,0.967
1.141000,1067792,1000.00,12,0,1,859.532,5.257,5.431,1099.354,0.655,0.963
1.142000,1067793,1000.00,12,0,1,858.114,4.037,5.457,1100.123,0.553,0.957
1.143000,1067794,1000.00,12,0,1,857.130,2.803,5.470,1099.522,0.832,0.959
1.144000,1067795,1000.00,12,0,1,851.124,-1.089,5.472,1098.706,-0.694,0.964
1.145000,1067796,1000.00,12,0,1,846.080,-5.688,5.524,1097.096,-1.343,0.979
1.146000,1067797,1000.00,12,0,1,846.128,-3.883,5.536,1097.577,-1.478,0.998
1.147000,1067798,1000.00,12,0,1,845.840,-2.420,5.540,1097.937,-0.191,0.989
1.148000,1067799,1000.00,12,0,1,846.104,-1.491,5.536,1099.570,0.722,0.981
1.149000,1067800,1000.00,12,0,1,848.386,1.090,5.534,1101.036,2.421,1.038
1.150000,1067801,1000.00,12,0,1,850.068,2.551,5.487,1100.507,1.572,1.050
1.151000,1067802,1000.00,12,0,1,851.437,2.916,5.342,1099.498,0.260,1.050
1.152000,1067803,1000.00,12,0,1,854.439,4.127,5.330,1098.153,-0.941,1.056
1.153000,1067804,1000.00,12,0,1,857.874,5.673,5.390,1099.018,-0.636,1.056
1.154000,1067805,1000.00,12,0,1,858.355,4.311,5.279,1101.012,1.474,1.075
1.155000,1067806,1000.00,12,0,1,859.003,2.478,5.259,1100.651,1.030,1.084
1.156000,1067807,1000.00,12,0,1,859.724,1.666,5.094,1098.802,-0.832,1.022
1.157000,1067808,1000.00,12,0,1,856.073,-2.440,5.001,1099.762,-0.470,1.017
1.158000,1067809,1000.00,12,0,1,855.688,-4.290,5.037,1098.682,-0.600,1.012
1.159000,1067810,1000.00,12,0,1,855.112,-3.647,5.048,1097.096,-2.472,1.033
1.160000,1067811,1000.00,12,0,1,851.365,-6.529,5.110,1097.048,-1.985,1.068
1.161000,1067812,1000.00,12,0,1,852.878,-4.627,5.152,1096.976,-1.632,1.089
1.162000,1067813,1000.00,12,0,1,852.806,-2.101,5.159,1096.760,-1.456,1.091
1.163000,1067814,1000.00,12,0,1,856.241,0.872,5.152,1099.522,0.945,1.099
1.164000,1067815,1000.00,12,0,1,857.946,4.717,5.166,1101.012,2.831,1.147
1.165000,1067816,1000.00,12,0,1,855.640,2.513,5.021,1100.171,1.654,1.171
1.166000,1067817,1000.00,12,0,1,848.266,-2.770,5.002,1099.690,0.827,1.176
1.167000,1067818,1000.00,12,0,1,849.467,-2.747,5.002,1098.994,0.221,1.176
1.168000,1067819,1000.00,12,0,1,849.035,-0.282,5.001,1099.618,0.336,1.158
1.169000,1067820,1000.00,12,0,1,847.353,-2.650,5.015,1097.144,-1.125,1.163
1.170000,1067821,1000.00,12,0,1,851.245,0.855,4.995,1097.529,-1.796,1.190
1.171000,1067822,1000.00,12,0,1,847.473,-1.291,4.948,1098.129,-0.103,1.189
1.172000,1067823,1000.00,12,0,1,839.715,-9.656,5.035,1099.594,0.508,1.190
1.173000,1067824,1000.00,12,0,1,842.309,-7.573,5.092,1098.489,0.350,1.184
1.174000,1067825,1000.00,12,0,1,849.155,-0.654,4.991,1098.946,-0.236,1.182
1.175000,1067826,1000.00,12,0,1,857.850,6.231,4.843,1100.555,1.655,1.192
1.176000,1067827,1000.00,12,0,1,856.841,5.483,4.816,1099.282,0.515,1.193
1.177000,1067828,1000.00,12,0,1,855.160,0.959,4.810,1099.282,-0.181,1.193
1.178000,1067829,1000.00,12,0,1,854.752,0.693,4.788,1099.042,0.179,1.193
1.179000,1067830,1000.00,12,0,1,854.824,0.002,4.642,1097.456,-1.511,1.211
1.180000,1067831,1000.00,12,0,1,852.710,-1.063,4.260,1096.616,-1.940,1.241
1.181000,1067832,1000.00,12,0,1,851.485,-1.994,3.945,1098.441,-0.389,1.220
1.182000,1067833,1000.00,12,0,1,851.341,-0.811,3.872,1098.970,0.871,1.225
1.183000,1067834,1000.00,12,0,1,845.960,-3.501,3.900,1098.898,0.369,1.225
1.184000,1067835,1000.00,12,0,1,842.309,-6.106,3.985,1098.922,0.603,1.227
1.185000,1067836,1000.00,12,0,1,848.722,1.245,3.921,1100.963,1.904,1.215
1.186000,1067837,1000.00,12,0,1,847.305,3.125,3.775,1098.633,0.590,1.210
1.187000,1067838,1000.00,12,0,1,842.885,-1.459,3.738,1099.522,-0.121,1.199
1.188000,1067839,1000.00,12,0,1,843.029,-0.420,3.693,1099.210,0.803,1.202
1.189000,1067840,1000.00,12,0,1,849.251,4.874,3.704,1097.889,-1.220,1.212
1.190000,1067841,1000.00,12,0,1,854.415,9.592,3.918,1097.769,-1.008,1.188
1.191000,1067842,1000.00,12,0,1,853.599,7.348,3.985,1098.249,-0.520,1.187
1.192000,1067843,1000.00,12,0,1,853.118,4.251,3.989,1098.177,-0.437,1.186
1.193000,1067844,1000.00,12,0,1,850.524,0.997,3.972,1099.234,0.407,1.181
1.194000,1067845,1000.00,12,0,1,852.277,-0.254,3.969,1100.075,1.194,1.189
1.195000,1067846,1000.00,12,0,1,850.596,-1.134,3.890,1100.339,1.281,1.188
1.196000,1067847,1000.00,12,0,1,849.203,-4.584,3.905,1100.651,1.178,1.181
1.197000,1067848,1000.00,12,0,1,848.602,-4.323,3.938,1100.195,0.781,1.186
1.198000,1067849,1000.00,12,0,1,850.212,-3.419,3.962,1099.498,-0.231,1.182
1.199000,1067850,1000.00,12,0,1,852.590,-0.333,3.959,1099.114,-0.476,1.133
1.200000,1067851,1000.00,12,0,1,851.677,-0.437,3.943,1098.297,-1.158,1.123
1.201000,1067852,1000.00,12,0,1,851.293,-0.683,3.923,1099.498,-0.222,1.123
1.202000,1067853,1000.00,12,0,1,850.788,0.297,3.879,1100.243,0.871,1.122
1.203000,1067854,1000.00,12,0,1,850.356,0.404,3.796,1100.363,0.683,1.123
1.204000,1067855,1000.00,12,0,1,850.260,1.618,3.754,1098.537,-0.661,1.107
1.205000,1067856,1000.00,12,0,1,848.867,1.124,3.741,1099.714,-0.348,1.099
1.206000,1067857,1000.00,12,0,1,844.663,-1.478,3.739,1099.570,0.435,1.094
1.207000,1067858,1000.00,12,0,1,839.787,-5.156,3.794,1098.898,-0.793,1.098
1.208000,1067859,1000.00,12,0,1,839.907,-4.324,3.795,1098.730,-0.612,1.098
1.209000,1067860,1000.00,12,0,1,843.702,0.133,3.759,1098.105,-1.126,1.053
1.210000,1067861,1000.00,12,0,1,847.545,3.678,3.681,1097.216,-1.773,1.045
1.211000,1067862,1000.00,12,0,1,849.947,5.104,3.694,1098.970,-0.304,1.020
1.212000,1067863,1000.00,12,0,1,851.269,4.775,3.743,1098.778,0.195,1.000
1.213000,1067864,1000.00,12,0,1,851.533,3.425,3.772,1098.057,-0.852,0.998
1.214000,1067865,1000.00,12,0,1,854.127,3.583,3.747,1097.432,-1.097,0.927
1.215000,1067866,1000.00,12,0,1,853.671,2.405,3.746,1098.682,-0.178,0.898
1.216000,1067867,1000.00,12,0,1,852.350,-0.785,3.727,1098.321,0.112,0.890
1.217000,1067868,1000.00,12,0,1,852.133,-1.481,3.713,1095.535,-2.343,0.949
1.218000,1067869,1000.00,12,0,1,855.688,0.751,3.714,1098.201,-0.536,0.951
1.219000,1067870,1000.00,12,0,1,853.959,0.329,3.695,1099.522,1.992,0.979
1.220000,1067871,1000.00,12,0,1,850.092,-3.808,3.732,1098.441,0.316,0.947
1.221000,1067872,1000.00,12,0,1,848.122,-4.403,3.780,1099.234,1.021,0.957
1.222000,1067873,1000.00,12,0,1,842.693,-7.125,3.665,1098.802,0.830,0.962
1.223000,1067874,1000.00,12,0,1,838.826,-9.245,3.741,1100.339,1.539,0.985
1.224000,1067875,1000.00,12,0,1,837.120,-7.616,3.892,1099.018,1.129,0.997
1.225000,1067876,1000.00,12,0,1,839.450,-3.834,3.830,1099.522,0.337,0.971
1.226000,1067877,1000.00,12,0,1,843.294,2.052,3.762,1098.225,0.246,0.969
1.227000,1067878,1000.00,12,0,1,841.156,1.501,3.765,1098.946,-0.275,0.969
1.228000,1067879,1000.00,12,0,1,843.174,2.372,3.779,1098.129,0.114,0.969
1.229000,1067880,1000.00,12,0,1,843.822,4.172,3.825,1098.802,-0.265,0.946
1.230000,1067881,1000.00,12,0,1,845.239,3.564,3.855,1098.994,0.664,0.910
1.231000,1067882,1000.00,12,0,1,848.146,5.673,3.927,1098.489,-0.218,0.909
1.232000,1067883,1000.00,12,0,1,849.323,5.064,3.990,1099.234,0.333,0.902
1.233000,1067884,1000.00,12,0,1,852.181,5.433,4.033,1100.003,1.141,0.914
1.234000,1067885,1000.00,12,0,1,860.589,10.469,4.209,1097.961,-0.711,0.916
1.235000,1067886,1000.00,12,0,1,861.069,9.820,4.429,1099.570,0.013,0.875
1.236000,1067887,1000.00,12,0,1,857.682,3.251,4.430,1100.075,1.176,0.887
1.237000,1067888,1000.00,12,0,1,853.743,-1.312,4.429,1097.697,-1.242,0.904
1.238000,1067889,1000.00,12,0,1,851.052,-4.625,4.477,1096.808,-2.241,0.951
1.239000,1067890,1000.00,12,0,1,852.902,-2.856,4.442,1098.441,-0.481,0.938
1.240000,1067891,1000.00,12,0,1,852.301,-1.759,4.237,1098.009,-0.347,0.929
1.241000,1067892,1000.00,12,0,1,851.509,-2.419,4.122,1099.138,0.204,0.926
1.242000,1067893,1000.00,12,0,1,849.515,-2.256,4.090,1098.561,0.384,0.926
1.243000,1067894,1000.00,12,0,1,846.392,-4.204,4.131,1098.465,-0.304,0.925
1.244000,1067895,1000.00,12,0,1,843.029,-5.251,4.197,1098.489,0.163,0.910
1.245000,1067896,1000.00,12,0,1,838.874,-7.223,4.317,1097.240,-0.925,0.901
1.246000,1067897,1000.00,12,0,1,839.378,-5.495,4.338,1095.847,-2.048,0.932
1.247000,1067898,1000.00,12,0,1,840.724,-2.116,4.305,1098.345,0.056,0.925
1.248000,1067899,1000.00,12,0,1,841.732,-0.800,4.279,1100.123,2.286,0.979
1.249000,1067900,1000.00,12,0,1,847.185,3.776,4.312,1100.123,1.875,1.012
1.250000,1067901,1000.00,12,0,1,851.317,7.219,4.431,1098.297,0.188,0.999
1.251000,1067902,1000.00,12,0,1,854.559,7.806,4.565,1097.264,-1.135,1.012
1.252000,1067903,1000.00,12,0,1,855.977,7.265,4.679,1099.786,0.907,1.012
1.253000,1067904,1000.00,12,0,1,855.472,4.198,4.716,1098.297,0.487,1.010
1.254000,1067905,1000.00,12,0,1,858.691,4.409,4.752,1097.601,-1.281,1.022
1.255000,1067906,1000.00,12,0,1,859.868,4.367,4.789,1100.123,1.403,1.040
1.256000,1067907,1000.00,12,0,1,857.562,0.342,4.785,1099.282,0.892,1.046
1.257000,1067908,1000.00,12,0,1,857.274,-1.116,4.732,1098.369,-0.554,1.043
1.258000,1067909,1000.00,12,0,1,854.704,-3.002,4.711,1099.546,0.558,1.042
1.259000,1067910,1000.00,12,0,1,853.262,-4.559,4.755,1098.922,0.232,1.030
1.260000,1067911,1000.00,12,0,1,848.362,-6.682,4.820,1097.889,-0.958,1.008
1.261000,1067912,1000.00,12,0,1,845.720,-8.452,4.913,1098.009,-0.748,1.013
1.262000,1067913,1000.00,12,0,1,846.224,-5.154,4.921,1098.009,-0.501,1.015
1.263000,1067914,1000.00,12,0,1,845.071,-3.962,4.929,1097.769,-0.638,1.012
1.264000,1067915,1000.00,12,0,1,845.768,-1.966,4.911,1098.417,-0.023,1.000
1.265000,1067916,1000.00,12,0,1,846.392,0.513,4.900,1098.970,0.633,1.004
1.266000,1067917,1000.00,12,0,1,845.384,0.220,4.898,1099.738,1.128,1.016
1.267000,1067918,1000.00,12,0,1,846.176,1.167,4.897,1098.441,0.205,0.961
1.268000,1067919,1000.00,12,0,1,844.038,-0.157,4.896,1099.330,0.230,0.959
1.269000,1067920,1000.00,12,0,1,845.624,-0.123,4.895,1098.129,-0.014,0.916
1.270000,1067921,1000.00,12,0,1,849.755,3.522,4.891,1096.400,-2.177,0.966
1.271000,1067922,1000.00,12,0,1,846.488,0.164,4.851,1098.417,-0.287,0.956
1.272000,1067923,1000.00,12,0,1,846.440,-2.419,4.758,1098.730,0.665,0.953
1.273000,1067924,1000.00,12,0,1,850.476,1.024,4.577,1097.360,-0.923,0.937
1.274000,1067925,1000.00,12,0,1,852.758,1.965,4.457,1099.042,0.391,0.925
1.275000,1067926,1000.00,12,0,1,854.415,2.303,4.436,1098.633,0.609,0.928
1.276000,1067927,1000.00,12,0,1,853.406,0.827,4.428,1096.808,-1.396,0.948
1.277000,1067928,1000.00,12,0,1,856.889,2.308,4.435,1097.192,-1.047,0.959
1.278000,1067929,1000.00,12,0,1,862.030,7.209,4.538,1097.841,-0.048,0.958
1.279000,1067930,1000.00,12,0,1,857.634,3.499,4.527,1098.153,0.194,0.958
1.280000,1067931,1000.00,12,0,1,852.614,-2.070,4.508,1099.330,1.213,0.969
1.281000,1067932,1000.00,12,0,1,847.305,-4.980,4.492,1097.504,-0.024,0.968
1.282000,1067933,1000.00,12,0,1,843.726,-7.168,4.549,1099.354,0.592,0.971
1.283000,1067934,1000.00,12,0,1,837.433,-9.337,4.674,1098.609,1.145,0.971
1.284000,1067935,1000.00,12,0,1,837.865,-8.011,4.576,1098.850,0.074,0.966
1.285000,1067936,1000.00,12,0,1,843.029,-0.113,4.360,1099.066,1.042,0.977
1.286000,1067937,1000.00,12,0,1,844.783,2.799,4.354,1101.468,2.175,1.011
1.287000,1067938,1000.00,12,0,1,845.864,3.625,4.380,1098.321,0.467,0.997
1.288000,1067939,1000.00,12,0,1,846.609,4.157,4.370,1099.762,-0.258,0.946
1.289000,1067940,1000.00,12,0,1,846.561,2.909,4.371,1098.778,0.601,0.948
1.290000,1067941,1000.00,12,0,1,850.068,4.452,4.409,1098.345,-1.214,0.962
1.291000,1067942,1000.00,12,0,1,848.770,2.703,4.413,1099.570,0.533,0.964
1.292000,1067943,1000.00,12,0,1,844.879,-2.906,4.420,1099.114,0.125,0.963
1.293000,1067944,1000.00,12,0,1,845.143,-3.857,4.414,1100.195,0.462,0.964
1.294000,1067945,1000.00,12,0,1,844.687,-4.055,4.388,1098.489,-0.165,0.964
1.295000,1067946,1000.00,12,0,1,847.089,-2.952,4.288,1098.417,-1.471,0.978
1.296000,1067947,1000.00,12,0,1,845.888,-2.558,4.233,1099.282,0.308,0.935
1.297000,1067948,1000.00,12,0,1,844.831,-4.243,4.265,1097.048,-1.851,0.971
1.298000,1067949,1000.00,12,0,1,849.083,0.522,4.264,1098.826,-0.678,0.920
1.299000,1067950,1000.00,12,0,1,850.668,3.309,4.256,1098.730,0.277,0.882
1.300000,1067951,1000.00,12,0,1,848.698,1.952,4.141,1097.721,-1.246,0.899
1.301000,1067952,1000.00,12,0,1,847.521,1.591,3.997,1097.480,-0.999,0.896
1.302000,1067953,1000.00,12,0,1,851.389,5.315,3.936,1099.042,0.147,0.887
1.303000,1067954,1000.00,12,0,1,854.439,9.249,4.105,1098.249,0.165,0.885
1.304000,1067955,1000.00,12,0,1,848.482,4.319,4.103,1098.489,-0.331,0.867
1.305000,1067956,1000.00,12,0,1,844.182,-0.644,4.057,1098.321,0.146,0.844
1.306000,1067957,1000.00,12,0,1,843.990,-0.042,4.057,1097.937,-0.511,0.838
1.307000,1067958,1000.00,12,0,1,841.660,-1.554,4.060,1097.408,-0.690,0.840
1.308000,1067959,1000.00,12,0,1,840.363,-3.042,4.060,1096.688,-1.218,0.854
1.309000,1067960,1000.00,12,0,1,839.138,-3.637,4.041,1095.871,-1.711,0.887
1.310000,1067961,1000.00,12,0,1,839.138,-4.169,3.973,1096.376,-1.044,0.889
1.311000,1067962,1000.00,12,0,1,843.510,-0.725,3.791,1095.799,-1.001,0.894
1.312000,1067963,1000.00,12,0,1,847.593,2.527,3.737,1095.271,-1.389,0.912
1.313000,1067964,1000.00,12,0,1,854.607,6.547,3.809,1099.474,2.051,0.953
1.314000,1067965,1000.00,12,0,1,856.553,7.618,3.949,1098.273,2.291,1.007
1.315000,1067966,1000.00,12,0,1,857.034,4.774,4.005,1097.384,-0.134,1.003
1.316000,1067967,1000.00,12,0,1,857.442,4.049,4.046,1097.288,0.640,0.994
1.317000,1067968,1000.00,12,0,1,857.034,2.135,4.054,1098.609,1.007,1.004
1.318000,1067969,1000.00,12,0,1,857.034,1.503,4.059,1099.498,2.262,1.053
1.319000,1067970,1000.00,12,0,1,858.595,2.534,4.075,1097.841,0.489,1.056
1.320000,1067971,1000.00,12,0,1,853.118,-1.136,4.048,1096.376,-1.137,1.022
1.321000,1067972,1000.00,12,0,1,850.284,-4.325,4.094,1098.657,0.730,1.027
1.322000,1067973,1000.00,12,0,1,849.947,-2.413,4.094,1099.138,1.687,1.050
1.323000,1067974,1000.00,12,0,1,851.028,-0.597,4.092,1099.666,1.471,1.062
1.324000,1067975,1000.00,12,0,1,850.284,0.414,4.083,1098.778,0.919,1.069
1.325000,1067976,1000.00,12,0,1,849.827,0.228,4.070,1099.162,0.537,1.068
1.326000,1067977,1000.00,12,0,1,847.738,-0.732,4.070,1098.441,0.325,1.051
1.327000,1067978,1000.00,12,0,1,842.909,-4.679,4.110,1097.961,-0.592,1.044
1.328000,1067979,1000.00,12,0,1,838.754,-8.220,4.148,1099.090,0.450,1.046
1.329000,1067980,1000.00,12,0,1,839.306,-7.248,4.244,1096.832,-0.977,1.054
1.330000,1067981,1000.00,12,0,1,845.696,-1.594,4.240,1099.546,0.112,1.040
1.331000,1067982,1000.00,12,0,1,852.758,4.652,4.232,1098.826,1.205,1.054
1.332000,1067983,1000.00,12,0,1,859.267,8.298,4.273,1098.609,-0.700,1.056
1.333000,1067984,1000.00,12,0,1,859.532,7.078,4.186,1100.363,1.605,1.067
1.334000,1067985,1000.00,12,0,1,860.517,4.181,4.073,1098.537,-0.161,1.068
1.335000,1067986,1000.00,12,0,1,863.279,5.181,4.138,1100.099,0.260,1.058
1.336000,1067987,1000.00,12,0,1,862.582,2.902,4.139,1101.660,2.325,1.064
1.337000,1067988,1000.00,12,0,1,862.006,0.782,4.109,1098.778,-0.665,1.067
1.338000,1067989,1000.00,12,0,1,860.997,-0.221,4.067,1099.090,-1.093,1.077
1.339000,1067990,1000.00,12,0,1,857.106,-3.468,4.076,1099.690,0.026,1.074
1.340000,1067991,1000.00,12,0,1,851.605,-7.233,4.155,1098.009,-1.518,1.081
1.341000,1067992,1000.00,12,0,1,852.325,-5.720,4.215,1100.075,-0.207,1.079
1.342000,1067993,1000.00,12,0,1,849.875,-4.280,4.239,1099.474,0.344,1.080
1.343000,1067994,1000.00,12,0,1,851.100,-2.998,4.225,1097.336,-2.263,1.125
1.344000,1067995,1000.00,12,0,1,852.109,0.971,4.188,1098.802,-0.809,1.130
1.345000,1067996,1000.00,12,0,1,855.256,3.337,4.194,1097.456,-1.124,1.122
1.346000,1067997,1000.00,12,0,1,858.691,7.267,4.303,1097.577,-1.674,1.146
1.347000,1067998,1000.00,12,0,1,852.758,1.959,4.270,1098.778,0.221,1.116
1.348000,1067999,1000.00,12,0,1,847.690,-4.605,4.318,1098.321,-0.233,1.113
1.349000,1068000,1000.00,12,0,1,851.965,-1.259,4.297,1098.345,-0.252,1.112
1.350000,1068001,1000.00,12,0,1,857.538,3.263,4.313,1098.970,0.376,1.100
1.351000,1068002,1000.00,12,0,1,852.998,-1.071,4.309,1100.003,1.153,1.103
1.352000,1068003,1000.00,12,0,1,856.073,-2.267,4.255,1098.105,-0.175,1.103
1.353000,1068004,1000.00,12,0,1,856.169,-0.675,4.050,1097.697,-1.301,1.118
1.354000,1068005,1000.00,12,0,1,854.872,-4.708,4.059,1097.769,-0.543,1.119
1.355000,1068006,1000.00,12,0,1,858.547,-1.475,4.063,1098.682,-0.100,1.119
1.356000,1068007,1000.00,12,0,1,858.090,-1.562,4.069,1099.042,0.680,1.121
1.357000,1068008,1000.00,12,0,1,856.409,-3.728,4.098,1097.192,-0.989,1.126
1.358000,1068009,1000.00,12,0,1,852.830,-5.367,4.145,1097.529,-1.030,1.122
1.359000,1068010,1000.00,12,0,1,850.884,-6.646,4.219,1097.480,-0.317,1.096
1.360000,1068011,1000.00,12,0,1,849.107,-5.332,4.245,1097.553,-0.562,1.089
1.361000,1068012,1000.00,12,0,1,850.044,-3.259,4.269,1099.162,1.131,1.092
1.362000,1068013,1000.00,12,0,1,849.155,-0.858,4.256,1100.027,1.917,1.108
1.363000,1068014,1000.00,12,0,1,846.969,-1.655,4.160,1097.408,-0.223,1.070
1.364000,1068015,1000.00,12,0,1,845.239,-1.207,4.022,1099.138,0.264,1.020
1.365000,1068016,1000.00,12,0,1,845.167,-0.164,3.965,1102.309,3.768,1.151
1.366000,1068017,1000.00,12,0,1,846.753,2.216,3.936,1099.258,1.054,1.157
1.367000,1068018,1000.00,12,0,1,847.017,3.028,3.948,1099.666,-0.028,1.148
1.368000,1068019,1000.00,12,0,1,846.873,2.245,3.955,1099.378,0.787,1.108
1.369000,1068020,1000.00,12,0,1,847.425,2.197,3.951,1099.594,-0.115,1.106
1.370000,1068021,1000.00,12,0,1,850.644,3.528,3.979,1101.252,1.752,1.122
1.371000,1068022,1000.00,12,0,1,852.590,4.458,3.982,1099.618,0.253,1.118
1.372000,1068023,1000.00,12,0,1,853.190,2.849,3.987,1099.907,-0.317,1.093
1.373000,1068024,1000.00,12,0,1,854.127,2.162,3.998,1097.432,-1.526,1.094
1.374000,1068025,1000.00,12,0,1,856.313,2.424,4.012,1097.889,-2.279,1.133
1.375000,1068026,1000.00,12,0,1,858.475,3.285,4.039,1100.099,0.785,1.136
1.376000,1068027,1000.00,12,0,1,861.381,4.515,4.088,1099.979,0.450,1.137
1.377000,1068028,1000.00,12,0,1,860.372,3.391,4.062,1099.810,0.127,1.134
1.378000,1068029,1000.00,12,0,1,855.592,-1.427,3.898,1097.817,-1.352,1.148
1.379000,1068030,1000.00,12,0,1,853.791,-3.000,3.785,1099.666,-0.540,1.143
1.380000,1068031,1000.00,12,0,1,851.052,-3.439,3.809,1099.931,0.889,1.149
1.381000,1068032,1000.00,12,0,1,847.089,-5.655,3.836,1100.675,0.445,1.138
1.382000,1068033,1000.00,12,0,1,848.362,-2.910,3.675,1099.450,0.228,1.135
1.383000,1068034,1000.00,12,0,1,846.200,-1.824,3.546,1099.378,-0.835,1.118
1.384000,1068035,1000.00,12,0,1,843.678,-3.388,3.529,1101.372,1.334,1.133
1.385000,1068036,1000.00,12,0,1,841.036,-3.546,3.488,1099.330,-0.141,1.133
1.386000,1068037,1000.00,12,0,1,840.940,-3.129,3.492,1099.042,-1.317,1.100
1.387000,1068038,1000.00,12,0,1,841.156,-1.448,3.496,1098.850,-0.557,1.099
1.388000,1068039,1000.00,12,0,1,842.789,-0.277,3.496,1097.384,-2.125,1.129
1.389000,1068040,1000.00,12,0,1,852.926,7.441,3.618,1098.057,-1.272,1.143
1.390000,1068041,1000.00,12,0,1,856.193,10.556,3.778,1098.609,-0.344,1.124
1.391000,1068042,1000.00,12,0,1,850.692,2.384,3.706,1097.697,-0.944,1.131
1.392000,1068043,1000.00,12,0,1,849.587,-1.114,3.659,1097.000,-1.499,1.150
1.393000,1068044,1000.00,12,0,1,853.575,1.091,3.638,1098.369,-0.216,1.105
1.394000,1068045,1000.00,12,0,1,855.160,1.864,3.645,1099.378,1.089,1.110
1.395000,1068046,1000.00,12,0,1,853.863,-0.513,3.615,1097.769,-0.278,1.099
1.396000,1068047,1000.00,12,0,1,862.414,4.969,3.536,1097.721,-0.729,1.078
1.397000,1068048,1000.00,12,0,1,865.777,9.348,3.765,1100.579,1.881,1.110
1.398000,1068049,1000.00,12,0,1,866.330,7.049,3.840,1100.027,1.823,1.139
1.399000,1068050,1000.00,12,0,1,865.249,6.369,3.940,1100.771,1.357,1.155
1.400000,1068051,1000.00,12,0,1,859.316,0.599,3.914,1100.411,1.580,1.175
1.401000,1068052,1000.00,12,0,1,853.791,-4.014,3.952,1099.330,-0.153,1.164
1.402000,1068053,1000.00,12,0,1,848.146,-7.090,4.065,1099.066,-0.255,1.164
1.403000,1068054,1000.00,12,0,1,849.467,-5.190,4.129,1099.378,-0.068,1.149
1.404000,1068055,1000.00,12,0,1,850.812,-0.779,4.077,1099.738,0.333,1.148
1.405000,1068056,1000.00,12,0,1,850.668,-0.719,4.073,1099.546,0.233,1.148
1.406000,1068057,1000.00,12,0,1,845.432,-3.585,4.098,1099.714,0.177,1.144
1.407000,1068058,1000.00,12,0,1,846.080,-4.446,4.113,1100.675,1.071,1.146
1.408000,1068059,1000.00,12,0,1,847.786,-1.221,4.046,1099.210,-0.043,1.137
1.409000,1068060,1000.00,12,0,1,850.020,-0.693,3.936,1098.321,-1.249,1.149
1.410000,1068061,1000.00,12,0,1,850.764,-0.193,3.863,1099.618,0.035,1.147
1.411000,1068062,1000.00,12,0,1,851.677,-1.199,3.839,1101.876,2.019,1.171
1.412000,1068063,1000.00,12,0,1,856.121,1.179,3.841,1099.666,0.437,1.141
1.413000,1068064,1000.00,12,0,1,852.470,-1.887,3.843,1100.171,-0.365,1.141
1.414000,1068065,1000.00,12,0,1,851.917,-5.454,3.916,1098.730,-0.540,1.143
1.415000,1068066,1000.00,12,0,1,856.001,-0.907,3.918,1098.778,-1.570,1.036
1.416000,1068067,1000.00,12,0,1,858.715,0.917,3.908,1099.354,-0.204,1.025
1.417000,1068068,1000.00,12,0,1,861.093,3.052,3.908,1097.937,-1.537,1.048
1.418000,1068069,1000.00,12,0,1,859.243,1.827,3.904,1098.297,-1.405,1.061
1.419000,1068070,1000.00,12,0,1,855.160,-1.662,3.899,1097.408,-1.353,1.078
1.420000,1068071,1000.00,12,0,1,854.728,-1.195,3.870,1095.583,-3.138,1.139
1.421000,1068072,1000.00,12,0,1,853.478,-0.251,3.819,1097.288,-1.313,1.153
1.422000,1068073,1000.00,12,0,1,852.782,0.166,3.797,1098.657,0.566,1.155
1.423000,1068074,1000.00,12,0,1,853.719,2.465,3.801,1099.810,1.433,1.153
1.424000,1068075,1000.00,12,0,1,848.987,0.051,3.786,1097.817,0.138,1.107
1.425000,1068076,1000.00,12,0,1,847.281,-1.932,3.767,1098.201,-0.381,1.103
1.426000,1068077,1000.00,12,0,1,847.810,0.166,3.713,1100.891,2.479,1.156
1.427000,1068078,1000.00,12,0,1,849.203,0.990,3.684,1100.627,2.288,1.200
1.428000,1068079,1000.00,12,0,1,849.995,1.781,3.687,1098.682,0.090,1.185
1.429000,1068080,1000.00,12,0,1,852.133,2.131,3.675,1099.378,0.349,1.183
1.430000,1068081,1000.00,12,0,1,853.070,2.092,3.655,1097.216,-0.852,1.183
1.431000,1068082,1000.00,12,0,1,851.557,-0.951,3.569,1097.841,-1.173,1.193
1.432000,1068083,1000.00,12,0,1,853.334,-1.389,3.550,1100.603,1.985,1.225
1.433000,1068084,1000.00,12,0,1,857.274,1.226,3.545,1101.732,2.773,1.280
1.434000,1068085,1000.00,12,0,1,857.370,0.307,3.513,1102.885,3.177,1.344
1.435000,1068086,1000.00,12,0,1,855.352,-2.585,3.496,1101.180,1.676,1.364
1.436000,1068087,1000.00,12,0,1,853.791,-4.284,3.521,1099.474,-0.838,1.357
1.437000,1068088,1000.00,12,0,1,853.719,-3.876,3.557,1101.324,0.678,1.358
1.438000,1068089,1000.00,12,0,1,852.830,-3.362,3.588,1100.003,-0.008,1.324
1.439000,1068090,1000.00,12,0,1,853.166,-2.020,3.443,1101.300,0.018,1.312
1.440000,1068091,1000.00,12,0,1,854.656,0.991,3.105,1099.354,-0.504,1.313
1.441000,1068092,1000.00,12,0,1,852.926,1.247,3.092,1098.177,-2.713,1.361
1.442000,1068093,1000.00,12,0,1,850.188,-0.192,3.088,1101.036,0.340,1.346
1.443000,1068094,1000.00,12,0,1,848.915,0.128,3.084,1101.852,1.413,1.360
1.444000,1068095,1000.00,12,0,1,846.512,-0.481,3.074,1100.483,-0.184,1.352
1.445000,1068096,1000.00,12,0,1,842.981,-2.539,3.094,1101.828,0.578,1.354
1.446000,1068097,1000.00,12,0,1,842.309,-2.507,3.034,1100.291,-0.205,1.350
1.447000,1068098,1000.00,12,0,1,842.909,-1.004,2.734,1099.498,-1.669,1.344
1.448000,1068099,1000.00,12,0,1,847.017,2.074,2.563,1099.474,-1.130,1.329
1.449000,1068100,1000.00,12,0,1,848.002,3.223,2.442,1100.699,-0.262,1.316
1.450000,1068101,1000.00,12,0,1,849.995,2.571,2.468,1101.372,0.697,1.300
1.451000,1068102,1000.00,12,0,1,850.476,2.361,2.425,1100.963,0.161,1.300
1.452000,1068103,1000.00,12,0,1,852.350,1.432,2.217,1099.762,-0.943,1.307
1.453000,1068104,1000.00,12,0,1,851.701,0.341,2.092,1100.171,-0.750,1.311
1.454000,1068105,1000.00,12,0,1,853.358,-0.456,2.090,1100.027,-0.506,1.312
1.455000,1068106,1000.00,12,0,1,854.992,0.998,2.093,1102.309,1.017,1.319
1.456000,1068107,1000.00,12,0,1,853.959,-0.528,2.032,1101.924,1.349,1.333
1.457000,1068108,1000.00,12,0,1,852.782,-1.695,1.947,1099.354,-1.528,1.342
1.458000,1068109,1000.00,12,0,1,851.197,-2.125,1.962,1101.516,-0.094,1.342
1.459000,1068110,1000.00,12,0,1,847.209,-4.380,2.055,1099.306,-0.695,1.334
1.460000,1068111,1000.00,12,0,1,844.351,-5.219,2.184,1099.162,-2.230,1.371
1.461000,1068112,1000.00,12,0,1,845.480,-2.295,2.201,1101.708,1.111,1.350
1.462000,1068113,1000.00,12,0,1,843.246,-1.146,2.201,1100.699,0.230,1.349
1.463000,1068114,1000.00,12,0,1,838.898,-3.710,2.247,1100.531,-0.373,1.349
1.464000,1068115,1000.00,12,0,1,838.706,-2.134,2.132,1100.363,-0.102,1.347
1.465000,1068116,1000.00,12,0,1,841.756,2.039,2.147,1098.441,-1.815,1.353
1.466000,1068117,1000.00,12,0,1,844.279,5.091,2.261,1098.537,-1.751,1.375
1.467000,1068118,1000.00,12,0,1,851.197,9.860,2.621,1098.465,-1.158,1.367
1.468000,1068119,1000.00,12,0,1,853.551,11.602,3.081,1100.843,0.622,1.356
1.469000,1068120,1000.00,12,0,1,855.040,9.156,3.334,1099.210,0.287,1.343
1.470000,1068121,1000.00,12,0,1,860.252,11.032,3.677,1098.177,-1.640,1.288
1.471000,1068122,1000.00,12,0,1,864.528,11.688,4.031,1100.267,0.724,1.279
1.472000,1068123,1000.00,12,0,1,863.111,7.262,4.160,1100.075,0.896,1.283
1.473000,1068124,1000.00,12,0,1,865.080,4.817,4.201,1100.291,0.507,1.269
1.474000,1068125,1000.00,12,0,1,865.945,4.039,4.240,1100.123,0.768,1.273
1.475000,1068126,1000.00,12,0,1,866.690,1.943,4.240,1100.915,0.818,1.277
1.476000,1068127,1000.00,12,0,1,863.255,-1.440,4.245,1102.020,2.063,1.262
1.477000,1068128,1000.00,12,0,1,859.460,-5.940,4.325,1101.324,1.119,1.231
1.478000,1068129,1000.00,12,0,1,857.874,-6.420,4.412,1101.444,0.790,1.236
1.479000,1068130,1000.00,12,0,1,851.677,-9.607,4.606,1098.682,-1.179,1.246
1.480000,1068131,1000.00,12,0,1,846.657,-12.730,4.937,1099.042,-1.764,1.265
1.481000,1068132,1000.00,12,0,1,842.861,-12.216,5.229,1100.123,0.260,1.254
1.482000,1068133,1000.00,12,0,1,838.225,-13.287,5.553,1098.802,-1.002,1.231
1.483000,1068134,1000.00,12,0,1,838.994,-9.641,5.715,1099.570,-0.484,1.169
1.484000,1068135,1000.00,12,0,1,841.852,-3.867,5.741,1100.363,0.731,1.084
1.485000,1068136,1000.00,12,0,1,853.671,6.728,5.808,1102.813,2.273,1.105
1.486000,1068137,1000.00,12,0,1,859.868,13.998,6.106,1100.195,0.883,1.106
1.487000,1068138,1000.00,12,0,1,862.318,12.488,6.332,1097.865,-2.517,1.158
1.488000,1068139,1000.00,12,0,1,867.218,14.147,6.624,1099.402,-0.598,1.161
1.489000,1068140,1000.00,12,0,1,858.499,4.761,6.652,1099.546,-0.091,1.161
1.490000,1068141,1000.00,12,0,1,857.490,-2.096,6.657,1100.411,0.310,1.160
1.491000,1068142,1000.00,12,0,1,860.276,0.897,6.656,1100.123,0.540,1.097
1.492000,1068143,1000.00,12,0,1,857.850,-3.631,6.676,1098.561,-1.216,1.109
1.493000,1068144,1000.00,12,0,1,855.160,-6.757,6.744,1099.498,-0.451,1.093
1.494000,1068145,1000.00,12,0,1,853.839,-8.201,6.842,1099.330,-0.097,1.093
1.495000,1068146,1000.00,12,0,1,853.719,-7.610,6.917,1098.441,-1.076,1.100
1.496000,1068147,1000.00,12,0,1,855.736,-4.746,6.941,1098.898,-0.562,1.103
1.497000,1068148,1000.00,12,0,1,857.082,-2.062,6.945,1099.186,-0.023,1.077
1.498000,1068149,1000.00,12,0,1,857.010,-0.774,6.940,1098.802,-0.312,1.066
1.499000,1068150,1000.00,12,0,1,848.963,-5.541,6.969,1099.907,0.540,1.068
1.500000,1068151,1000.00,12,0,1,845.576,-8.004,7.051,1100.555,1.382,1.082
1.501000,1068152,1000.00,12,0,1,848.482,-2.216,7.050,1098.682,-0.262,1.082
1.502000,1068153,1000.00,12,0,1,851.917,2.812,7.058,1098.297,-0.995,1.083
1.503000,1068154,1000.00,12,0,1,852.782,4.911,7.092,1100.723,1.321,1.094
1.504000,1068155,1000.00,12,0,1,852.830,5.001,7.127,1099.570,0.861,1.098
1.505000,1068156,1000.00,12,0,1,852.950,4.774,7.158,1099.162,-0.342,1.090
1.506000,1068157,1000.00,12,0,1,849.035,1.258,7.160,1098.802,-0.052,1.073
1.507000,1068158,1000.00,12,0,1,849.347,-0.477,7.156,1099.762,0.273,1.052
1.508000,1068159,1000.00,12,0,1,849.131,-0.103,7.150,1100.243,1.181,1.065
1.509000,1068160,1000.00,12,0,1,851.076,-0.594,7.123,1100.795,1.153,1.073
1.510000,1068161,1000.00,12,0,1,854.824,2.327,7.092,1100.051,0.678,1.030
1.511000,1068162,1000.00,12,0,1,859.388,4.318,7.111,1100.819,0.688,1.022
1.512000,1068163,1000.00,12,0,1,859.724,3.668,7.128,1099.883,0.323,1.023
1.513000,1068164,1000.00,12,0,1,861.958,2.889,7.121,1100.219,-0.146,1.022
1.514000,1068165,1000.00,12,0,1,864.336,4.353,7.141,1099.859,0.057,1.022
1.515000,1068166,1000.00,12,0,1,858.018,-1.524,7.138,1099.618,-0.587,0.992
1.516000,1068167,1000.00,12,0,1,851.629,-8.216,7.196,1100.819,0.504,0.964
1.517000,1068168,1000.00,12,0,1,852.398,-6.169,7.114,1100.339,0.374,0.951
1.518000,1068169,1000.00,12,0,1,853.935,-2.631,6.932,1100.651,0.018,0.947
1.519000,1068170,1000.00,12,0,1,851.341,-2.741,6.821,1098.657,-0.975,0.956
1.520000,1068171,1000.00,12,0,1,849.779,-2.980,6.653,1097.144,-2.955,1.017
1.521000,1068172,1000.00,12,0,1,849.179,-1.190,6.447,1097.120,-2.154,1.057
1.522000,1068173,1000.00,12,0,1,847.954,-0.826,6.366,1099.690,-0.027,1.050
1.523000,1068174,1000.00,12,0,1,848.554,0.806,6.330,1099.738,0.991,1.056
1.524000,1068175,1000.00,12,0,1,849.587,2.634,6.315,1099.162,-0.192,1.051
1.525000,1068176,1000.00,12,0,1,848.650,2.019,6.316,1098.850,-0.129,1.045
1.526000,1068177,1000.00,12,0,1,845.552,-0.911,6.314,1099.714,0.358,1.005
1.527000,1068178,1000.00,12,0,1,845.624,-1.813,6.263,1100.363,1.144,1.005
1.528000,1068179,1000.00,12,0,1,844.086,-2.720,6.209,1099.234,0.123,0.999
1.529000,1068180,1000.00,12,0,1,846.633,-2.235,6.067,1096.183,-2.554,1.049
1.530000,1068181,1000.00,12,0,1,850.236,1.200,5.796,1098.009,-1.365,1.037
1.531000,1068182,1000.00,12,0,1,851.629,1.022,5.534,1099.931,1.334,1.054
1.532000,1068183,1000.00,12,0,1,851.389,-0.091,5.205,1100.411,1.392,1.063
1.533000,1068184,1000.00,12,0,1,853.070,0.130,5.024,1100.723,1.552,1.083
1.534000,1068185,1000.00,12,0,1,858.163,3.927,5.025,1099.883,0.710,1.083
1.535000,1068186,1000.00,12,0,1,858.066,4.220,4.970,1098.537,-0.753,1.039
1.536000,1068187,1000.00,12,0,1,854.535,0.057,4.559,1098.417,-0.824,1.038
1.537000,1068188,1000.00,12,0,1,856.721,1.846,4.211,1099.378,0.084,0.975
1.538000,1068189,1000.00,12,0,1,858.859,4.963,3.771,1097.577,-0.898,0.980
1.539000,1068190,1000.00,12,0,1,856.313,3.301,3.740,1099.330,-0.234,0.980
1.540000,1068191,1000.00,12,0,1,855.953,2.885,3.750,1098.345,0.330,0.981
1.541000,1068192,1000.00,12,0,1,855.808,4.020,3.791,1098.633,-0.632,0.982
1.542000,1068193,1000.00,12,0,1,853.358,2.209,3.769,1100.051,1.473,0.989
1.543000,1068194,1000.00,12,0,1,849.395,-0.700,3.647,1099.642,0.821,0.993
1.544000,1068195,1000.00,12,0,1,845.744,-3.546,3.494,1100.891,1.468,1.015
1.545000,1068196,1000.00,12,0,1,846.969,-2.331,3.340,1099.162,0.523,1.006
1.546000,1068197,1000.00,12,0,1,849.395,0.529,3.273,1098.009,-1.494,1.025
1.547000,1068198,1000.00,12,0,1,849.443,0.071,3.260,1097.985,-0.816,1.031
1.548000,1068199,1000.00,12,0,1,851.533,0.543,3.259,1099.859,0.349,1.032
1.549000,1068200,1000.00,12,0,1,852.205,0.479,3.164,1099.955,1.177,1.042
1.550000,1068201,1000.00,12,0,1,849.899,-3.054,2.986,1100.363,0.683,1.028
1.551000,1068202,1000.00,12,0,1,851.028,-3.627,3.014,1099.883,0.671,1.032
1.552000,1068203,1000.00,12,0,1,855.664,-0.162,2.987,1099.762,-0.040,1.022
1.553000,1068204,1000.00,12,0,1,859.604,2.546,2.928,1098.778,-0.551,1.008
1.554000,1068205,1000.00,12,0,1,862.030,3.599,2.886,1098.489,-1.115,1.013
1.555000,1068206,1000.00,12,0,1,863.855,4.128,2.866,1100.219,0.495,1.014
1.556000,1068207,1000.00,12,0,1,861.718,2.013,2.875,1101.132,1.575,1.038
1.557000,1068208,1000.00,12,0,1,856.673,-2.724,2.900,1100.747,0.862,1.045
1.558000,1068209,1000.00,12,0,1,852.446,-5.629,3.007,1098.537,-0.913,1.040
1.559000,1068210,1000.00,12,0,1,850.908,-5.388,3.101,1099.522,-0.792,1.033
1.560000,1068211,1000.00,12,0,1,853.839,-1.061,3.087,1101.900,1.959,1.065
1.561000,1068212,1000.00,12,0,1,855.520,2.684,3.050,1100.963,1.022,1.070
1.562000,1068213,1000.00,12,0,1,859.940,6.482,3.142,1097.432,-2.202,1.114
1.563000,1068214,1000.00,12,0,1,847.978,-0.867,3.118,1098.009,-2.212,1.157
1.564000,1068215,1000.00,12,0,1,847.978,-5.025,3.138,1098.009,-1.064,1.166
1.565000,1068216,1000.00,12,0,1,842.693,-4.053,3.183,1097.024,-2.118,1.201
1.566000,1068217,1000.00,12,0,1,847.593,-3.951,3.015,1099.090,-0.182,1.200
1.567000,1068218,1000.00,12,0,1,851.533,3.585,2.930,1100.795,1.821,1.226
1.568000,1068219,1000.00,12,0,1,848.746,-1.456,2.914,1102.741,2.892,1.292
1.569000,1068220,1000.00,12,0,1,845.119,-5.097,2.977,1101.060,1.770,1.309
1.570000,1068221,1000.00,12,0,1,848.506,-3.546,2.989,1100.459,-0.102,1.240
1.571000,1068222,1000.00,12,0,1,848.146,-3.210,3.019,1098.922,-0.713,1.207
1.572000,1068223,1000.00,12,0,1,845.023,-6.711,3.162,1099.282,-1.264,1.220
1.573000,1068224,1000.00,12,0,1,846.416,-6.101,3.276,1099.835,0.035,1.212
1.574000,1068225,1000.00,12,0,1,847.978,-3.040,3.283,1100.099,-0.077,1.212
1.575000,1068226,1000.00,12,0,1,848.506,-2.756,3.293,1101.180,0.922,1.218
1.576000,1068227,1000.00,12,0,1,844.279,-4.153,3.343,1101.492,1.249,1.230
1.577000,1068228,1000.00,12,0,1,846.681,-2.739,3.356,1100.435,0.069,1.219
1.578000,1068229,1000.00,12,0,1,851.605,4.925,3.405,1099.642,-0.699,1.223
1.579000,1068230,1000.00,12,0,1,858.811,10.805,3.719,1099.210,-1.064,1.178
1.580000,1068231,1000.00,12,0,1,865.056,17.318,4.450,1099.810,-0.409,1.164
1.581000,1068232,1000.00,12,0,1,866.858,17.452,5.086,1101.252,0.884,1.155
1.582000,1068233,1000.00,12,0,1,863.159,12.947,5.406,1101.204,1.054,1.148
1.583000,1068234,1000.00,12,0,1,859.532,7.651,5.513,1100.171,-0.216,1.127
1.584000,1068235,1000.00,12,0,1,852.854,1.459,5.489,1098.826,-1.300,1.138
1.585000,1068236,1000.00,12,0,1,852.277,-0.896,5.458,1099.138,-1.228,1.146
1.586000,1068237,1000.00,12,0,1,854.680,1.737,5.463,1099.883,-0.142,1.140
1.587000,1068238,1000.00,12,0,1,852.926,-0.399,5.457,1099.955,-0.110,1.140
1.588000,1068239,1000.00,12,0,1,853.911,-1.443,5.416,1100.219,0.072,1.133
1.589000,1068240,1000.00,12,0,1,854.007,-1.419,5.400,1101.708,1.196,1.145
1.590000,1068241,1000.00,12,0,1,858.018,-0.531,5.385,1102.020,1.542,1.165
1.591000,1068242,1000.00,12,0,1,862.991,3.468,5.377,1100.363,-0.194,1.162
1.592000,1068243,1000.00,12,0,1,861.093,0.052,5.368,1101.180,-0.057,1.143
1.593000,1068244,1000.00,12,0,1,861.477,-2.033,5.375,1100.555,0.034,1.137
1.594000,1068245,1000.00,12,0,1,859.580,-3.534,5.374,1099.498,-1.436,1.136
1.595000,1068246,1000.00,12,0,1,859.316,-5.242,5.415,1100.843,-0.091,1.134
1.596000,1068247,1000.00,12,0,1,862.750,-1.504,5.419,1099.258,-0.856,1.121
1.597000,1068248,1000.00,12,0,1,863.879,0.043,5.419,1098.489,-2.056,1.152
1.598000,1068249,1000.00,12,0,1,859.580,-2.960,5.435,1101.372,0.838,1.157
1.599000,1068250,1000.00,12,0,1,856.097,-5.652,5.493,1100.387,0.690,1.149
1.600000,1068251,1000.00,12,0,1,857.322,-3.124,5.493,1100.339,-0.255,1.146
1.601000,1068252,1000.00,12,0,1,855.760,-2.090,5.477,1100.435,0.497,1.144
1.602000,1068253,1000.00,12,0,1,854.680,-2.487,5.489,1101.324,0.691,1.148
1.603000,1068254,1000.00,12,0,1,853.575,-1.510,5.481,1100.099,0.206,1.146
1.604000,1068255,1000.00,12,0,1,846.729,-6.152,5.526,1098.321,-1.880,1.166
1.605000,1068256,1000.00,12,0,1,842.717,-9.246,5.649,1097.480,-2.249,1.206
1.606000,1068257,1000.00,12,0,1,841.228,-8.386,5.765,1101.420,0.891,1.192
1.607000,1068258,1000.00,12,0,1,842.141,-6.729,5.830,1100.099,1.081,1.196
1.608000,1068259,1000.00,12,0,1,847.810,-1.002,5.777,1098.922,-1.334,1.204
1.609000,1068260,1000.00,12,0,1,852.013,3.105,5.744,1098.489,-0.889,1.205
1.610000,1068261,1000.00,12,0,1,852.638,2.546,5.753,1100.843,0.560,1.175
1.611000,1068262,1000.00,12,0,1,849.947,-0.776,5.741,1101.012,1.546,1.187
