# FW/GUI: v9.6.1-multi17-dual (PyQt5)
# StartTime: 2026-04-03 16:21:43
# Slot: 13
# DeviceID: 13
# Label: EMG13
# IP: 192.168.137.206
# TCP: 3333
# DeviceFW: EMG_FW_v9.6_MULTI17_DUALCH_RUNTIMECFG_CHEN
# IMU1_RefTime = format(imu_ms) = relative since power-on Time (IMU acquisition time)
IMU1_RefTime,ax_g,ay_g,az_g,gx_dps,gy_dps,gz_dps,mx_uT,my_uT,mz_uT,temp_C,qw,qx,qy,qz
'00:13:37.454,0.059570,0.030273,1.003906,0.304878,1.341463,-0.548781,-4.825000,17.556250,19.356251,30.208,0.56770296,-0.00978625,-0.02885384,-0.82266945
'00:13:37.464,0.059570,0.029785,1.003418,0.365854,1.341463,-0.609756,-4.825000,17.556250,19.356251,30.239,0.56770522,-0.00978729,-0.02886241,-0.82266758
'00:13:37.474,0.059570,0.029297,1.003906,0.304878,1.341463,-0.548781,-4.912500,17.675001,19.412500,30.254,0.56770840,-0.00978972,-0.02885938,-0.82266546
'00:13:37.484,0.060059,0.028809,1.003418,0.304878,1.341463,-0.548781,-4.912500,17.675001,19.412500,30.269,0.56771166,-0.00979679,-0.02885570,-0.82266327
'00:13:37.494,0.060547,0.028809,1.004395,0.304878,1.280488,-0.548781,-5.118750,17.912500,19.637501,30.284,0.56770545,-0.00980217,-0.02884615,-0.82266782
'00:13:37.504,0.060059,0.029297,1.003418,0.304878,1.402439,-0.609756,-5.118750,17.912500,19.637501,30.299,0.56769510,-0.00979428,-0.02883203,-0.82267555
'00:13:37.514,0.061035,0.030273,1.003418,0.304878,1.341463,-0.548781,-4.825000,17.475000,19.331251,30.299,0.56769973,-0.00980343,-0.02884305,-0.82267186
'00:13:37.524,0.060059,0.030273,1.002930,0.304878,1.341463,-0.548781,-4.825000,17.475000,19.331251,30.254,0.56770434,-0.00980710,-0.02885030,-0.82266838
'00:13:37.534,0.059570,0.028320,1.004395,0.304878,1.280488,-0.609756,-4.800000,17.493750,19.312500,30.269,0.56770712,-0.00982134,-0.02884937,-0.82266632
'00:13:37.544,0.060547,0.029297,1.004395,0.304878,1.341463,-0.548781,-4.800000,17.493750,19.312500,30.223,0.56771415,-0.00983270,-0.02885467,-0.82266115
'00:13:37.554,0.060059,0.029297,1.003906,0.365854,1.402439,-0.548781,-4.781250,17.531250,19.281250,30.269,0.56772369,-0.00983545,-0.02886196,-0.82265428
'00:13:37.564,0.061523,0.029297,1.004395,0.365854,1.341463,-0.548781,-4.781250,17.531250,19.281250,30.299,0.56773296,-0.00985046,-0.02887755,-0.82264716
'00:13:37.574,0.059570,0.029297,1.003906,0.365854,1.341463,-0.548781,-5.031250,17.818750,19.537500,30.223,0.56773074,-0.00984404,-0.02887257,-0.82264894
'00:13:37.587,0.059570,0.028809,1.003906,0.365854,1.341463,-0.548781,-5.031250,17.818750,19.537500,30.239,0.56772803,-0.00983828,-0.02886269,-0.82265122
'00:13:37.594,0.059570,0.028809,1.002930,0.365854,1.341463,-0.548781,-5.193750,18.068750,19.706251,30.284,0.56772263,-0.00983151,-0.02885327,-0.82265536
'00:13:37.604,0.059570,0.029297,1.002930,0.365854,1.280488,-0.609756,-4.831250,17.543751,19.312500,30.269,0.56772414,-0.00983752,-0.02886145,-0.82265396
'00:13:37.614,0.058594,0.028320,1.003906,0.365854,1.341463,-0.548781,-4.831250,17.543751,19.312500,30.299,0.56773040,-0.00983741,-0.02885672,-0.82264981
'00:13:37.624,0.060059,0.030273,1.004395,0.365854,1.341463,-0.609756,-4.793750,17.506250,19.387501,30.269,0.56773322,-0.00983951,-0.02887053,-0.82264735
'00:13:37.634,0.058105,0.029785,1.002441,0.365854,1.341463,-0.548781,-4.793750,17.506250,19.387501,30.269,0.56774055,-0.00983313,-0.02887445,-0.82264224
'00:13:37.644,0.060059,0.029785,1.004395,0.365854,1.341463,-0.548781,-4.812500,17.518751,19.375000,30.329,0.56774682,-0.00983629,-0.02888395,-0.82263753
'00:13:37.654,0.059570,0.030762,1.002441,0.304878,1.341463,-0.548781,-4.812500,17.518751,19.375000,30.254,0.56775280,-0.00983621,-0.02889335,-0.82263308
'00:13:37.664,0.059082,0.030273,1.004395,0.304878,1.280488,-0.548781,-4.968750,17.781250,19.462500,30.299,0.56775380,-0.00983373,-0.02889415,-0.82263239
'00:13:37.674,0.059570,0.028809,1.003418,0.426829,1.402439,-0.548781,-4.968750,17.781250,19.462500,30.269,0.56775549,-0.00982506,-0.02889169,-0.82263141
'00:13:37.684,0.059570,0.029785,1.003418,0.365854,1.341463,-0.548781,-5.137500,18.012501,19.731251,30.239,0.56774976,-0.00981411,-0.02888559,-0.82263571
'00:13:37.694,0.059570,0.030273,1.002930,0.365854,1.341463,-0.548781,-5.137500,18.012501,19.731251,30.208,0.56774398,-0.00980158,-0.02888254,-0.82263996
'00:13:37.704,0.061035,0.030273,1.004883,0.365854,1.280488,-0.609756,-4.943750,17.687500,19.443750,30.269,0.56774027,-0.00980724,-0.02889499,-0.82264201
'00:13:37.714,0.060059,0.030273,1.004395,0.304878,1.280488,-0.548781,-4.943750,17.687500,19.443750,30.314,0.56774090,-0.00981072,-0.02889929,-0.82264139
'00:13:37.724,0.058594,0.029785,1.003418,0.365854,1.341463,-0.548781,-4.843750,17.593750,19.375000,30.269,0.56774683,-0.00980536,-0.02890251,-0.82263725
'00:13:37.734,0.059082,0.029297,1.003418,0.304878,1.341463,-0.548781,-4.843750,17.593750,19.375000,30.284,0.56775277,-0.00980770,-0.02890041,-0.82263319
'00:13:37.744,0.058594,0.028320,1.003418,0.304878,1.341463,-0.609756,-4.793750,17.575001,19.393751,30.269,0.56775753,-0.00981387,-0.02889430,-0.82263005
'00:13:37.754,0.059082,0.029297,1.004395,0.365854,1.341463,-0.609756,-4.793750,17.575001,19.393751,30.269,0.56776211,-0.00981558,-0.02889972,-0.82262668
'00:13:37.764,0.060547,0.029785,1.004883,0.365854,1.341463,-0.609756,-4.843750,17.600000,19.337500,30.299,0.56776383,-0.00982038,-0.02891008,-0.82262507
'00:13:37.774,0.060059,0.029785,1.001953,0.365854,1.341463,-0.548781,-4.843750,17.600000,19.337500,30.254,0.56776988,-0.00982319,-0.02891950,-0.82262052
'00:13:37.784,0.060547,0.029297,1.004395,0.304878,1.341463,-0.609756,-5.150000,18.056250,19.631250,30.254,0.56776032,-0.00982162,-0.02890961,-0.82262749
'00:13:37.794,0.060059,0.029785,1.002441,0.365854,1.341463,-0.548781,-5.150000,18.056250,19.631250,30.269,0.56775512,-0.00981318,-0.02890585,-0.82263131
'00:13:37.804,0.060059,0.028809,1.003906,0.304878,1.341463,-0.548781,-5.137500,17.925001,19.606251,30.254,0.56774799,-0.00981019,-0.02888967,-0.82263683
'00:13:37.814,0.060059,0.028809,1.003906,0.304878,1.341463,-0.548781,-5.137500,17.925001,19.606251,30.269,0.56774092,-0.00980729,-0.02887377,-0.82264231
'00:13:37.824,0.060547,0.029297,1.003906,0.365854,1.341463,-0.548781,-4.831250,17.450001,19.318750,30.299,0.56774461,-0.00981328,-0.02887961,-0.82263949
'00:13:37.834,0.059570,0.029785,1.003906,0.365854,1.341463,-0.609756,-4.831250,17.450001,19.318750,30.269,0.56774382,-0.00981167,-0.02888438,-0.82263989
'00:13:37.844,0.059082,0.029297,1.003906,0.365854,1.341463,-0.548781,-4.812500,17.518751,19.325001,30.284,0.56775046,-0.00981158,-0.02888750,-0.82263519
'00:13:37.854,0.059570,0.029785,1.002930,0.365854,1.341463,-0.548781,-4.812500,17.518751,19.325001,30.269,0.56775694,-0.00981247,-0.02889560,-0.82263043
'00:13:37.864,0.059570,0.030273,1.002930,0.365854,1.280488,-0.548781,-4.806250,17.487501,19.306250,30.299,0.56776289,-0.00981565,-0.02890912,-0.82262580
'00:13:37.874,0.061035,0.029785,1.003418,0.304878,1.280488,-0.548781,-5.081250,17.868750,19.525000,30.269,0.56775811,-0.00982090,-0.02890820,-0.82262908
'00:13:37.884,0.060059,0.029297,1.003906,0.365854,1.341463,-0.548781,-5.081250,17.868750,19.525000,30.329,0.56775366,-0.00981517,-0.02890206,-0.82263243
'00:13:37.895,0.060547,0.029785,1.003418,0.304878,1.341463,-0.548781,-5.175000,18.056250,19.618750,30.269,0.56774618,-0.00981041,-0.02889291,-0.82263797
'00:13:37.904,0.059570,0.030273,1.002930,0.365854,1.341463,-0.548781,-5.175000,18.056250,19.618750,30.269,0.56774007,-0.00979757,-0.02888880,-0.82264248
'00:13:37.914,0.059570,0.030762,1.003906,0.304878,1.341463,-0.548781,-4.881250,17.531250,19.387501,30.299,0.56774160,-0.00979379,-0.02889247,-0.82264134
'00:13:37.924,0.059570,0.030273,1.004395,0.365854,1.402439,-0.609756,-4.881250,17.531250,19.387501,30.254,0.56773907,-0.00978432,-0.02889453,-0.82264313
'00:13:37.934,0.059570,0.030273,1.004395,0.365854,1.402439,-0.609756,-4.850000,17.518751,19.250000,30.254,0.56773901,-0.00977637,-0.02889905,-0.82264311
'00:13:37.944,0.060059,0.029297,1.003418,0.365854,1.341463,-0.548781,-4.850000,17.518751,19.250000,30.239,0.56774335,-0.00977977,-0.02890323,-0.82263992
'00:13:37.954,0.060547,0.029785,1.003906,0.304878,1.341463,-0.548781,-4.818750,17.531250,19.293751,30.254,0.56774980,-0.00978902,-0.02891002,-0.82263513
'00:13:37.964,0.060547,0.030273,1.003906,0.365854,1.341463,-0.548781,-4.818750,17.531250,19.293751,30.269,0.56775613,-0.00979317,-0.02892381,-0.82263022
'00:13:37.974,0.059570,0.029785,1.002441,0.365854,1.280488,-0.548781,-4.856250,17.568750,19.400000,30.254,0.56776023,-0.00979694,-0.02893214,-0.82262706
'00:13:37.984,0.058594,0.029785,1.003906,0.304878,1.341463,-0.548781,-4.856250,17.568750,19.400000,30.284,0.56776444,-0.00979354,-0.02892856,-0.82262431
'00:13:37.994,0.059570,0.029785,1.003906,0.304878,1.341463,-0.548781,-5.137500,18.018751,19.643751,30.269,0.56775913,-0.00978577,-0.02891773,-0.82262846
'00:13:38.004,0.060059,0.030273,1.003906,0.365854,1.341463,-0.548781,-5.137500,18.018751,19.643751,30.254,0.56775380,-0.00977590,-0.02891602,-0.82263231
'00:13:38.014,0.059082,0.029297,1.004395,0.365854,1.341463,-0.548781,-4.893750,17.656250,19.481251,30.269,0.56775739,-0.00977352,-0.02891508,-0.82262989
'00:13:38.024,0.059570,0.028809,1.003906,0.365854,1.341463,-0.609756,-4.893750,17.656250,19.481251,30.299,0.56775668,-0.00977574,-0.02891350,-0.82263042
'00:13:38.034,0.061035,0.030273,1.003418,0.365854,1.341463,-0.548781,-4.787500,17.462500,19.287500,30.254,0.56776356,-0.00978386,-0.02893015,-0.82262499
'00:13:38.044,0.060059,0.030273,1.003906,0.304878,1.341463,-0.548781,-4.787500,17.462500,19.287500,30.239,0.56777036,-0.00978931,-0.02893815,-0.82261994
'00:13:38.054,0.060059,0.029785,1.003906,0.304878,1.341463,-0.548781,-4.850000,17.493750,19.293751,30.254,0.56777358,-0.00979315,-0.02893904,-0.82261764
'00:13:38.064,0.058594,0.029297,1.003418,0.365854,1.402439,-0.609756,-4.850000,17.493750,19.293751,30.299,0.56777277,-0.00978328,-0.02893307,-0.82261853
'00:13:38.074,0.059570,0.028809,1.003418,0.365854,1.341463,-0.609756,-4.793750,17.500000,19.318750,30.269,0.56777588,-0.00978893,-0.02893572,-0.82261623
'00:13:38.084,0.058105,0.030273,1.003906,0.304878,1.341463,-0.548781,-4.793750,17.500000,19.318750,30.254,0.56778303,-0.00978362,-0.02893636,-0.82261133
'00:13:38.094,0.059082,0.029785,1.003418,0.365854,1.341463,-0.548781,-5.068750,17.918751,19.537500,30.269,0.56778041,-0.00977269,-0.02893105,-0.82261346
'00:13:38.104,0.059082,0.029297,1.004883,0.365854,1.341463,-0.548781,-5.068750,17.918751,19.537500,30.269,0.56777793,-0.00976351,-0.02892258,-0.82261557
'00:13:38.114,0.058105,0.029297,1.003418,0.365854,1.341463,-0.548781,-5.150000,18.050001,19.625000,30.269,0.56777280,-0.00974683,-0.02890807,-0.82261982
'00:13:38.124,0.060059,0.029297,1.004395,0.304878,1.341463,-0.548781,-5.150000,18.050001,19.625000,30.254,0.56776764,-0.00974383,-0.02889646,-0.82262382
'00:13:38.134,0.060059,0.029785,1.003418,0.304878,1.341463,-0.548781,-4.787500,17.556250,19.237501,30.208,0.56777713,-0.00975308,-0.02890484,-0.82261687
'00:13:38.144,0.061523,0.028809,1.003906,0.365854,1.341463,-0.548781,-4.793750,17.443750,19.293751,30.269,0.56778338,-0.00976924,-0.02891399,-0.82261205
'00:13:38.154,0.060059,0.030273,1.003418,0.365854,1.341463,-0.548781,-4.793750,17.443750,19.293751,30.223,0.56778931,-0.00977134,-0.02892582,-0.82260751
'00:13:38.164,0.059570,0.029785,1.002930,0.304878,1.402439,-0.609756,-4.893750,17.487501,19.350000,30.254,0.56778489,-0.00976578,-0.02891870,-0.82261088
'00:13:38.174,0.060547,0.029297,1.002930,0.304878,1.341463,-0.609756,-4.893750,17.487501,19.350000,30.299,0.56778043,-0.00977202,-0.02891574,-0.82261399
'00:13:38.184,0.059570,0.030273,1.003418,0.365854,1.341463,-0.609756,-5.231250,18.081251,19.737501,30.269,0.56776561,-0.00975538,-0.02890679,-0.82262473
'00:13:38.194,0.058594,0.029297,1.003418,0.365854,1.402439,-0.609756,-5.231250,18.081251,19.737501,30.269,0.56775125,-0.00973311,-0.02888598,-0.82263563
'00:13:38.204,0.058594,0.028809,1.002441,0.304878,1.402439,-0.609756,-5.131250,17.943750,19.643751,30.239,0.56774081,-0.00971988,-0.02886309,-0.82264379
'00:13:38.214,0.059082,0.030762,1.004395,0.304878,1.341463,-0.548781,-5.131250,17.943750,19.643751,30.269,0.56773430,-0.00970619,-0.02885554,-0.82264872
'00:13:38.224,0.058594,0.030273,1.003906,0.304878,1.341463,-0.548781,-4.925000,17.668751,19.431250,30.269,0.56773629,-0.00969978,-0.02885325,-0.82264750
'00:13:38.235,0.058105,0.029785,1.002441,0.365854,1.341463,-0.548781,-4.925000,17.668751,19.431250,30.223,0.56773866,-0.00968898,-0.02885113,-0.82264606
'00:13:38.244,0.058105,0.029785,1.004395,0.365854,1.402439,-0.548781,-4.881250,17.568750,19.375000,30.269,0.56774156,-0.00967696,-0.02884700,-0.82264435
'00:13:38.254,0.058105,0.028809,1.002930,0.365854,1.341463,-0.548781,-4.881250,17.568750,19.375000,30.239,0.56774484,-0.00967230,-0.02884055,-0.82264237
'00:13:38.264,0.060547,0.029785,1.004395,0.365854,1.402439,-0.609756,-4.831250,17.568750,19.312500,30.208,0.56774737,-0.00967543,-0.02884963,-0.82264027
'00:13:38.274,0.059570,0.029785,1.004883,0.304878,1.402439,-0.548781,-4.831250,17.568750,19.312500,30.269,0.56775423,-0.00967618,-0.02885019,-0.82263550
'00:13:38.284,0.058594,0.030762,1.002930,0.304878,1.341463,-0.548781,-5.150000,17.918751,19.587500,30.239,0.56774617,-0.00965923,-0.02883976,-0.82264163
'00:13:38.294,0.060547,0.028809,1.002930,0.365854,1.341463,-0.548781,-5.150000,17.918751,19.587500,30.269,0.56773859,-0.00965762,-0.02883050,-0.82264720
'00:13:38.305,0.061035,0.028809,1.002930,0.304878,1.341463,-0.609756,-5.162500,17.893751,19.568750,30.299,0.56772396,-0.00966074,-0.02881615,-0.82265777
'00:13:38.315,0.060059,0.029297,1.003418,0.365854,1.280488,-0.548781,-5.162500,17.893751,19.568750,30.299,0.56771492,-0.00965787,-0.02880955,-0.82266427
'00:13:38.324,0.060059,0.029785,1.003418,0.304878,1.341463,-0.548781,-4.937500,17.618750,19.343750,30.239,0.56771545,-0.00966041,-0.02880929,-0.82266389
'00:13:38.334,0.060059,0.029297,1.003906,0.304878,1.341463,-0.609756,-4.937500,17.618750,19.343750,30.284,0.56771176,-0.00966484,-0.02880611,-0.82266649
'00:13:38.344,0.059082,0.028320,1.003906,0.304878,1.341463,-0.548781,-4.831250,17.531250,19.356251,30.254,0.56771792,-0.00967318,-0.02879971,-0.82266237
'00:13:38.354,0.059570,0.029785,1.003906,0.365854,1.341463,-0.548781,-4.831250,17.531250,19.356251,30.223,0.56772378,-0.00967531,-0.02880797,-0.82265801
'00:13:38.364,0.058594,0.029785,1.003906,0.304878,1.341463,-0.609756,-4.818750,17.512501,19.318750,30.269,0.56772581,-0.00967523,-0.02880859,-0.82265659
'00:13:38.374,0.057617,0.028809,1.003906,0.426829,1.341463,-0.548781,-4.818750,17.512501,19.318750,30.239,0.56773255,-0.00966768,-0.02880854,-0.82265203
'00:13:38.384,0.058594,0.030273,1.003906,0.365854,1.341463,-0.609756,-4.812500,17.493750,19.312500,30.254,0.56773452,-0.00966285,-0.02881634,-0.82265045
'00:13:38.394,0.059082,0.029785,1.004883,0.304878,1.341463,-0.548781,-5.200000,18.068750,19.706251,30.269,0.56772654,-0.00965171,-0.02880185,-0.82265660
'00:13:38.404,0.059082,0.029297,1.003418,0.304878,1.341463,-0.548781,-5.200000,18.068750,19.706251,30.269,0.56771871,-0.00964295,-0.02878551,-0.82266267
'00:13:38.414,0.060547,0.029785,1.002930,0.304878,1.341463,-0.609756,-4.962500,17.712500,19.487501,30.284,0.56771488,-0.00964886,-0.02878773,-0.82266517
'00:13:38.424,0.059570,0.029297,1.004883,0.304878,1.280488,-0.548781,-4.962500,17.712500,19.487501,30.284,0.56771542,-0.00965534,-0.02878564,-0.82266479
'00:13:38.434,0.060547,0.029297,1.004395,0.304878,1.280488,-0.609756,-4.800000,17.537500,19.318750,30.299,0.56771933,-0.00967414,-0.02879635,-0.82266150
'00:13:38.445,0.059570,0.028320,1.001953,0.365854,1.341463,-0.548781,-4.800000,17.537500,19.318750,30.284,0.56772885,-0.00968538,-0.02880013,-0.82265467
'00:13:38.454,0.059570,0.029297,1.002930,0.365854,1.402439,-0.548781,-4.793750,17.500000,19.331251,30.299,0.56773608,-0.00968673,-0.02880466,-0.82264950
'00:13:38.464,0.059570,0.029785,1.003418,0.365854,1.341463,-0.548781,-4.793750,17.500000,19.331251,30.254,0.56774383,-0.00969053,-0.02881521,-0.82264374
'00:13:38.474,0.059082,0.029785,1.002441,0.304878,1.341463,-0.548781,-4.812500,17.562500,19.350000,30.269,0.56775159,-0.00969448,-0.02881965,-0.82263818
'00:13:38.484,0.060059,0.029785,1.002930,0.365854,1.341463,-0.609756,-4.812500,17.562500,19.350000,30.314,0.56775495,-0.00970049,-0.02883200,-0.82263536
'00:13:38.494,0.059082,0.028320,1.004395,0.365854,1.341463,-0.609756,-5.050000,17.912500,19.550001,30.269,0.56774975,-0.00969736,-0.02882133,-0.82263936
'00:13:38.504,0.059082,0.029785,1.003418,0.304878,1.341463,-0.609756,-5.050000,17.912500,19.550001,30.254,0.56774423,-0.00969190,-0.02881502,-0.82264345
'00:13:38.515,0.059570,0.029297,1.003418,0.304878,1.341463,-0.548781,-5.106250,18.006250,19.512501,30.284,0.56774154,-0.00968886,-0.02880520,-0.82264569
'00:13:38.526,0.059570,0.028320,1.004395,0.365854,1.341463,-0.548781,-5.106250,18.006250,19.512501,30.254,0.56773916,-0.00968644,-0.02879405,-0.82264775
'00:13:38.534,0.060547,0.029297,1.004883,0.365854,1.341463,-0.548781,-4.843750,17.556250,19.312500,30.284,0.56774377,-0.00969316,-0.02880092,-0.82264425
'00:13:38.544,0.058594,0.031738,1.003906,0.243902,1.341463,-0.609756,-4.843750,17.556250,19.312500,30.269,0.56774456,-0.00968716,-0.02880735,-0.82264355
'00:13:38.555,0.059570,0.027344,1.003906,0.304878,1.341463,-0.609756,-4.825000,17.500000,19.243750,30.269,0.56774675,-0.00970241,-0.02879622,-0.82264225
'00:13:38.564,0.059570,0.028320,1.002441,0.365854,1.341463,-0.609756,-4.825000,17.500000,19.243750,30.254,0.56774838,-0.00970883,-0.02879666,-0.82264103
'00:13:38.574,0.061035,0.029785,1.001465,0.304878,1.219512,-0.548781,-4.806250,17.493750,19.293751,30.269,0.56775475,-0.00973157,-0.02881429,-0.82263575
'00:13:38.584,0.061035,0.030273,1.006348,0.365854,1.341463,-0.548781,-4.806250,17.493750,19.293751,30.239,0.56776134,-0.00973917,-0.02883071,-0.82263054
'00:13:38.594,0.062988,0.030762,0.997559,0.670732,1.402439,-0.548781,-4.956250,17.706251,19.418751,30.239,0.56776217,-0.00973190,-0.02887247,-0.82262858
'00:13:38.604,0.057129,0.032715,1.002441,0.365854,1.219512,-0.548781,-4.956250,17.706251,19.418751,30.299,0.56776205,-0.00971203,-0.02888741,-0.82262838
'00:13:38.614,0.059570,0.028320,1.003906,0.487805,1.280488,-0.487805,-5.081250,17.943750,19.600000,30.239,0.56776382,-0.00970875,-0.02888781,-0.82262718
'00:13:38.624,0.060547,0.033203,1.006348,0.426829,1.402439,-0.548781,-5.081250,17.943750,19.600000,30.299,0.56776044,-0.00968566,-0.02890763,-0.82262909
'00:13:38.635,0.061035,0.028320,1.001465,0.365854,1.402439,-0.609756,-4.787500,17.493750,19.281250,30.269,0.56776483,-0.00970049,-0.02891242,-0.82262572
'00:13:38.644,0.060059,0.027344,1.007812,0.243902,1.280488,-0.609756,-4.787500,17.493750,19.281250,30.299,0.56776829,-0.00972304,-0.02890318,-0.82262339
'00:13:38.654,0.057129,0.030273,1.004883,0.365854,1.341463,-0.548781,-4.837500,17.531250,19.312500,30.239,0.56777345,-0.00970791,-0.02890205,-0.82262004
'00:13:38.664,0.061035,0.028809,1.001953,0.304878,1.341463,-0.548781,-4.812500,17.431250,19.343750,30.269,0.56777793,-0.00972435,-0.02890395,-0.82261669
'00:13:38.676,0.061523,0.030273,1.003418,0.304878,1.280488,-0.609756,-4.812500,17.431250,19.343750,30.254,0.56777743,-0.00974474,-0.02892141,-0.82261618
'00:13:38.684,0.061523,0.030273,1.003418,0.304878,1.280488,-0.609756,-5.018750,17.825001,19.500000,30.254,0.56777268,-0.00975264,-0.02892724,-0.82261916
'00:13:38.694,0.059570,0.031738,1.003418,0.365854,1.402439,-0.609756,-5.018750,17.825001,19.500000,30.254,0.56776683,-0.00973433,-0.02893353,-0.82262319
'00:13:38.704,0.058594,0.029297,1.002930,0.365854,1.341463,-0.609756,-5.225000,18.137501,19.712500,30.223,0.56775412,-0.00971786,-0.02891743,-0.82263273
'00:13:38.716,0.060059,0.028809,1.002930,0.304878,1.280488,-0.548781,-5.225000,18.137501,19.712500,30.254,0.56774406,-0.00971923,-0.02890021,-0.82264026
'00:13:38.724,0.060547,0.029297,1.004883,0.304878,1.341463,-0.548781,-4.943750,17.700001,19.425001,30.269,0.56774525,-0.00972475,-0.02889850,-0.82263943
'00:13:38.734,0.060059,0.029297,1.004883,0.426829,1.341463,-0.548781,-4.943750,17.700001,19.425001,30.299,0.56774684,-0.00972285,-0.02890327,-0.82263819
'00:13:38.744,0.060059,0.030273,1.004395,0.304878,1.341463,-0.548781,-4.818750,17.556250,19.312500,30.284,0.56775381,-0.00972865,-0.02891140,-0.82263303
'00:13:38.757,0.059082,0.029297,1.002930,0.365854,1.341463,-0.609756,-4.818750,17.556250,19.312500,30.299,0.56775750,-0.00973027,-0.02891618,-0.82263029
'00:13:38.764,0.059082,0.029297,1.002930,0.365854,1.341463,-0.609756,-4.881250,17.568750,19.400000,30.299,0.56775637,-0.00972871,-0.02891533,-0.82263112
'00:13:38.774,0.061035,0.028809,1.003906,0.304878,1.341463,-0.548781,-4.881250,17.568750,19.400000,30.254,0.56775913,-0.00974218,-0.02891410,-0.82262910
'00:13:38.784,0.059570,0.028809,1.004883,0.304878,1.341463,-0.609756,-4.806250,17.568750,19.387501,30.284,0.56776283,-0.00975161,-0.02891275,-0.82262648
'00:13:38.796,0.059570,0.028809,1.003418,0.365854,1.341463,-0.548781,-4.806250,17.568750,19.387501,30.299,0.56777253,-0.00975968,-0.02891699,-0.82261954
'00:13:38.804,0.059570,0.028809,1.003418,0.365854,1.341463,-0.548781,-5.050000,17.881250,19.556250,30.299,0.56777091,-0.00975691,-0.02891054,-0.82262092
'00:13:38.816,0.058594,0.029785,1.002930,0.365854,1.341463,-0.548781,-5.050000,17.881250,19.556250,30.239,0.56776829,-0.00974202,-0.02890329,-0.82262316
'00:13:38.824,0.058594,0.031250,1.003418,0.365854,1.341463,-0.548781,-5.087500,17.875000,19.575001,30.239,0.56776415,-0.00972591,-0.02890255,-0.82262623
'00:13:38.836,0.058594,0.029785,1.003418,0.304878,1.341463,-0.548781,-5.087500,17.875000,19.575001,30.299,0.56775830,-0.00971246,-0.02888648,-0.82263100
'00:13:38.844,0.059570,0.029785,1.004395,0.365854,1.341463,-0.548781,-4.843750,17.550001,19.318750,30.299,0.56776249,-0.00971289,-0.02889128,-0.82262793
'00:13:38.854,0.060059,0.029297,1.002930,0.365854,1.280488,-0.609756,-4.843750,17.550001,19.318750,30.299,0.56776325,-0.00972254,-0.02889994,-0.82262698
'00:13:38.864,0.060547,0.029785,1.004395,0.243902,1.280488,-0.548781,-4.812500,17.537500,19.318750,30.299,0.56777002,-0.00974045,-0.02890586,-0.82262189
'00:13:38.874,0.060547,0.029785,1.004395,0.304878,1.341463,-0.609756,-4.812500,17.537500,19.318750,30.239,0.56777255,-0.00975052,-0.02891304,-0.82261977
'00:13:38.884,0.060059,0.030273,1.004883,0.304878,1.341463,-0.548781,-4.768750,17.462500,19.275000,30.269,0.56778081,-0.00975741,-0.02892247,-0.82261366
'00:13:38.894,0.061035,0.029297,1.002441,0.426829,1.341463,-0.548781,-4.768750,17.462500,19.275000,30.284,0.56778925,-0.00976791,-0.02893965,-0.82260711
'00:13:38.904,0.060059,0.030273,1.003418,0.304878,1.402439,-0.548781,-4.993750,17.706251,19.493750,30.269,0.56778683,-0.00976064,-0.02893397,-0.82260906
'00:13:38.915,0.059570,0.029785,1.002930,0.304878,1.341463,-0.609756,-5.062500,17.843750,19.493750,30.269,0.56777782,-0.00975432,-0.02892434,-0.82261570
'00:13:38.924,0.058105,0.030273,1.003418,0.304878,1.341463,-0.609756,-5.062500,17.843750,19.493750,30.299,0.56777044,-0.00974029,-0.02891391,-0.82262132
'00:13:38.934,0.059570,0.029297,1.003418,0.426829,1.341463,-0.609756,-4.806250,17.550001,19.337500,30.269,0.56777385,-0.00974165,-0.02892430,-0.82261858
'00:13:38.944,0.059082,0.028809,1.004883,0.304878,1.341463,-0.609756,-4.806250,17.550001,19.337500,30.284,0.56777727,-0.00974791,-0.02892052,-0.82261628
'00:13:38.956,0.058594,0.030273,1.003418,0.304878,1.341463,-0.609756,-4.837500,17.518751,19.343750,30.254,0.56777744,-0.00974268,-0.02892057,-0.82261623
'00:13:38.964,0.059082,0.029785,1.004883,0.365854,1.280488,-0.548781,-4.837500,17.518751,19.343750,30.284,0.56778105,-0.00974392,-0.02892532,-0.82261356
'00:13:38.974,0.060547,0.029785,1.003418,0.365854,1.341463,-0.609756,-4.843750,17.525000,19.256250,30.269,0.56778133,-0.00974876,-0.02893428,-0.82261299
'00:13:38.984,0.058594,0.030273,1.001953,0.426829,1.341463,-0.609756,-4.843750,17.525000,19.256250,30.269,0.56778161,-0.00973810,-0.02894329,-0.82261261
'00:13:38.996,0.060059,0.030273,1.003906,0.304878,1.341463,-0.548781,-4.962500,17.750000,19.443750,30.269,0.56778266,-0.00973784,-0.02894417,-0.82261186
'00:13:39.004,0.060547,0.028809,1.003906,0.304878,1.341463,-0.548781,-4.962500,17.750000,19.443750,30.299,0.56778358,-0.00974435,-0.02893966,-0.82261130
'00:13:39.014,0.060547,0.028809,1.003906,0.304878,1.341463,-0.548781,-5.106250,17.781250,19.556250,30.284,0.56777532,-0.00974461,-0.02892373,-0.82261756
'00:13:39.024,0.059082,0.029785,1.003906,0.365854,1.341463,-0.548781,-5.106250,17.781250,19.556250,30.314,0.56776699,-0.00973015,-0.02891231,-0.82262388
'00:13:39.036,0.059082,0.029785,1.003906,0.304878,1.341463,-0.609756,-5.062500,17.800001,19.575001,30.299,0.56775573,-0.00971998,-0.02889813,-0.82263227
'00:13:39.044,0.058594,0.030273,1.004395,0.304878,1.341463,-0.548781,-5.062500,17.800001,19.575001,30.269,0.56775171,-0.00970974,-0.02888939,-0.82263547
'00:13:39.054,0.059082,0.028809,1.003418,0.304878,1.341463,-0.609756,-4.825000,17.512501,19.412500,30.254,0.56775278,-0.00971547,-0.02888430,-0.82263484
'00:13:39.064,0.060059,0.030273,1.003418,0.365854,1.341463,-0.548781,-4.825000,17.512501,19.412500,30.314,0.56775792,-0.00971789,-0.02889575,-0.82263086
'00:13:39.077,0.059082,0.029785,1.004395,0.365854,1.341463,-0.548781,-4.793750,17.493750,19.325001,30.269,0.56776749,-0.00971799,-0.02890419,-0.82262396
'00:13:39.084,0.059082,0.028809,1.003418,0.304878,1.280488,-0.548781,-4.793750,17.493750,19.325001,30.284,0.56777261,-0.00972602,-0.02890404,-0.82262034
'00:13:39.094,0.060059,0.028809,1.003418,0.304878,1.341463,-0.548781,-4.831250,17.568750,19.312500,30.269,0.56777922,-0.00973704,-0.02890349,-0.82261567
'00:13:39.104,0.060547,0.029785,1.003418,0.365854,1.341463,-0.548781,-4.831250,17.568750,19.312500,30.239,0.56778562,-0.00974372,-0.02891468,-0.82261078
'00:13:39.116,0.059082,0.029297,1.003418,0.365854,1.280488,-0.609756,-4.925000,17.612501,19.393751,30.284,0.56778103,-0.00974336,-0.02891377,-0.82261398
'00:13:39.124,0.060059,0.030273,1.003418,0.304878,1.341463,-0.609756,-4.925000,17.612501,19.393751,30.299,0.56777788,-0.00974331,-0.02891468,-0.82261612
'00:13:39.134,0.059082,0.029785,1.003906,0.365854,1.341463,-0.609756,-5.081250,17.906250,19.600000,30.299,0.56776963,-0.00973202,-0.02890826,-0.82262218
'00:13:39.144,0.060547,0.028809,1.002930,0.304878,1.280488,-0.548781,-5.081250,17.906250,19.600000,30.269,0.56776575,-0.00974043,-0.02890109,-0.82262501
'00:13:39.156,0.059082,0.029297,1.003418,0.365854,1.341463,-0.548781,-4.775000,17.487501,19.318750,30.284,0.56777605,-0.00974391,-0.02890743,-0.82261764
'00:13:39.164,0.059570,0.029785,1.003418,0.365854,1.341463,-0.609756,-4.775000,17.487501,19.318750,30.299,0.56777927,-0.00974666,-0.02891534,-0.82261510
'00:13:39.174,0.058594,0.028809,1.003418,0.365854,1.341463,-0.548781,-4.818750,17.500000,19.306250,30.284,0.56778517,-0.00974601,-0.02891256,-0.82261113
'00:13:39.184,0.059082,0.029785,1.003418,0.304878,1.341463,-0.609756,-4.893750,17.643751,19.418751,30.269,0.56778415,-0.00974482,-0.02891031,-0.82261194
'00:13:39.196,0.060059,0.028809,1.003906,0.365854,1.341463,-0.548781,-4.893750,17.643751,19.418751,30.239,0.56778844,-0.00975089,-0.02891050,-0.82260889
'00:13:39.204,0.061035,0.029297,1.002930,0.304878,1.341463,-0.548781,-4.981250,17.675001,19.487501,30.239,0.56778670,-0.00975646,-0.02890770,-0.82261013
'00:13:39.214,0.060547,0.029785,1.003906,0.304878,1.341463,-0.670732,-4.981250,17.675001,19.487501,30.254,0.56777570,-0.00975826,-0.02890483,-0.82261780
'00:13:39.225,0.059570,0.030273,1.003418,0.365854,1.341463,-0.609756,-5.187500,18.012501,19.712500,30.254,0.56776097,-0.00974181,-0.02889698,-0.82262844
'00:13:39.234,0.060059,0.029297,1.003418,0.365854,1.402439,-0.548781,-5.187500,18.012501,19.712500,30.239,0.56775324,-0.00973057,-0.02888478,-0.82263433
'00:13:39.244,0.059570,0.029297,1.003906,0.304878,1.341463,-0.548781,-4.862500,17.537500,19.350000,30.269,0.56775678,-0.00973465,-0.02888200,-0.82263194
'00:13:39.254,0.059082,0.028320,1.003906,0.365854,1.341463,-0.609756,-4.862500,17.537500,19.350000,30.269,0.56775620,-0.00973662,-0.02887626,-0.82263251
'00:13:39.264,0.059570,0.029785,1.003906,0.304878,1.280488,-0.548781,-4.818750,17.518751,19.312500,30.299,0.56776224,-0.00974541,-0.02888244,-0.82262803
'00:13:39.277,0.058105,0.029785,1.002930,0.304878,1.341463,-0.548781,-4.818750,17.518751,19.312500,30.254,0.56777029,-0.00974062,-0.02887952,-0.82262263
'00:13:39.284,0.061035,0.029785,1.004883,0.365854,1.341463,-0.487805,-4.931250,17.675001,19.456251,30.254,0.56777438,-0.00974410,-0.02888463,-0.82261959
'00:13:39.294,0.059082,0.029785,1.004395,0.365854,1.341463,-0.548781,-4.931250,17.675001,19.456251,30.269,0.56777588,-0.00973821,-0.02888458,-0.82261862
'00:13:39.304,0.059570,0.029785,1.002930,0.365854,1.341463,-0.609756,-4.862500,17.518751,19.375000,30.299,0.56777435,-0.00973704,-0.02888877,-0.82261955
'00:13:39.317,0.060547,0.028320,1.002930,0.304878,1.341463,-0.548781,-4.862500,17.518751,19.375000,30.269,0.56777832,-0.00975417,-0.02888249,-0.82261682
'00:13:39.324,0.059082,0.029297,1.003906,0.304878,1.341463,-0.609756,-5.131250,17.987501,19.637501,30.269,0.56777149,-0.00974845,-0.02887209,-0.82262197
'00:13:39.334,0.060059,0.029785,1.003906,0.426829,1.341463,-0.609756,-5.131250,17.987501,19.637501,30.299,0.56776177,-0.00973779,-0.02887259,-0.82262879
'00:13:39.344,0.059082,0.030273,1.003906,0.304878,1.341463,-0.548781,-4.912500,17.637501,19.412500,30.284,0.56776376,-0.00973375,-0.02887201,-0.82262748
'00:13:39.354,0.060547,0.028809,1.002930,0.304878,1.280488,-0.548781,-4.912500,17.637501,19.412500,30.284,0.56776585,-0.00974814,-0.02887220,-0.82262586
'00:13:39.364,0.059082,0.029785,1.001953,0.304878,1.341463,-0.609756,-4.825000,17.493750,19.268751,30.269,0.56776678,-0.00974905,-0.02887333,-0.82262517
'00:13:39.374,0.058105,0.030273,1.002441,0.304878,1.341463,-0.548781,-4.825000,17.493750,19.268751,30.269,0.56777201,-0.00974265,-0.02887319,-0.82262164
'00:13:39.384,0.059082,0.029785,1.003906,0.304878,1.341463,-0.548781,-4.818750,17.493750,19.312500,30.239,0.56777757,-0.00974387,-0.02887386,-0.82261777
'00:13:39.394,0.060547,0.029297,1.004883,0.243902,1.341463,-0.609756,-4.818750,17.493750,19.312500,30.284,0.56777873,-0.00975775,-0.02887266,-0.82261684
'00:13:39.404,0.059570,0.029785,1.002441,0.304878,1.341463,-0.609756,-4.856250,17.506250,19.281250,30.239,0.56777765,-0.00975936,-0.02887324,-0.82261755
'00:13:39.414,0.059570,0.030273,1.003418,0.365854,1.341463,-0.548781,-4.856250,17.506250,19.281250,30.269,0.56778090,-0.00975597,-0.02888051,-0.82261509
'00:13:39.424,0.059570,0.029785,1.003418,0.365854,1.341463,-0.609756,-4.931250,17.712500,19.456251,30.239,0.56777885,-0.00975314,-0.02888370,-0.82261643
'00:13:39.434,0.059570,0.029785,1.003418,0.365854,1.341463,-0.609756,-5.087500,17.887501,19.637501,30.239,0.56776961,-0.00974400,-0.02887878,-0.82262309
'00:13:39.444,0.060547,0.030273,1.004395,0.365854,1.341463,-0.548781,-5.087500,17.887501,19.637501,30.284,0.56776467,-0.00973842,-0.02887998,-0.82262652
'00:13:39.454,0.060059,0.028809,1.003906,0.365854,1.341463,-0.548781,-4.800000,17.481251,19.281250,30.269,0.56777161,-0.00974685,-0.02888440,-0.82262147
'00:13:39.464,0.059570,0.028320,1.004395,0.365854,1.280488,-0.609756,-4.800000,17.481251,19.281250,30.239,0.56777411,-0.00975846,-0.02888694,-0.82261952
'00:13:39.474,0.058105,0.030273,1.001953,0.365854,1.341463,-0.609756,-4.850000,17.562500,19.381250,30.299,0.56777437,-0.00974852,-0.02889059,-0.82261933
'00:13:39.484,0.058594,0.030273,1.002930,0.365854,1.341463,-0.548781,-4.850000,17.562500,19.381250,30.223,0.56777901,-0.00974139,-0.02889564,-0.82261604
'00:13:39.494,0.060547,0.028809,1.005371,0.304878,1.280488,-0.548781,-4.850000,17.556250,19.356251,30.239,0.56778364,-0.00975762,-0.02889744,-0.82261259
'00:13:39.504,0.059570,0.028809,1.004883,0.365854,1.402439,-0.609756,-4.850000,17.556250,19.356251,30.269,0.56778424,-0.00975639,-0.02889397,-0.82261230
'00:13:39.514,0.059082,0.028809,1.002930,0.365854,1.341463,-0.548781,-5.206250,18.081251,19.631250,30.239,0.56777622,-0.00974436,-0.02887776,-0.82261856
'00:13:39.524,0.059082,0.029297,1.002930,0.304878,1.341463,-0.548781,-5.206250,18.081251,19.631250,30.269,0.56776811,-0.00973372,-0.02886017,-0.82262489
'00:13:39.534,0.061035,0.030273,1.003906,0.304878,1.341463,-0.548781,-5.175000,18.106251,19.706251,30.284,0.56776219,-0.00973218,-0.02885789,-0.82262908
'00:13:39.544,0.060547,0.029297,1.004395,0.304878,1.341463,-0.548781,-5.175000,18.106251,19.706251,30.329,0.56775650,-0.00973167,-0.02884827,-0.82263335
'00:13:39.554,0.059570,0.029297,1.002930,0.365854,1.402439,-0.548781,-4.856250,17.556250,19.375000,30.269,0.56776107,-0.00972933,-0.02884869,-0.82263021
'00:13:39.564,0.059570,0.030762,1.003906,0.365854,1.280488,-0.548781,-4.856250,17.556250,19.375000,30.299,0.56776501,-0.00972979,-0.02886306,-0.82262698
'00:13:39.574,0.059082,0.029297,1.003906,0.304878,1.341463,-0.609756,-4.856250,17.581251,19.356251,30.269,0.56776566,-0.00973204,-0.02886030,-0.82262660
'00:13:39.584,0.058594,0.028809,1.003906,0.365854,1.341463,-0.609756,-4.856250,17.581251,19.356251,30.178,0.56776647,-0.00973045,-0.02885731,-0.82262617
'00:13:39.594,0.057129,0.030273,1.003906,0.365854,1.341463,-0.548781,-4.825000,17.575001,19.337500,30.269,0.56777352,-0.00971693,-0.02885928,-0.82262139
'00:13:39.604,0.059570,0.030762,1.002441,0.304878,1.341463,-0.548781,-4.825000,17.575001,19.337500,30.269,0.56778031,-0.00971854,-0.02886964,-0.82261633
'00:13:39.614,0.059082,0.031250,1.002441,0.304878,1.341463,-0.548781,-5.093750,17.868750,19.556250,30.269,0.56777464,-0.00970418,-0.02886654,-0.82262052
'00:13:39.624,0.059570,0.030273,1.004395,0.243902,1.280488,-0.609756,-5.093750,17.868750,19.556250,30.254,0.56776464,-0.00970331,-0.02885790,-0.82262773
'00:13:39.634,0.059570,0.028320,1.003418,0.304878,1.341463,-0.548781,-5.081250,17.925001,19.562500,30.254,0.56776180,-0.00970447,-0.02884254,-0.82263021
'00:13:39.644,0.060547,0.030273,1.003418,0.365854,1.341463,-0.548781,-5.081250,17.925001,19.562500,30.254,0.56775862,-0.00970044,-0.02884635,-0.82263232
'00:13:39.654,0.059082,0.030273,1.003418,0.304878,1.341463,-0.548781,-4.812500,17.537500,19.381250,30.239,0.56776543,-0.00970175,-0.02885193,-0.82262741
'00:13:39.664,0.059082,0.031250,1.004883,0.304878,1.280488,-0.609756,-4.812500,17.537500,19.381250,30.284,0.56776749,-0.00970308,-0.02886545,-0.82262550
'00:13:39.674,0.060059,0.029785,1.003418,0.365854,1.341463,-0.548781,-4.787500,17.531250,19.268751,30.269,0.56777643,-0.00970975,-0.02887811,-0.82261881
'00:13:39.684,0.060547,0.028809,1.003418,0.365854,1.341463,-0.609756,-4.787500,17.531250,19.268751,30.254,0.56778111,-0.00972265,-0.02888692,-0.82261511
'00:13:39.694,0.060059,0.028809,1.002930,0.426829,1.341463,-0.548781,-4.818750,17.512501,19.331251,30.299,0.56778728,-0.00972788,-0.02889513,-0.82261050
'00:13:39.704,0.059570,0.030273,1.004395,0.365854,1.341463,-0.548781,-4.768750,17.437500,19.243750,30.269,0.56779517,-0.00972904,-0.02890699,-0.82260463
'00:13:39.714,0.059082,0.028809,1.004883,0.304878,1.280488,-0.548781,-4.768750,17.437500,19.243750,30.299,0.56780314,-0.00974050,-0.02890685,-0.82259900
'00:13:39.724,0.059082,0.028809,1.003906,0.365854,1.341463,-0.609756,-4.818750,17.475000,19.318750,30.299,0.56780395,-0.00974204,-0.02890525,-0.82259848
'00:13:39.734,0.059570,0.030273,1.003418,0.304878,1.280488,-0.548781,-4.818750,17.475000,19.318750,30.269,0.56780859,-0.00974814,-0.02891268,-0.82259494
'00:13:39.744,0.059570,0.030762,1.003906,0.304878,1.341463,-0.548781,-5.131250,17.975000,19.637501,30.269,0.56780246,-0.00973694,-0.02890687,-0.82259951
'00:13:39.754,0.060059,0.028809,1.004395,0.304878,1.341463,-0.548781,-5.131250,17.975000,19.637501,30.223,0.56779678,-0.00973596,-0.02889203,-0.82260396
'00:13:39.764,0.060547,0.030762,1.003418,0.365854,1.341463,-0.548781,-4.837500,17.543751,19.375000,30.329,0.56780164,-0.00973825,-0.02890766,-0.82260003
'00:13:39.774,0.059570,0.028809,1.004395,0.304878,1.341463,-0.609756,-4.837500,17.543751,19.375000,30.239,0.56780249,-0.00974541,-0.02890346,-0.82259951
'00:13:39.784,0.060059,0.026367,1.003418,0.426829,1.341463,-0.548781,-4.937500,17.687500,19.425001,30.239,0.56780457,-0.00975493,-0.02889219,-0.82259835
'00:13:39.794,0.057617,0.032227,1.002441,0.365854,1.341463,-0.548781,-4.937500,17.687500,19.425001,30.314,0.56780545,-0.00973125,-0.02890070,-0.82259773
'00:13:39.804,0.058594,0.031738,1.003906,0.304878,1.280488,-0.609756,-4.831250,17.531250,19.281250,30.239,0.56780610,-0.00972601,-0.02891307,-0.82259690
'00:13:39.814,0.061035,0.027344,1.007324,0.365854,1.341463,-0.548781,-4.831250,17.531250,19.281250,30.299,0.56781218,-0.00974350,-0.02890976,-0.82259262
'00:13:39.824,0.060059,0.026855,1.003906,0.426829,1.341463,-0.548781,-5.075000,17.875000,19.500000,30.254,0.56780891,-0.00974547,-0.02889508,-0.82259537
'00:13:39.834,0.058105,0.030762,1.000977,0.365854,1.341463,-0.609756,-5.075000,17.875000,19.500000,30.299,0.56780048,-0.00972530,-0.02889171,-0.82260154
'00:13:39.844,0.058105,0.031250,1.002930,0.304878,1.280488,-0.548781,-4.812500,17.487501,19.318750,30.269,0.56780577,-0.00972033,-0.02890029,-0.82259765
'00:13:39.854,0.060059,0.030762,1.006348,0.243902,1.341463,-0.548781,-4.812500,17.487501,19.318750,30.299,0.56781120,-0.00972615,-0.02890472,-0.82259368
'00:13:39.864,0.061035,0.027344,1.004395,0.304878,1.341463,-0.548781,-4.943750,17.643751,19.418751,30.269,0.56781152,-0.00974231,-0.02889202,-0.82259371
'00:13:39.874,0.059570,0.027832,1.003418,0.426829,1.341463,-0.548781,-4.943750,17.643751,19.418751,30.329,0.56781188,-0.00974252,-0.02888574,-0.82259368
'00:13:39.884,0.059082,0.031250,1.003418,0.365854,1.341463,-0.609756,-4.806250,17.518751,19.343750,30.299,0.56781399,-0.00973596,-0.02890054,-0.82259178
'00:13:39.894,0.059570,0.030762,1.002441,0.304878,1.280488,-0.548781,-4.806250,17.518751,19.343750,30.254,0.56782032,-0.00974186,-0.02891319,-0.82258690
'00:13:39.904,0.060059,0.028320,1.006348,0.304878,1.341463,-0.548781,-4.793750,17.487501,19.256250,30.299,0.56782779,-0.00975482,-0.02890948,-0.82258172
'00:13:39.914,0.059570,0.028809,1.004883,0.365854,1.341463,-0.548781,-4.793750,17.487501,19.256250,30.269,0.56783517,-0.00976026,-0.02891162,-0.82257649
'00:13:39.924,0.058105,0.029297,1.002930,0.365854,1.280488,-0.548781,-4.906250,17.668751,19.418751,30.284,0.56783809,-0.00975641,-0.02890984,-0.82257458
'00:13:39.934,0.060059,0.031250,1.001953,0.365854,1.280488,-0.548781,-4.906250,17.668751,19.418751,30.299,0.56784053,-0.00975596,-0.02892700,-0.82257230
'00:13:39.944,0.059570,0.029785,1.002930,0.365854,1.341463,-0.548781,-5.131250,17.956251,19.618750,30.329,0.56783415,-0.00974516,-0.02891978,-0.82257708
'00:13:39.954,0.060059,0.028320,1.004883,0.426829,1.341463,-0.548781,-5.131250,17.956251,19.618750,30.314,0.56782818,-0.00973936,-0.02891008,-0.82258162
'00:13:39.964,0.060547,0.029297,1.003418,0.365854,1.341463,-0.609756,-4.906250,17.593750,19.387501,30.239,0.56782521,-0.00974357,-0.02891287,-0.82258351
'00:13:39.974,0.059082,0.029785,1.001953,0.365854,1.341463,-0.609756,-4.800000,17.568750,19.293751,30.299,0.56782937,-0.00974394,-0.02892123,-0.82258034
'00:13:39.984,0.060547,0.031738,1.003418,0.304878,1.341463,-0.609756,-4.800000,17.568750,19.293751,30.269,0.56783298,-0.00974740,-0.02894117,-0.82257711
'00:13:39.994,0.060547,0.029785,1.003906,0.365854,1.402439,-0.609756,-4.868750,17.525000,19.337500,30.284,0.56783115,-0.00974624,-0.02894433,-0.82257828
'00:13:40.004,0.059570,0.028809,1.003906,0.365854,1.341463,-0.609756,-4.868750,17.525000,19.337500,30.208,0.56782940,-0.00974790,-0.02894119,-0.82257957
'00:13:40.014,0.058105,0.029297,1.002441,0.365854,1.341463,-0.548781,-4.850000,17.575001,19.350000,30.269,0.56783443,-0.00974186,-0.02893837,-0.82257628
'00:13:40.024,0.058105,0.030273,1.003418,0.365854,1.341463,-0.548781,-4.850000,17.575001,19.350000,30.284,0.56783925,-0.00973186,-0.02894075,-0.82257298
'00:13:40.034,0.059570,0.030762,1.003906,0.243902,1.341463,-0.548781,-5.118750,17.968750,19.600000,30.269,0.56783379,-0.00972433,-0.02893091,-0.82257719
'00:13:40.044,0.058105,0.029785,1.004883,0.365854,1.280488,-0.548781,-5.118750,17.968750,19.600000,30.284,0.56782857,-0.00971086,-0.02892170,-0.82258127
'00:13:40.054,0.059082,0.029297,1.002930,0.304878,1.341463,-0.609756,-5.031250,17.781250,19.462500,30.299,0.56782123,-0.00970586,-0.02890942,-0.82258683
'00:13:40.064,0.059570,0.029297,1.003906,0.365854,1.341463,-0.609756,-5.031250,17.781250,19.462500,30.299,0.56781399,-0.00970041,-0.02890323,-0.82259211
'00:13:40.074,0.060059,0.028809,1.003418,0.365854,1.341463,-0.548781,-4.850000,17.562500,19.306250,30.254,0.56781914,-0.00970741,-0.02890537,-0.82258840
'00:13:40.084,0.060059,0.029297,1.004395,0.304878,1.341463,-0.548781,-4.850000,17.562500,19.306250,30.254,0.56782411,-0.00971519,-0.02890545,-0.82258487
'00:13:40.094,0.060547,0.029785,1.004395,0.365854,1.341463,-0.548781,-4.831250,17.581251,19.325001,30.254,0.56783065,-0.00972206,-0.02891637,-0.82257989
'00:13:40.104,0.060059,0.029297,1.003418,0.304878,1.341463,-0.548781,-4.831250,17.581251,19.325001,30.299,0.56783720,-0.00973124,-0.02891846,-0.82257519
'00:13:40.114,0.059570,0.030273,1.002930,0.304878,1.341463,-0.548781,-4.756250,17.525000,19.256250,30.254,0.56784774,-0.00973751,-0.02892904,-0.82256747
'00:13:40.124,0.060547,0.029785,1.002930,0.304878,1.341463,-0.609756,-4.756250,17.525000,19.256250,30.299,0.56785389,-0.00975082,-0.02894043,-0.82256266
'00:13:40.134,0.059082,0.029297,1.003418,0.365854,1.341463,-0.548781,-4.975000,17.775000,19.500000,30.254,0.56785431,-0.00974549,-0.02893580,-0.82256260
'00:13:40.144,0.059570,0.029785,1.004883,0.304878,1.341463,-0.548781,-4.975000,17.775000,19.500000,30.314,0.56785459,-0.00974373,-0.02893092,-0.82256260
'00:13:40.154,0.058594,0.028809,1.004395,0.426829,1.341463,-0.609756,-5.087500,17.875000,19.562500,30.314,0.56784533,-0.00972929,-0.02891976,-0.82256955
'00:13:40.164,0.058594,0.028809,1.004395,0.426829,1.341463,-0.609756,-5.087500,17.875000,19.562500,30.314,0.56783615,-0.00971510,-0.02890883,-0.82257644
'00:13:40.175,0.058594,0.031250,1.003906,0.365854,1.280488,-0.548781,-4.800000,17.550001,19.318750,30.239,0.56784449,-0.00971094,-0.02892704,-0.82257010
'00:13:40.184,0.059082,0.029297,1.002930,0.365854,1.341463,-0.609756,-4.800000,17.550001,19.318750,30.299,0.56784781,-0.00971303,-0.02893103,-0.82256764
'00:13:40.194,0.059082,0.029785,1.004395,0.304878,1.341463,-0.548781,-4.812500,17.568750,19.293751,30.299,0.56785539,-0.00971566,-0.02893269,-0.82256231
'00:13:40.204,0.059082,0.028809,1.002441,0.304878,1.341463,-0.609756,-4.812500,17.568750,19.293751,30.269,0.56785875,-0.00972231,-0.02892958,-0.82256002
'00:13:40.214,0.059570,0.028320,1.002930,0.365854,1.341463,-0.548781,-4.787500,17.562500,19.337500,30.254,0.56786803,-0.00973213,-0.02893142,-0.82255344
'00:13:40.224,0.059082,0.031738,1.000488,0.365854,1.341463,-0.609756,-5.043750,17.806250,19.525000,30.239,0.56785952,-0.00971447,-0.02893729,-0.82255931
'00:13:40.234,0.060059,0.027832,1.007324,0.243902,1.280488,-0.548781,-5.043750,17.806250,19.525000,30.284,0.56785602,-0.00972664,-0.02891660,-0.82256232
'00:13:40.244,0.061523,0.025879,1.000977,0.365854,1.341463,-0.548781,-5.206250,18.050001,19.625000,30.314,0.56784760,-0.00973901,-0.02889294,-0.82256881
'00:13:40.254,0.057129,0.033691,1.002930,0.365854,1.341463,-0.548781,-5.206250,18.050001,19.625000,30.299,0.56783774,-0.00969742,-0.02889532,-0.82257603
'00:13:40.264,0.059570,0.026367,1.003418,0.365854,1.341463,-0.548781,-4.831250,17.543751,19.375000,30.254,0.56784393,-0.00971244,-0.02888256,-0.82257203
'00:13:40.274,0.062012,0.028320,1.005371,0.304878,1.280488,-0.609756,-4.831250,17.543751,19.375000,30.254,0.56784502,-0.00973982,-0.02888843,-0.82257074
'00:13:40.284,0.058594,0.031738,1.002930,0.304878,1.219512,-0.548781,-4.812500,17.506250,19.281250,30.254,0.56785048,-0.00973986,-0.02890510,-0.82256639
'00:13:40.294,0.058594,0.028320,1.006348,0.365854,1.463415,-0.548781,-4.812500,17.506250,19.281250,30.314,0.56785731,-0.00973208,-0.02889303,-0.82256219
'00:13:40.304,0.059570,0.030762,1.002441,0.426829,1.341463,-0.609756,-4.806250,17.531250,19.325001,30.284,0.56785979,-0.00972749,-0.02891178,-0.82255987
'00:13:40.314,0.058594,0.029785,1.003906,0.243902,1.219512,-0.548781,-4.806250,17.531250,19.325001,30.269,0.56786641,-0.00973900,-0.02891317,-0.82255512
'00:13:40.324,0.058594,0.028320,1.003906,0.426829,1.402439,-0.609756,-4.862500,17.506250,19.375000,30.314,0.56786479,-0.00973007,-0.02890513,-0.82255662
'00:13:40.334,0.060547,0.030762,1.002441,0.365854,1.402439,-0.609756,-4.862500,17.506250,19.375000,30.299,0.56786256,-0.00972586,-0.02891488,-0.82255787
'00:13:40.344,0.060547,0.029785,1.003418,0.243902,1.219512,-0.548781,-5.231250,18.156250,19.706251,30.284,0.56785348,-0.00973266,-0.02890586,-0.82256438
'00:13:40.355,0.059082,0.029785,1.003906,0.304878,1.341463,-0.609756,-5.231250,18.156250,19.706251,30.269,0.56783914,-0.00971820,-0.02888810,-0.82257507
'00:13:40.364,0.061523,0.029297,1.003906,0.365854,1.341463,-0.609756,-4.950000,17.700001,19.468750,30.269,0.56783575,-0.00972612,-0.02889323,-0.82257714
'00:13:40.374,0.060059,0.028809,1.003906,0.304878,1.341463,-0.548781,-4.950000,17.700001,19.468750,30.299,0.56783644,-0.00973185,-0.02888607,-0.82257684
'00:13:40.384,0.060547,0.030762,1.003418,0.304878,1.280488,-0.548781,-4.868750,17.500000,19.331251,30.299,0.56783795,-0.00973884,-0.02889689,-0.82257534
'00:13:40.394,0.060059,0.029297,1.003418,0.365854,1.402439,-0.609756,-4.868750,17.500000,19.331251,30.299,0.56783574,-0.00973683,-0.02889574,-0.82257692
'00:13:40.404,0.060059,0.029785,1.002441,0.304878,1.280488,-0.548781,-4.812500,17.525000,19.318750,30.269,0.56784202,-0.00974885,-0.02890443,-0.82257214
'00:13:40.417,0.058594,0.029785,1.003906,0.365854,1.341463,-0.548781,-4.812500,17.525000,19.318750,30.284,0.56785047,-0.00974363,-0.02890913,-0.82256621
'00:13:40.424,0.059570,0.029297,1.002930,0.365854,1.402439,-0.609756,-4.837500,17.606251,19.418751,30.329,0.56785192,-0.00974287,-0.02891032,-0.82256518
'00:13:40.434,0.060547,0.029785,1.001953,0.304878,1.280488,-0.609756,-4.837500,17.606251,19.418751,30.269,0.56785348,-0.00975725,-0.02892061,-0.82256357
'00:13:40.444,0.060547,0.029297,1.004883,0.365854,1.341463,-0.548781,-5.181250,17.950001,19.656250,30.269,0.56784356,-0.00975029,-0.02890974,-0.82257088
'00:13:40.455,0.060059,0.028809,1.003906,0.304878,1.341463,-0.548781,-5.181250,17.950001,19.656250,30.269,0.56783277,-0.00974549,-0.02888863,-0.82257913
'00:13:40.464,0.060059,0.029297,1.003418,0.304878,1.341463,-0.609756,-5.075000,17.818750,19.512501,30.299,0.56782409,-0.00974354,-0.02887892,-0.82258548
'00:13:40.474,0.058594,0.029785,1.003906,0.304878,1.280488,-0.548781,-5.075000,17.818750,19.512501,30.299,0.56781865,-0.00973600,-0.02886824,-0.82258970
'00:13:40.484,0.058594,0.030762,1.003906,0.365854,1.280488,-0.609756,-4.806250,17.443750,19.281250,30.254,0.56781923,-0.00973181,-0.02887979,-0.82258895
'00:13:40.494,0.059570,0.029785,1.002930,0.304878,1.341463,-0.609756,-4.843750,17.575001,19.275000,30.329,0.56782060,-0.00973528,-0.02888262,-0.82258786
'00:13:40.504,0.060547,0.029297,1.003906,0.304878,1.280488,-0.609756,-4.843750,17.575001,19.275000,30.284,0.56782187,-0.00975013,-0.02888901,-0.82258658
'00:13:40.514,0.059570,0.028809,1.003418,0.365854,1.280488,-0.609756,-4.875000,17.506250,19.312500,30.329,0.56781931,-0.00975562,-0.02888913,-0.82258828
'00:13:40.524,0.058594,0.030762,1.002930,0.365854,1.341463,-0.609756,-4.875000,17.506250,19.312500,30.254,0.56781652,-0.00974369,-0.02889371,-0.82259019
'00:13:40.534,0.058594,0.031250,1.002441,0.304878,1.280488,-0.609756,-5.137500,17.956251,19.600000,30.314,0.56780509,-0.00972920,-0.02889002,-0.82259837
'00:13:40.544,0.059082,0.028809,1.004395,0.365854,1.341463,-0.609756,-5.137500,17.956251,19.600000,30.254,0.56779445,-0.00971918,-0.02887539,-0.82260636
'00:13:40.554,0.060059,0.028320,1.004395,0.304878,1.341463,-0.609756,-5.200000,18.006250,19.643751,30.254,0.56778077,-0.00971674,-0.02885420,-0.82261657
'00:13:40.564,0.059082,0.029785,1.001465,0.365854,1.402439,-0.548781,-5.200000,18.006250,19.643751,30.269,0.56777145,-0.00969692,-0.02884021,-0.82262372
'00:13:40.574,0.060059,0.031738,1.003906,0.304878,1.280488,-0.548781,-4.862500,17.525000,19.350000,30.284,0.56777409,-0.00969885,-0.02885657,-0.82262131
'00:13:40.584,0.061523,0.027344,1.003906,0.304878,1.341463,-0.548781,-4.862500,17.525000,19.350000,30.329,0.56777770,-0.00972163,-0.02885040,-0.82261876
'00:13:40.594,0.058594,0.029785,1.003906,0.365854,1.341463,-0.609756,-4.862500,17.506250,19.268751,30.269,0.56777644,-0.00971469,-0.02885099,-0.82261969
'00:13:40.604,0.058594,0.030762,1.002441,0.304878,1.280488,-0.548781,-4.862500,17.506250,19.268751,30.344,0.56777915,-0.00971187,-0.02885628,-0.82261767
'00:13:40.614,0.059570,0.029785,1.004883,0.304878,1.341463,-0.548781,-4.825000,17.543751,19.281250,30.299,0.56778565,-0.00971629,-0.02885954,-0.82261301
'00:13:40.624,0.059082,0.030273,1.003906,0.365854,1.341463,-0.548781,-4.825000,17.543751,19.281250,30.269,0.56779208,-0.00971318,-0.02886836,-0.82260831
'00:13:40.634,0.059082,0.029785,1.003418,0.365854,1.341463,-0.548781,-4.862500,17.512501,19.381250,30.299,0.56779479,-0.00970965,-0.02887050,-0.82260640
'00:13:40.644,0.058105,0.028320,1.002930,0.304878,1.341463,-0.609756,-4.862500,17.512501,19.381250,30.239,0.56779341,-0.00970946,-0.02885635,-0.82260785
'00:13:40.654,0.060059,0.029297,1.003906,0.304878,1.341463,-0.548781,-5.225000,18.100000,19.731251,30.269,0.56778415,-0.00970381,-0.02884118,-0.82261484
'00:13:40.664,0.058105,0.028809,1.002441,0.304878,1.280488,-0.548781,-5.225000,18.100000,19.731251,30.299,0.56777493,-0.00969428,-0.02881982,-0.82262207
'00:13:40.674,0.059082,0.030273,1.003418,0.365854,1.341463,-0.548781,-4.950000,17.737501,19.425001,30.223,0.56777685,-0.00968721,-0.02882419,-0.82262067
'00:13:40.685,0.059082,0.030273,1.004395,0.365854,1.280488,-0.609756,-4.950000,17.737501,19.425001,30.284,0.56777399,-0.00968396,-0.02883187,-0.82262242
'00:13:40.694,0.060059,0.030273,1.003418,0.365854,1.341463,-0.548781,-4.875000,17.531250,19.375000,30.284,0.56777611,-0.00968395,-0.02883987,-0.82262067
'00:13:40.704,0.060547,0.029297,1.002930,0.365854,1.341463,-0.548781,-4.875000,17.531250,19.375000,30.284,0.56777863,-0.00969056,-0.02884516,-0.82261867
'00:13:40.714,0.061035,0.029297,1.002441,0.365854,1.280488,-0.548781,-4.806250,17.450001,19.275000,30.254,0.56778420,-0.00970707,-0.02885910,-0.82261414
'00:13:40.724,0.059082,0.030762,1.004395,0.365854,1.341463,-0.548781,-4.806250,17.450001,19.275000,30.314,0.56778965,-0.00970192,-0.02886975,-0.82261007
'00:13:40.734,0.060547,0.030273,1.003418,0.365854,1.341463,-0.609756,-4.862500,17.506250,19.312500,30.269,0.56778799,-0.00970430,-0.02888038,-0.82261081
'00:13:40.744,0.060059,0.029297,1.004395,0.304878,1.341463,-0.609756,-4.862500,17.506250,19.312500,30.269,0.56778650,-0.00971059,-0.02887867,-0.82261183
'00:13:40.754,0.058594,0.028809,1.005371,0.365854,1.341463,-0.548781,-4.968750,17.725000,19.500000,30.269,0.56778669,-0.00970464,-0.02886922,-0.82261210
'00:13:40.766,0.059082,0.029297,1.004395,0.426829,1.341463,-0.609756,-5.187500,18.100000,19.743750,30.299,0.56777339,-0.00968666,-0.02885995,-0.82262182
'00:13:40.774,0.059570,0.029785,1.004395,0.304878,1.341463,-0.548781,-5.187500,18.100000,19.743750,30.314,0.56776792,-0.00968050,-0.02885053,-0.82262600
'00:13:40.785,0.060547,0.029785,1.003418,0.365854,1.341463,-0.548781,-4.825000,17.575001,19.318750,30.299,0.56777582,-0.00968946,-0.02886462,-0.82261994
'00:13:40.794,0.060059,0.031738,1.002930,0.365854,1.341463,-0.609756,-4.825000,17.575001,19.318750,30.299,0.56777793,-0.00968725,-0.02888440,-0.82261781
'00:13:40.804,0.060547,0.030273,1.003418,0.365854,1.280488,-0.609756,-4.850000,17.556250,19.281250,30.254,0.56777836,-0.00969560,-0.02890011,-0.82261687
'00:13:40.814,0.060547,0.029297,1.003906,0.365854,1.280488,-0.548781,-4.850000,17.556250,19.281250,30.269,0.56778331,-0.00970765,-0.02890980,-0.82261297
'00:13:40.824,0.059570,0.029297,1.004395,0.304878,1.341463,-0.609756,-4.831250,17.568750,19.325001,30.269,0.56778541,-0.00971398,-0.02890967,-0.82261145
'00:13:40.834,0.059570,0.029785,1.003418,0.365854,1.341463,-0.548781,-4.831250,17.568750,19.325001,30.284,0.56779181,-0.00971563,-0.02891699,-0.82260676
'00:13:40.844,0.060059,0.028809,1.003906,0.365854,1.280488,-0.548781,-4.968750,17.656250,19.387501,30.314,0.56779053,-0.00972099,-0.02891473,-0.82260766
'00:13:40.854,0.060547,0.029785,1.002930,0.365854,1.341463,-0.548781,-4.968750,17.656250,19.387501,30.299,0.56778917,-0.00972099,-0.02891721,-0.82260850
'00:13:40.866,0.058105,0.029297,1.003418,0.304878,1.341463,-0.609756,-5.075000,17.850000,19.531250,30.314,0.56777861,-0.00970671,-0.02889587,-0.82261672
'00:13:40.874,0.059570,0.030273,1.004395,0.304878,1.341463,-0.548781,-5.075000,17.850000,19.531250,30.239,0.56777495,-0.00970076,-0.02889041,-0.82261950
'00:13:40.884,0.060547,0.030762,1.004395,0.365854,1.402439,-0.548781,-4.862500,17.506250,19.325001,30.284,0.56777768,-0.00969687,-0.02890002,-0.82261732
'00:13:40.894,0.059570,0.030273,1.004883,0.304878,1.341463,-0.548781,-4.862500,17.506250,19.325001,30.284,0.56778034,-0.00969682,-0.02890141,-0.82261544
'00:13:40.904,0.059570,0.030273,1.004883,0.304878,1.341463,-0.548781,-4.837500,17.537500,19.337500,30.284,0.56778542,-0.00969878,-0.02890545,-0.82261177
'00:13:40.914,0.060547,0.029297,1.003906,0.304878,1.341463,-0.548781,-4.837500,17.537500,19.337500,30.299,0.56779063,-0.00971011,-0.02890802,-0.82260795
'00:13:40.925,0.060059,0.029785,1.002930,0.365854,1.341463,-0.548781,-4.825000,17.518751,19.250000,30.239,0.56779714,-0.00971448,-0.02891778,-0.82260306
'00:13:40.934,0.059570,0.030762,1.003906,0.304878,1.341463,-0.548781,-4.825000,17.518751,19.250000,30.269,0.56780222,-0.00971462,-0.02892459,-0.82259931
'00:13:40.944,0.060059,0.029785,1.003906,0.304878,1.341463,-0.609756,-4.881250,17.568750,19.250000,30.269,0.56780093,-0.00971834,-0.02892526,-0.82260014
'00:13:40.954,0.059082,0.028809,1.003906,0.304878,1.341463,-0.548781,-4.881250,17.568750,19.250000,30.254,0.56780425,-0.00972061,-0.02891663,-0.82259812
'00:13:40.966,0.059570,0.028809,1.004883,0.365854,1.341463,-0.548781,-5.037500,17.825001,19.562500,30.269,0.56780120,-0.00971666,-0.02890568,-0.82260066
'00:13:40.974,0.060547,0.029785,1.004883,0.304878,1.341463,-0.609756,-5.037500,17.825001,19.562500,30.284,0.56779547,-0.00971763,-0.02890242,-0.82260472
'00:13:40.984,0.059570,0.029297,1.004395,0.304878,1.341463,-0.609756,-5.018750,17.768751,19.512501,30.314,0.56778859,-0.00971571,-0.02889233,-0.82260984
'00:13:40.994,0.060547,0.029785,1.004395,0.304878,1.341463,-0.548781,-5.018750,17.768751,19.512501,30.284,0.56778601,-0.00971745,-0.02888884,-0.82261173
'00:13:41.004,0.060547,0.029297,1.003906,0.365854,1.341463,-0.548781,-4.831250,17.493750,19.312500,30.254,0.56779076,-0.00972523,-0.02889551,-0.82260812
'00:13:41.014,0.059570,0.028809,1.002930,0.365854,1.341463,-0.548781,-4.918750,17.700001,19.425001,30.254,0.56779398,-0.00972737,-0.02889385,-0.82260593
'00:13:41.024,0.059082,0.030273,1.002930,0.304878,1.341463,-0.548781,-4.918750,17.700001,19.425001,30.284,0.56779685,-0.00972409,-0.02889422,-0.82260398
'00:13:41.034,0.060059,0.029297,1.003418,0.365854,1.341463,-0.609756,-4.818750,17.487501,19.412500,30.299,0.56779749,-0.00972999,-0.02889970,-0.82260328
'00:13:41.044,0.060547,0.029297,1.004395,0.365854,1.280488,-0.548781,-4.818750,17.487501,19.412500,30.269,0.56780231,-0.00974282,-0.02890955,-0.82259945
'00:13:41.054,0.059082,0.029785,1.003906,0.304878,1.280488,-0.609756,-5.068750,17.868750,19.643751,30.254,0.56779356,-0.00973918,-0.02890167,-0.82260581
'00:13:41.064,0.059570,0.029297,1.002930,0.304878,1.280488,-0.548781,-5.068750,17.868750,19.643751,30.284,0.56778932,-0.00974056,-0.02889341,-0.82260901
'00:13:41.074,0.058105,0.028809,1.003906,0.365854,1.341463,-0.548781,-5.175000,18.000000,19.668751,30.254,0.56778135,-0.00972399,-0.02887330,-0.82261541
'00:13:41.085,0.059570,0.029785,1.002930,0.365854,1.341463,-0.609756,-5.175000,18.000000,19.668751,30.239,0.56776761,-0.00971079,-0.02886410,-0.82262537
'00:13:41.094,0.060059,0.030273,1.002930,0.365854,1.402439,-0.548781,-4.875000,17.500000,19.381250,30.284,0.56776909,-0.00970616,-0.02886837,-0.82262426
'00:13:41.104,0.060547,0.030273,1.002930,0.243902,1.280488,-0.609756,-4.875000,17.500000,19.381250,30.284,0.56776593,-0.00971842,-0.02887226,-0.82262616
'00:13:41.114,0.061523,0.029297,1.002441,0.304878,1.341463,-0.548781,-4.825000,17.525000,19.318750,30.284,0.56777182,-0.00973581,-0.02888047,-0.82262160
'00:13:41.125,0.060547,0.028809,1.004883,0.304878,1.341463,-0.548781,-4.825000,17.525000,19.318750,30.269,0.56777841,-0.00975023,-0.02888106,-0.82261685
'00:13:41.134,0.062012,0.028809,1.003906,0.304878,1.341463,-0.548781,-4.843750,17.550001,19.350000,30.314,0.56778294,-0.00976859,-0.02888606,-0.82261333
'00:13:41.144,0.060547,0.028320,1.003906,0.304878,1.341463,-0.609756,-4.843750,17.550001,19.350000,30.269,0.56778371,-0.00978241,-0.02888315,-0.82261274
'00:13:41.154,0.060059,0.029297,1.003906,0.304878,1.341463,-0.609756,-5.106250,17.818750,19.568750,30.254,0.56777185,-0.00977806,-0.02886986,-0.82262145
'00:13:41.164,0.060547,0.028809,1.002930,0.365854,1.341463,-0.609756,-5.106250,17.818750,19.568750,30.284,0.56776019,-0.00977555,-0.02886073,-0.82262984
'00:13:41.174,0.059082,0.029785,1.002930,0.304878,1.341463,-0.548781,-5.306250,18.175001,19.712500,30.284,0.56774735,-0.00975860,-0.02884092,-0.82263960
'00:13:41.184,0.059082,0.030273,1.003418,0.304878,1.341463,-0.548781,-5.306250,18.175001,19.712500,30.269,0.56773452,-0.00974002,-0.02882397,-0.82264927
'00:13:41.194,0.059082,0.030273,1.001953,0.304878,1.341463,-0.609756,-4.818750,17.481251,19.325001,30.269,0.56773545,-0.00973966,-0.02882885,-0.82264847
'00:13:41.205,0.059082,0.029297,1.003906,0.304878,1.280488,-0.548781,-4.818750,17.481251,19.325001,30.239,0.56774134,-0.00974804,-0.02883041,-0.82264424
'00:13:41.214,0.058594,0.028809,1.004395,0.365854,1.341463,-0.609756,-4.856250,17.468750,19.375000,30.329,0.56773967,-0.00974504,-0.02882548,-0.82264560
'00:13:41.224,0.058594,0.029785,1.003418,0.304878,1.341463,-0.548781,-4.856250,17.468750,19.375000,30.284,0.56774195,-0.00974130,-0.02882162,-0.82264421
'00:13:41.234,0.059570,0.030273,1.002930,0.365854,1.341463,-0.548781,-4.800000,17.406250,19.281250,30.254,0.56774696,-0.00974055,-0.02883209,-0.82264039
'00:13:41.245,0.060059,0.028809,1.004883,0.304878,1.341463,-0.609756,-4.837500,17.512501,19.287500,30.239,0.56774780,-0.00975077,-0.02883030,-0.82263976
'00:13:41.254,0.059082,0.029785,1.003418,0.365854,1.341463,-0.548781,-4.837500,17.512501,19.287500,30.299,0.56775229,-0.00974840,-0.02883484,-0.82263653
'00:13:41.264,0.060059,0.030273,1.001465,0.304878,1.341463,-0.548781,-4.893750,17.631250,19.400000,30.239,0.56775551,-0.00975121,-0.02884095,-0.82263406
'00:13:41.275,0.059570,0.028320,1.003418,0.365854,1.341463,-0.548781,-4.893750,17.631250,19.400000,30.284,0.56775956,-0.00975590,-0.02883729,-0.82263133
'00:13:41.285,0.059570,0.029785,1.003418,0.304878,1.341463,-0.609756,-4.912500,17.643751,19.400000,30.299,0.56775750,-0.00975626,-0.02883682,-0.82263277
'00:13:41.294,0.060059,0.030273,1.002930,0.304878,1.280488,-0.548781,-4.912500,17.643751,19.400000,30.269,0.56775934,-0.00976146,-0.02884340,-0.82263120
'00:13:41.305,0.060059,0.028320,1.006836,0.365854,1.341463,-0.548781,-4.812500,17.500000,19.350000,30.269,0.56776638,-0.00977151,-0.02884382,-0.82262622
'00:13:41.314,0.061035,0.028809,1.003906,0.365854,1.341463,-0.609756,-4.812500,17.500000,19.350000,30.254,0.56776800,-0.00978315,-0.02885110,-0.82262470
'00:13:41.325,0.058594,0.028809,1.003418,0.304878,1.280488,-0.548781,-4.843750,17.512501,19.331251,30.223,0.56777265,-0.00978870,-0.02884582,-0.82262161
'00:13:41.334,0.060059,0.030762,1.003418,0.304878,1.341463,-0.548781,-4.843750,17.512501,19.331251,30.254,0.56777616,-0.00978961,-0.02885390,-0.82261890
'00:13:41.344,0.059570,0.031250,1.002441,0.365854,1.341463,-0.548781,-4.800000,17.506250,19.356251,30.269,0.56778278,-0.00978581,-0.02887166,-0.82261375
'00:13:41.354,0.059570,0.028320,1.005859,0.304878,1.280488,-0.548781,-4.800000,17.506250,19.356251,30.269,0.56778981,-0.00980025,-0.02886971,-0.82260879
'00:13:41.365,0.058105,0.027832,1.003418,0.304878,1.280488,-0.609756,-5.175000,18.056250,19.675001,30.299,0.56777757,-0.00979415,-0.02884222,-0.82261828
'00:13:41.374,0.059082,0.030273,1.004395,0.365854,1.341463,-0.609756,-5.175000,18.056250,19.675001,30.269,0.56776736,-0.00977885,-0.02883652,-0.82262571
'00:13:41.384,0.061035,0.029297,1.004395,0.304878,1.341463,-0.609756,-5.006250,17.812500,19.562500,30.299,0.56776222,-0.00978569,-0.02883495,-0.82262923
'00:13:41.394,0.060059,0.028809,1.003906,0.365854,1.341463,-0.548781,-5.006250,17.812500,19.562500,30.269,0.56776163,-0.00978624,-0.02883147,-0.82262975
'00:13:41.406,0.061035,0.029785,1.002441,0.365854,1.402439,-0.609756,-4.818750,17.468750,19.375000,30.269,0.56776219,-0.00979118,-0.02884359,-0.82262888
'00:13:41.414,0.059570,0.030762,1.001465,0.365854,1.341463,-0.609756,-4.818750,17.468750,19.375000,30.254,0.56776228,-0.00978845,-0.02885416,-0.82262848
'00:13:41.424,0.059570,0.031250,1.003418,0.304878,1.341463,-0.548781,-4.875000,17.531250,19.387501,30.239,0.56776415,-0.00978336,-0.02886180,-0.82262698
'00:13:41.434,0.060547,0.029297,1.004883,0.304878,1.341463,-0.609756,-4.875000,17.531250,19.387501,30.314,0.56776202,-0.00979094,-0.02886148,-0.82262837
'00:13:41.445,0.059570,0.029785,1.004883,0.365854,1.341463,-0.609756,-4.831250,17.437500,19.306250,30.329,0.56776091,-0.00978906,-0.02886630,-0.82262899
'00:13:41.454,0.058594,0.029785,1.004395,0.365854,1.280488,-0.548781,-4.831250,17.437500,19.306250,30.269,0.56776383,-0.00978683,-0.02886962,-0.82262689
'00:13:41.464,0.060059,0.028809,1.004883,0.365854,1.341463,-0.548781,-5.187500,18.043751,19.643751,30.299,0.56775616,-0.00977988,-0.02885715,-0.82263270
'00:13:41.474,0.060059,0.029297,1.004395,0.365854,1.402439,-0.548781,-5.187500,18.043751,19.643751,30.284,0.56774860,-0.00976695,-0.02884477,-0.82263850
'00:13:41.486,0.061035,0.029785,1.001953,0.365854,1.341463,-0.548781,-5.200000,18.043751,19.725000,30.299,0.56773789,-0.00976108,-0.02884124,-0.82264609
'00:13:41.494,0.061035,0.030273,1.003418,0.304878,1.341463,-0.548781,-5.200000,18.043751,19.725000,30.284,0.56773068,-0.00975793,-0.02883716,-0.82265125
'00:13:41.504,0.060059,0.030273,1.000488,0.304878,1.280488,-0.548781,-4.862500,17.575001,19.350000,30.284,0.56773481,-0.00976623,-0.02884789,-0.82264792
'00:13:41.514,0.060547,0.029297,1.003418,0.365854,1.341463,-0.548781,-4.862500,17.575001,19.350000,30.284,0.56773932,-0.00977287,-0.02885496,-0.82264449
'00:13:41.525,0.059082,0.028809,1.004883,0.304878,1.280488,-0.548781,-4.843750,17.500000,19.331251,30.254,0.56774374,-0.00978111,-0.02885084,-0.82264148
'00:13:41.534,0.059570,0.029297,1.005371,0.304878,1.341463,-0.609756,-4.843750,17.518751,19.356251,30.269,0.56774375,-0.00978458,-0.02884921,-0.82264149
'00:13:41.544,0.058594,0.028809,1.003906,0.365854,1.341463,-0.548781,-4.843750,17.518751,19.356251,30.284,0.56774831,-0.00978233,-0.02884576,-0.82263849
'00:13:41.554,0.058594,0.029785,1.002930,0.304878,1.341463,-0.548781,-5.018750,17.775000,19.562500,30.239,0.56774580,-0.00977309,-0.02883618,-0.82264067
'00:13:41.565,0.060059,0.030273,1.002441,0.304878,1.341463,-0.609756,-5.018750,17.775000,19.562500,30.284,0.56773812,-0.00976982,-0.02883528,-0.82264604
'00:13:41.574,0.060059,0.029785,1.002441,0.365854,1.280488,-0.548781,-4.981250,17.768751,19.512501,30.284,0.56773814,-0.00977208,-0.02884128,-0.82264579
'00:13:41.584,0.059082,0.028809,1.003906,0.304878,1.341463,-0.548781,-4.981250,17.768751,19.512501,30.329,0.56773849,-0.00977132,-0.02883065,-0.82264592
'00:13:41.594,0.059570,0.030273,1.002930,0.365854,1.341463,-0.609756,-4.943750,17.631250,19.375000,30.299,0.56773409,-0.00976458,-0.02883499,-0.82264889
'00:13:41.606,0.059082,0.029785,1.004395,0.365854,1.341463,-0.548781,-4.943750,17.631250,19.375000,30.269,0.56773423,-0.00975550,-0.02883385,-0.82264894
'00:13:41.615,0.060547,0.029785,1.005371,0.304878,1.341463,-0.548781,-4.818750,17.518751,19.281250,30.284,0.56774000,-0.00976382,-0.02884028,-0.82264464
'00:13:41.624,0.060059,0.029785,1.005371,0.365854,1.341463,-0.548781,-4.818750,17.518751,19.281250,30.359,0.56774579,-0.00976686,-0.02884884,-0.82264030
'00:13:41.634,0.059082,0.029785,1.003906,0.365854,1.341463,-0.609756,-4.806250,17.543751,19.375000,30.299,0.56774892,-0.00976631,-0.02885642,-0.82263788
'00:13:41.647,0.060059,0.029785,1.002441,0.365854,1.341463,-0.548781,-4.806250,17.543751,19.375000,30.299,0.56775857,-0.00977323,-0.02887171,-0.82263061
'00:13:41.654,0.060059,0.029785,1.002441,0.365854,1.341463,-0.548781,-4.850000,17.543751,19.343750,30.299,0.56776167,-0.00977489,-0.02887737,-0.82262825
'00:13:41.664,0.059082,0.030762,1.002441,0.365854,1.341463,-0.548781,-4.850000,17.543751,19.343750,30.299,0.56776591,-0.00976795,-0.02888713,-0.82262506
'00:13:41.674,0.060059,0.030273,1.003906,0.304878,1.341463,-0.609756,-5.212500,18.131250,19.725000,30.284,0.56775357,-0.00975872,-0.02887856,-0.82263399
'00:13:41.686,0.059082,0.028809,1.003906,0.304878,1.341463,-0.548781,-5.212500,18.131250,19.725000,30.329,0.56774448,-0.00974842,-0.02885439,-0.82264123
'00:13:41.694,0.059082,0.028809,1.003906,0.304878,1.341463,-0.548781,-5.143750,17.968750,19.693750,30.329,0.56773919,-0.00974301,-0.02883951,-0.82264547
'00:13:41.704,0.060059,0.028320,1.004883,0.304878,1.341463,-0.548781,-5.143750,17.968750,19.693750,30.299,0.56773272,-0.00974335,-0.02882182,-0.82265055
'00:13:41.714,0.059570,0.028809,1.004395,0.365854,1.341463,-0.548781,-4.843750,17.537500,19.362501,30.269,0.56773783,-0.00974740,-0.02882297,-0.82264694
'00:13:41.727,0.060059,0.030273,1.003418,0.304878,1.341463,-0.548781,-4.856250,17.518751,19.375000,30.299,0.56774215,-0.00975149,-0.02883056,-0.82264364
'00:13:41.734,0.060059,0.030273,1.003418,0.304878,1.341463,-0.548781,-4.856250,17.518751,19.375000,30.299,0.56774445,-0.00975363,-0.02883455,-0.82264189
'00:13:41.744,0.059082,0.029785,1.002930,0.365854,1.341463,-0.548781,-4.856250,17.518751,19.375000,30.314,0.56774790,-0.00975023,-0.02883820,-0.82263942
'00:13:41.754,0.059082,0.030273,1.002441,0.426829,1.341463,-0.548781,-4.818750,17.475000,19.331251,30.299,0.56775305,-0.00974360,-0.02885111,-0.82263549
'00:13:41.766,0.059570,0.029785,1.002930,0.365854,1.280488,-0.609756,-4.962500,17.731251,19.431250,30.269,0.56774869,-0.00974394,-0.02885726,-0.82263828
'00:13:41.774,0.058594,0.029297,1.003418,0.304878,1.280488,-0.548781,-4.962500,17.731251,19.431250,30.284,0.56774935,-0.00974385,-0.02885241,-0.82263799
'00:13:41.784,0.059570,0.030762,1.003418,0.304878,1.341463,-0.609756,-4.962500,17.731251,19.431250,30.299,0.56774563,-0.00973889,-0.02885541,-0.82264051
'00:13:41.794,0.059570,0.029297,1.003418,0.365854,1.341463,-0.609756,-5.175000,18.050001,19.712500,30.299,0.56773435,-0.00972935,-0.02884563,-0.82264875
'00:13:41.806,0.060547,0.029785,1.004395,0.304878,1.341463,-0.609756,-4.787500,17.493750,19.293751,30.284,0.56773866,-0.00974295,-0.02885676,-0.82264523
'00:13:41.814,0.059570,0.028809,1.004395,0.365854,1.341463,-0.487805,-4.787500,17.493750,19.293751,30.284,0.56774873,-0.00974841,-0.02885997,-0.82263810
'00:13:41.824,0.060059,0.029297,1.004883,0.304878,1.341463,-0.548781,-4.806250,17.531250,19.325001,30.239,0.56775617,-0.00975809,-0.02886339,-0.82263274
'00:13:41.834,0.059570,0.029785,1.003906,0.304878,1.341463,-0.609756,-4.806250,17.531250,19.325001,30.269,0.56775909,-0.00976303,-0.02886804,-0.82263050
'00:13:41.847,0.058594,0.028809,1.003906,0.365854,1.341463,-0.609756,-4.793750,17.531250,19.356251,30.314,0.56776422,-0.00976449,-0.02886868,-0.82262692
'00:13:41.854,0.060059,0.028809,1.004395,0.304878,1.280488,-0.609756,-4.793750,17.531250,19.356251,30.299,0.56776678,-0.00977605,-0.02887189,-0.82262490
'00:13:41.864,0.059570,0.030273,1.003418,0.304878,1.341463,-0.609756,-5.000000,17.781250,19.493750,30.284,0.56776138,-0.00977105,-0.02886992,-0.82262875
'00:13:41.874,0.058594,0.030273,1.004395,0.304878,1.341463,-0.609756,-5.000000,17.781250,19.493750,30.269,0.56775605,-0.00976058,-0.02886390,-0.82263277
'00:13:41.885,0.059570,0.028809,1.003418,0.365854,1.341463,-0.609756,-5.006250,17.862501,19.475000,30.314,0.56775231,-0.00975905,-0.02885943,-0.82263552
'00:13:41.894,0.059570,0.029297,1.004883,0.365854,1.280488,-0.548781,-5.006250,17.862501,19.475000,30.299,0.56775299,-0.00975993,-0.02886047,-0.82263501
'00:13:41.904,0.060059,0.029785,1.004395,0.365854,1.280488,-0.548781,-4.887500,17.650000,19.350000,30.329,0.56775725,-0.00976566,-0.02887065,-0.82263165
'00:13:41.914,0.059570,0.028320,1.004883,0.365854,1.341463,-0.609756,-4.887500,17.650000,19.350000,30.329,0.56775757,-0.00976966,-0.02886737,-0.82263149
'00:13:41.924,0.060547,0.028320,1.004395,0.365854,1.402439,-0.548781,-4.775000,17.512501,19.306250,30.329,0.56776714,-0.00977988,-0.02887054,-0.82262465
'00:13:41.934,0.059570,0.029785,1.003418,0.365854,1.341463,-0.548781,-4.775000,17.512501,19.306250,30.299,0.56777623,-0.00978332,-0.02888157,-0.82261795
'00:13:41.944,0.059570,0.029785,1.003418,0.365854,1.341463,-0.548781,-4.812500,17.568750,19.281250,30.284,0.56778407,-0.00978502,-0.02889083,-0.82261219
'00:13:41.954,0.059570,0.029297,1.002930,0.365854,1.280488,-0.548781,-4.812500,17.568750,19.281250,30.299,0.56779182,-0.00979305,-0.02890036,-0.82260642
'00:13:41.964,0.059082,0.028809,1.004883,0.365854,1.341463,-0.548781,-4.806250,17.500000,19.318750,30.269,0.56779844,-0.00979490,-0.02889997,-0.82260184
'00:13:41.974,0.059570,0.028320,1.005371,0.365854,1.280488,-0.548781,-4.806250,17.500000,19.318750,30.314,0.56780497,-0.00980560,-0.02890151,-0.82259715
'00:13:41.984,0.060059,0.028809,1.005371,0.365854,1.341463,-0.548781,-5.181250,18.006250,19.706251,30.299,0.56779637,-0.00979811,-0.02888752,-0.82260366
'00:13:41.994,0.059082,0.029785,1.003906,0.426829,1.402439,-0.548781,-5.181250,18.006250,19.706251,30.299,0.56778786,-0.00977467,-0.02887742,-0.82261017
'00:13:42.004,0.059570,0.031250,1.001953,0.365854,1.341463,-0.609756,-5.006250,17.756250,19.493750,30.329,0.56778121,-0.00976240,-0.02888463,-0.82261466
'00:13:42.014,0.058105,0.030273,1.001953,0.426829,1.341463,-0.548781,-5.006250,17.756250,19.493750,30.329,0.56777926,-0.00974318,-0.02888502,-0.82261622
'00:13:42.024,0.060547,0.031250,1.003418,0.304878,1.280488,-0.548781,-4.806250,17.512501,19.287500,30.299,0.56778566,-0.00975214,-0.02890412,-0.82261102
'00:13:42.034,0.060059,0.030273,1.004883,0.243902,1.280488,-0.609756,-4.806250,17.512501,19.287500,30.299,0.56778782,-0.00976461,-0.02891055,-0.82260916
'00:13:42.044,0.060547,0.029297,1.003906,0.365854,1.402439,-0.609756,-4.775000,17.543751,19.375000,30.329,0.56779309,-0.00977151,-0.02891930,-0.82260513
'00:13:42.054,0.062500,0.028320,1.004395,0.243902,1.219512,-0.548781,-4.793750,17.537500,19.306250,30.299,0.56780106,-0.00981054,-0.02892844,-0.82259884
'00:13:42.064,0.059082,0.029297,1.006348,0.365854,1.341463,-0.609756,-4.793750,17.537500,19.306250,30.269,0.56780493,-0.00981092,-0.02893171,-0.82259605
'00:13:42.074,0.060059,0.028320,1.003418,0.426829,1.463415,-0.609756,-5.131250,17.950001,19.743750,30.299,0.56779419,-0.00979590,-0.02891582,-0.82260420
'00:13:42.084,0.061035,0.029297,1.002441,0.365854,1.341463,-0.548781,-5.131250,17.950001,19.743750,30.269,0.56778731,-0.00979485,-0.02891140,-0.82260912
'00:13:42.094,0.059082,0.029785,1.003418,0.304878,1.280488,-0.548781,-4.893750,17.668751,19.431250,30.299,0.56779096,-0.00979781,-0.02891261,-0.82260652
'00:13:42.104,0.059082,0.030273,1.004395,0.365854,1.341463,-0.548781,-4.893750,17.668751,19.431250,30.314,0.56779469,-0.00979121,-0.02891752,-0.82260385
'00:13:42.114,0.059570,0.029785,1.004883,0.365854,1.341463,-0.548781,-4.775000,17.500000,19.350000,30.269,0.56780311,-0.00979396,-0.02892668,-0.82259769
'00:13:42.124,0.060547,0.028809,1.004883,0.243902,1.219512,-0.548781,-4.775000,17.500000,19.350000,30.284,0.56781123,-0.00982069,-0.02893116,-0.82259161
'00:13:42.134,0.059082,0.030273,1.004395,0.365854,1.341463,-0.548781,-4.918750,17.618750,19.450001,30.284,0.56781183,-0.00981149,-0.02893245,-0.82259125
'00:13:42.144,0.058105,0.030273,1.003906,0.365854,1.402439,-0.548781,-4.918750,17.618750,19.450001,30.314,0.56781263,-0.00979274,-0.02892715,-0.82259112
'00:13:42.154,0.059082,0.029297,1.001465,0.365854,1.341463,-0.609756,-4.806250,17.531250,19.343750,30.284,0.56781527,-0.00979365,-0.02893112,-0.82258914
'00:13:42.164,0.058594,0.030273,1.002930,0.304878,1.280488,-0.548781,-4.806250,17.531250,19.343750,30.314,0.56782188,-0.00979518,-0.02893671,-0.82258436
'00:13:42.174,0.060547,0.029785,1.005859,0.365854,1.280488,-0.609756,-4.843750,17.593750,19.343750,30.299,0.56782306,-0.00980415,-0.02894876,-0.82258302
'00:13:42.184,0.061523,0.028809,1.004883,0.304878,1.280488,-0.609756,-4.843750,17.593750,19.343750,30.239,0.56782430,-0.00982537,-0.02895484,-0.82258169
'00:13:42.196,0.059570,0.029297,1.003906,0.304878,1.280488,-0.609756,-5.106250,17.925001,19.656250,30.269,0.56781207,-0.00982319,-0.02894147,-0.82259063
'00:13:42.204,0.060059,0.030762,1.003906,0.304878,1.402439,-0.548781,-5.106250,17.925001,19.656250,30.269,0.56780746,-0.00981254,-0.02893589,-0.82259414
'00:13:42.214,0.059082,0.029785,1.003418,0.365854,1.341463,-0.548781,-4.825000,17.556250,19.375000,30.299,0.56781350,-0.00981023,-0.02894072,-0.82258983
'00:13:42.224,0.061035,0.029785,1.002930,0.304878,1.280488,-0.548781,-4.825000,17.556250,19.375000,30.299,0.56781923,-0.00982625,-0.02895184,-0.82258529
'00:13:42.234,0.059570,0.029785,1.002930,0.304878,1.280488,-0.548781,-4.831250,17.437500,19.331251,30.269,0.56782185,-0.00983171,-0.02895379,-0.82258335
'00:13:42.244,0.058105,0.030273,1.005371,0.304878,1.341463,-0.609756,-4.831250,17.437500,19.331251,30.299,0.56782020,-0.00982195,-0.02894884,-0.82258477
'00:13:42.254,0.060547,0.029297,1.005371,0.365854,1.341463,-0.609756,-4.800000,17.487501,19.350000,30.314,0.56782206,-0.00982945,-0.02895592,-0.82258315
'00:13:42.264,0.059570,0.029785,1.005859,0.304878,1.341463,-0.609756,-4.800000,17.487501,19.350000,30.269,0.56782378,-0.00983239,-0.02895730,-0.82258188
'00:13:42.274,0.060547,0.030273,1.004883,0.365854,1.341463,-0.609756,-4.800000,17.525000,19.275000,30.269,0.56782660,-0.00983624,-0.02897101,-0.82257941
'00:13:42.284,0.059082,0.029785,1.003418,0.304878,1.341463,-0.609756,-4.800000,17.525000,19.275000,30.299,0.56782948,-0.00983715,-0.02897229,-0.82257737
'00:13:42.294,0.059082,0.029297,1.003418,0.304878,1.280488,-0.609756,-5.150000,18.031250,19.675001,30.284,0.56781872,-0.00983155,-0.02895847,-0.82258534
'00:13:42.305,0.059082,0.030762,1.002441,0.426829,1.341463,-0.548781,-4.987500,17.781250,19.525000,30.299,0.56781793,-0.00981441,-0.02896637,-0.82258582
'00:13:42.314,0.060059,0.030273,1.001953,0.365854,1.341463,-0.548781,-4.987500,17.781250,19.525000,30.254,0.56781732,-0.00980996,-0.02896988,-0.82258617
'00:13:42.324,0.060059,0.028809,1.004395,0.304878,1.341463,-0.548781,-4.756250,17.462500,19.231251,30.269,0.56782659,-0.00982225,-0.02897107,-0.82257958
'00:13:42.334,0.059570,0.029297,1.004883,0.304878,1.341463,-0.548781,-4.756250,17.462500,19.231251,30.284,0.56783574,-0.00982958,-0.02897289,-0.82257311
'00:13:42.344,0.060547,0.029297,1.005371,0.304878,1.280488,-0.548781,-4.850000,17.581251,19.400000,30.269,0.56784019,-0.00984274,-0.02897633,-0.82256976
'00:13:42.354,0.060059,0.029297,1.005371,0.304878,1.341463,-0.609756,-4.850000,17.581251,19.400000,30.284,0.56784041,-0.00984846,-0.02897483,-0.82256959
'00:13:42.365,0.060059,0.031250,1.003418,0.365854,1.341463,-0.548781,-4.825000,17.462500,19.318750,30.299,0.56784419,-0.00984314,-0.02899020,-0.82256650
'00:13:42.374,0.060547,0.030273,1.003418,0.365854,1.341463,-0.609756,-4.825000,17.462500,19.318750,30.299,0.56784350,-0.00984460,-0.02899930,-0.82256664
'00:13:42.384,0.060547,0.030273,1.003418,0.365854,1.341463,-0.609756,-5.093750,18.006250,19.600000,30.299,0.56783606,-0.00983831,-0.02900104,-0.82257179
'00:13:42.394,0.059570,0.030273,1.002441,0.304878,1.280488,-0.609756,-5.093750,18.006250,19.600000,30.299,0.56782847,-0.00983443,-0.02899813,-0.82257718
'00:13:42.404,0.061035,0.029785,1.002930,0.426829,1.341463,-0.548781,-5.112500,17.968750,19.662500,30.329,0.56782324,-0.00982868,-0.02900117,-0.82258076
'00:13:42.414,0.060547,0.029785,1.004883,0.365854,1.280488,-0.548781,-5.112500,17.968750,19.662500,30.284,0.56781785,-0.00982735,-0.02900022,-0.82258453
'00:13:42.424,0.061523,0.029785,1.005371,0.304878,1.341463,-0.548781,-4.912500,17.662500,19.425001,30.299,0.56781984,-0.00983697,-0.02900380,-0.82258291
'00:13:42.434,0.059082,0.029297,1.004883,0.304878,1.280488,-0.609756,-4.912500,17.662500,19.425001,30.299,0.56781745,-0.00983926,-0.02899847,-0.82258472
'00:13:42.444,0.060547,0.029297,1.004395,0.365854,1.341463,-0.548781,-4.800000,17.506250,19.356251,30.239,0.56782399,-0.00984706,-0.02900549,-0.82257987
'00:13:42.454,0.059082,0.029297,1.003418,0.365854,1.341463,-0.548781,-4.800000,17.506250,19.356251,30.299,0.56783052,-0.00984678,-0.02900706,-0.82257530
'00:13:42.464,0.059570,0.030273,1.002930,0.365854,1.341463,-0.609756,-4.881250,17.562500,19.362501,30.314,0.56782809,-0.00984111,-0.02901128,-0.82257690
'00:13:42.474,0.059570,0.030273,1.002930,0.365854,1.341463,-0.548781,-4.881250,17.562500,19.362501,30.269,0.56783004,-0.00983568,-0.02901539,-0.82257548
'00:13:42.484,0.059082,0.030273,1.002930,0.365854,1.341463,-0.548781,-4.812500,17.556250,19.356251,30.314,0.56783667,-0.00983171,-0.02902280,-0.82257069
'00:13:42.494,0.059570,0.030273,1.004395,0.304878,1.341463,-0.609756,-4.812500,17.556250,19.356251,30.314,0.56783883,-0.00983304,-0.02902705,-0.82256902
'00:13:42.504,0.059570,0.028320,1.004883,0.243902,1.280488,-0.609756,-4.825000,17.531250,19.312500,30.254,0.56783991,-0.00984805,-0.02901711,-0.82256845
'00:13:42.514,0.059570,0.029297,1.004883,0.243902,1.280488,-0.609756,-4.825000,17.531250,19.312500,30.299,0.56784077,-0.00985901,-0.02901285,-0.82256788
'00:13:42.524,0.059570,0.030762,1.003906,0.365854,1.402439,-0.609756,-4.818750,17.556250,19.343750,30.299,0.56784261,-0.00985030,-0.02902106,-0.82256643
'00:13:42.534,0.060059,0.029297,1.002930,0.365854,1.341463,-0.548781,-4.818750,17.556250,19.343750,30.284,0.56784894,-0.00985491,-0.02902607,-0.82256182
'00:13:42.544,0.060059,0.030762,1.001953,0.365854,1.341463,-0.548781,-4.825000,17.556250,19.343750,30.254,0.56785448,-0.00985347,-0.02903919,-0.82255755
'00:13:42.554,0.059570,0.030762,1.000977,0.365854,1.341463,-0.548781,-4.825000,17.556250,19.343750,30.269,0.56785999,-0.00984951,-0.02905058,-0.82255339
'00:13:42.564,0.061035,0.029785,1.002930,0.304878,1.341463,-0.548781,-4.768750,17.518751,19.281250,30.284,0.56786889,-0.00986294,-0.02906039,-0.82254674
'00:13:42.574,0.061523,0.029297,1.004395,0.304878,1.280488,-0.609756,-4.768750,17.518751,19.281250,30.314,0.56787328,-0.00988463,-0.02907158,-0.82254305
'00:13:42.584,0.061035,0.028809,1.004883,0.243902,1.280488,-0.609756,-4.768750,17.518751,19.356251,30.284,0.56787737,-0.00990836,-0.02907312,-0.82253989
'00:13:42.594,0.060059,0.028809,1.005859,0.365854,1.341463,-0.609756,-4.831250,17.512501,19.393751,30.329,0.56787701,-0.00991180,-0.02907099,-0.82254017
'00:13:42.604,0.060059,0.029297,1.004883,0.426829,1.341463,-0.548781,-4.831250,17.512501,19.393751,30.299,0.56788097,-0.00991062,-0.02907638,-0.82253726
'00:13:42.614,0.060547,0.030762,1.002930,0.426829,1.402439,-0.487805,-4.975000,17.725000,19.468750,30.299,0.56788394,-0.00989702,-0.02908337,-0.82253513
'00:13:42.624,0.060547,0.030762,1.002441,0.365854,1.341463,-0.609756,-4.975000,17.725000,19.468750,30.269,0.56787796,-0.00989079,-0.02908920,-0.82253913
'00:13:42.634,0.059082,0.030273,1.001953,0.304878,1.341463,-0.609756,-4.825000,17.500000,19.331251,30.299,0.56787765,-0.00988715,-0.02908892,-0.82253940
'00:13:42.644,0.059570,0.030273,1.003418,0.304878,1.280488,-0.548781,-4.825000,17.500000,19.331251,30.284,0.56788156,-0.00989051,-0.02909291,-0.82253651
'00:13:42.654,0.059570,0.029297,1.003418,0.365854,1.341463,-0.548781,-4.875000,17.537500,19.337500,30.269,0.56788325,-0.00988772,-0.02908964,-0.82253549
'00:13:42.664,0.059570,0.028320,1.004883,0.365854,1.341463,-0.548781,-4.875000,17.537500,19.337500,30.329,0.56788517,-0.00988848,-0.02908033,-0.82253449
'00:13:42.674,0.059082,0.029297,1.003906,0.365854,1.341463,-0.548781,-4.800000,17.506250,19.387501,30.299,0.56789117,-0.00988725,-0.02908011,-0.82253037
'00:13:42.684,0.060059,0.029297,1.004883,0.365854,1.341463,-0.548781,-4.800000,17.506250,19.387501,30.269,0.56789712,-0.00989124,-0.02908328,-0.82252610
'00:13:42.694,0.060547,0.030762,1.001465,0.365854,1.341463,-0.609756,-4.900000,17.681250,19.356251,30.299,0.56789566,-0.00988885,-0.02909446,-0.82252674
'00:13:42.704,0.061035,0.030762,1.001465,0.243902,1.280488,-0.548781,-4.900000,17.681250,19.356251,30.284,0.56789828,-0.00989972,-0.02910154,-0.82252455
'00:13:42.714,0.060059,0.029785,1.002930,0.304878,1.280488,-0.548781,-5.087500,17.900000,19.606251,30.314,0.56789258,-0.00989809,-0.02909350,-0.82252879
'00:13:42.724,0.060547,0.028809,1.005371,0.304878,1.341463,-0.548781,-5.087500,17.900000,19.606251,30.299,0.56788727,-0.00989804,-0.02907806,-0.82253301
'00:13:42.734,0.060059,0.027832,1.004395,0.365854,1.280488,-0.548781,-4.781250,17.506250,19.325001,30.284,0.56789495,-0.00991311,-0.02907776,-0.82252753
'00:13:42.744,0.059570,0.029785,1.004883,0.304878,1.341463,-0.609756,-4.781250,17.506250,19.325001,30.299,0.56789792,-0.00991591,-0.02907912,-0.82252540
'00:13:42.754,0.058594,0.030762,1.003906,0.365854,1.341463,-0.548781,-4.787500,17.506250,19.312500,30.284,0.56790474,-0.00990628,-0.02908647,-0.82252055
'00:13:42.764,0.058594,0.029785,1.002930,0.365854,1.341463,-0.548781,-4.787500,17.506250,19.312500,30.254,0.56791174,-0.00990083,-0.02908851,-0.82251571
'00:13:42.774,0.059570,0.030762,1.001953,0.304878,1.341463,-0.548781,-4.800000,17.481251,19.268751,30.223,0.56791712,-0.00989900,-0.02909438,-0.82251181
'00:13:42.784,0.060059,0.030762,1.002930,0.243902,1.280488,-0.548781,-4.800000,17.481251,19.268751,30.299,0.56792226,-0.00990707,-0.02910028,-0.82250795
'00:13:42.794,0.060059,0.029785,1.004883,0.243902,1.341463,-0.548781,-4.768750,17.537500,19.275000,30.299,0.56793125,-0.00991679,-0.02910050,-0.82250162
'00:13:42.804,0.059570,0.028809,1.004883,0.304878,1.280488,-0.548781,-4.768750,17.537500,19.275000,30.329,0.56794033,-0.00992882,-0.02910063,-0.82249520
'00:13:42.814,0.059570,0.028320,1.005371,0.304878,1.341463,-0.548781,-5.100000,18.000000,19.606251,30.329,0.56793643,-0.00992536,-0.02907998,-0.82249866
'00:13:42.824,0.061523,0.029785,1.005371,0.426829,1.341463,-0.609756,-5.100000,18.000000,19.606251,30.314,0.56792797,-0.00992077,-0.02908395,-0.82250442
'00:13:42.834,0.059570,0.030273,1.002930,0.365854,1.341463,-0.548781,-4.793750,17.525000,19.412500,30.269,0.56793431,-0.00991869,-0.02909222,-0.82249978
'00:13:42.844,0.059570,0.031250,1.002441,0.365854,1.341463,-0.609756,-4.762500,17.443750,19.375000,30.269,0.56793644,-0.00991336,-0.02910679,-0.82249786
'00:13:42.854,0.060059,0.030762,1.001465,0.243902,1.341463,-0.548781,-4.762500,17.443750,19.375000,30.269,0.56794289,-0.00991918,-0.02911183,-0.82249316
'00:13:42.864,0.060059,0.029785,1.002441,0.304878,1.280488,-0.670732,-4.825000,17.556250,19.281250,30.284,0.56793938,-0.00992699,-0.02911627,-0.82249533
'00:13:42.874,0.060059,0.028809,1.003418,0.243902,1.280488,-0.609756,-4.825000,17.556250,19.281250,30.284,0.56794040,-0.00994147,-0.02911030,-0.82249466
'00:13:42.884,0.060059,0.029297,1.004883,0.304878,1.280488,-0.487805,-4.756250,17.537500,19.337500,30.284,0.56795424,-0.00995500,-0.02911564,-0.82248475
'00:13:42.894,0.059082,0.029297,1.004883,0.365854,1.341463,-0.548781,-4.756250,17.537500,19.337500,30.284,0.56796388,-0.00995529,-0.02911843,-0.82247799
'00:13:42.904,0.060547,0.029785,1.004883,0.365854,1.341463,-0.548781,-4.837500,17.625000,19.337500,30.269,0.56796971,-0.00995790,-0.02912533,-0.82247369
'00:13:42.914,0.059570,0.030762,1.004395,0.426829,1.402439,-0.609756,-4.837500,17.625000,19.337500,30.344,0.56797116,-0.00994379,-0.02913545,-0.82247249
'00:13:42.924,0.059082,0.030273,1.000977,0.365854,1.341463,-0.548781,-4.975000,17.768751,19.481251,30.329,0.56797022,-0.00993147,-0.02913328,-0.82247337
'00:13:42.934,0.060547,0.031738,1.002930,0.304878,1.341463,-0.609756,-4.975000,17.768751,19.481251,30.239,0.56796453,-0.00992414,-0.02913988,-0.82247716
'00:13:42.944,0.060547,0.030273,1.002930,0.243902,1.280488,-0.609756,-4.856250,17.562500,19.306250,30.284,0.56796296,-0.00993386,-0.02914146,-0.82247806
'00:13:42.954,0.061035,0.029297,1.004395,0.304878,1.341463,-0.548781,-4.856250,17.562500,19.306250,30.314,0.56796616,-0.00994238,-0.02914007,-0.82247580
'00:13:42.964,0.060547,0.029297,1.003418,0.365854,1.341463,-0.609756,-4.875000,17.575001,19.425001,30.299,0.56796353,-0.00994449,-0.02914016,-0.82247759
'00:13:42.974,0.060547,0.029297,1.005859,0.426829,1.280488,-0.548781,-4.875000,17.575001,19.425001,30.299,0.56796519,-0.00994755,-0.02914661,-0.82247618
'00:13:42.984,0.058594,0.028320,1.004395,0.365854,1.341463,-0.548781,-4.831250,17.587500,19.337500,30.269,0.56797090,-0.00994515,-0.02913700,-0.82247260
'00:13:42.994,0.060059,0.029297,1.003418,0.304878,1.402439,-0.548781,-4.831250,17.587500,19.337500,30.314,0.56797645,-0.00994592,-0.02913172,-0.82246895
'00:13:43.004,0.058594,0.030273,1.001953,0.304878,1.402439,-0.548781,-4.818750,17.625000,19.443750,30.299,0.56798314,-0.00993657,-0.02912858,-0.82246456
'00:13:43.015,0.059082,0.029785,1.002441,0.304878,1.341463,-0.548781,-4.818750,17.625000,19.443750,30.269,0.56799042,-0.00993624,-0.02912730,-0.82245957
'00:13:43.024,0.059082,0.028320,1.003418,0.365854,1.341463,-0.609756,-5.162500,18.118750,19.675001,30.314,0.56798133,-0.00992638,-0.02910947,-0.82246660
'00:13:43.034,0.059570,0.029785,1.002441,0.365854,1.280488,-0.548781,-5.162500,18.118750,19.675001,30.254,0.56797521,-0.00991741,-0.02910325,-0.82247116
'00:13:43.044,0.059082,0.028809,1.003906,0.304878,1.341463,-0.548781,-4.812500,17.468750,19.293751,30.299,0.56797951,-0.00991881,-0.02909350,-0.82246852
'00:13:43.054,0.059570,0.029297,1.006348,0.426829,1.341463,-0.609756,-4.812500,17.468750,19.293751,30.299,0.56797943,-0.00991427,-0.02909640,-0.82246852
'00:13:43.065,0.061035,0.029785,1.003906,0.365854,1.341463,-0.548781,-4.793750,17.531250,19.356251,30.284,0.56798670,-0.00992267,-0.02910815,-0.82246299
'00:13:43.074,0.060547,0.030273,1.003418,0.365854,1.341463,-0.609756,-4.793750,17.531250,19.356251,30.284,0.56798857,-0.00992517,-0.02911858,-0.82246129
'00:13:43.084,0.060059,0.030762,1.001953,0.365854,1.341463,-0.609756,-4.743750,17.462500,19.350000,30.254,0.56799243,-0.00992569,-0.02913383,-0.82245809
'00:13:43.094,0.059570,0.030273,1.003906,0.304878,1.341463,-0.548781,-4.743750,17.462500,19.350000,30.284,0.56800071,-0.00992815,-0.02913888,-0.82245216
'00:13:43.104,0.059082,0.029785,1.001465,0.304878,1.341463,-0.548781,-4.993750,17.825001,19.468750,30.299,0.56799985,-0.00992044,-0.02912926,-0.82245319
'00:13:43.114,0.059570,0.030762,1.002930,0.426829,1.341463,-0.548781,-5.093750,17.912500,19.656250,30.314,0.56799348,-0.00990124,-0.02912939,-0.82245781
'00:13:43.124,0.058105,0.028809,1.004883,0.365854,1.341463,-0.548781,-5.093750,17.912500,19.656250,30.329,0.56798756,-0.00988449,-0.02910796,-0.82246286
'00:13:43.134,0.059570,0.028320,1.005859,0.365854,1.341463,-0.548781,-4.875000,17.681250,19.400000,30.299,0.56799229,-0.00988691,-0.02910097,-0.82245981
'00:13:43.144,0.059570,0.028320,1.005859,0.365854,1.341463,-0.548781,-4.875000,17.681250,19.400000,30.299,0.56799701,-0.00988929,-0.02909408,-0.82245677
'00:13:43.154,0.060059,0.029297,1.004883,0.304878,1.341463,-0.609756,-4.781250,17.512501,19.306250,30.284,0.56799998,-0.00989679,-0.02909418,-0.82245462
'00:13:43.164,0.061035,0.029785,1.003906,0.365854,1.341463,-0.609756,-4.781250,17.512501,19.306250,30.299,0.56800282,-0.00990484,-0.02910555,-0.82245216
'00:13:43.174,0.059570,0.031250,1.002930,0.365854,1.341463,-0.609756,-4.787500,17.487501,19.362501,30.284,0.56800408,-0.00989844,-0.02911857,-0.82245090
'00:13:43.184,0.059570,0.029297,1.001465,0.304878,1.341463,-0.548781,-4.787500,17.487501,19.362501,30.269,0.56801006,-0.00990335,-0.02911638,-0.82244680
'00:13:43.194,0.059570,0.029785,1.001953,0.365854,1.341463,-0.548781,-4.975000,17.775000,19.456251,30.299,0.56800944,-0.00989596,-0.02911343,-0.82244742
'00:13:43.204,0.060547,0.029297,1.002930,0.365854,1.280488,-0.548781,-4.975000,17.775000,19.456251,30.299,0.56800877,-0.00990009,-0.02911416,-0.82244780
'00:13:43.214,0.060547,0.028809,1.005371,0.304878,1.341463,-0.548781,-4.975000,17.806250,19.537500,30.314,0.56800872,-0.00990483,-0.02910433,-0.82244813
'00:13:43.224,0.060059,0.028809,1.006348,0.304878,1.341463,-0.609756,-4.975000,17.806250,19.537500,30.284,0.56800433,-0.00990648,-0.02909245,-0.82245157
'00:13:43.234,0.060059,0.029297,1.004883,0.365854,1.341463,-0.609756,-4.981250,17.787500,19.550001,30.329,0.56799899,-0.00990294,-0.02908749,-0.82245547
'00:13:43.244,0.059570,0.029297,1.002930,0.304878,1.341463,-0.609756,-4.981250,17.787500,19.550001,30.284,0.56799362,-0.00990024,-0.02907716,-0.82245957
'00:13:43.255,0.059082,0.030762,1.001953,0.304878,1.341463,-0.609756,-4.793750,17.512501,19.350000,30.299,0.56799542,-0.00989597,-0.02908267,-0.82245819
'00:13:43.264,0.059082,0.028809,1.001465,0.304878,1.341463,-0.609756,-4.793750,17.512501,19.350000,30.299,0.56799725,-0.00989957,-0.02907722,-0.82245707
'00:13:43.274,0.058105,0.029297,1.002930,0.304878,1.341463,-0.548781,-4.793750,17.512501,19.231251,30.314,0.56800412,-0.00989569,-0.02906995,-0.82245263
'00:13:43.284,0.060059,0.028809,1.005371,0.304878,1.341463,-0.609756,-4.793750,17.512501,19.231251,30.314,0.56800665,-0.00990391,-0.02906666,-0.82245090
'00:13:43.294,0.060547,0.028320,1.004395,0.365854,1.280488,-0.609756,-4.812500,17.506250,19.293751,30.269,0.56800741,-0.00991713,-0.02906852,-0.82245015
'00:13:43.304,0.061035,0.029297,1.004395,0.365854,1.341463,-0.609756,-4.812500,17.506250,19.293751,30.314,0.56800807,-0.00992463,-0.02907471,-0.82244939
'00:13:43.314,0.060547,0.028320,1.003906,0.365854,1.341463,-0.609756,-4.975000,17.837500,19.562500,30.299,0.56800445,-0.00992860,-0.02906842,-0.82245207
'00:13:43.324,0.060059,0.030762,1.002441,0.304878,1.341463,-0.609756,-4.975000,17.837500,19.562500,30.329,0.56800028,-0.00992370,-0.02907028,-0.82245494
'00:13:43.334,0.059570,0.030762,1.001465,0.304878,1.341463,-0.548781,-5.012500,17.831251,19.512501,30.284,0.56799802,-0.00991415,-0.02906773,-0.82245670
'00:13:43.344,0.060059,0.029785,1.002441,0.304878,1.341463,-0.548781,-5.012500,17.831251,19.512501,30.299,0.56799600,-0.00991101,-0.02906125,-0.82245836
'00:13:43.354,0.060059,0.029785,1.004395,0.365854,1.341463,-0.609756,-4.806250,17.518751,19.387501,30.329,0.56799699,-0.00991217,-0.02906718,-0.82245745
'00:13:43.364,0.060059,0.028809,1.004395,0.304878,1.341463,-0.609756,-4.737500,17.462500,19.275000,30.284,0.56800210,-0.00992338,-0.02906740,-0.82245379
'00:13:43.374,0.060547,0.029297,1.004395,0.304878,1.402439,-0.548781,-4.737500,17.462500,19.275000,30.329,0.56801156,-0.00993095,-0.02906919,-0.82244709
'00:13:43.384,0.059570,0.028809,1.004883,0.365854,1.341463,-0.548781,-4.862500,17.581251,19.356251,30.284,0.56801476,-0.00993024,-0.02906446,-0.82244506
'00:13:43.394,0.061035,0.028809,1.002930,0.365854,1.341463,-0.548781,-4.862500,17.581251,19.356251,30.299,0.56801789,-0.00993803,-0.02906620,-0.82244274
'00:13:43.404,0.060547,0.030273,1.003418,0.365854,1.402439,-0.548781,-5.087500,17.881250,19.537500,30.344,0.56801190,-0.00992404,-0.02906071,-0.82244725
'00:13:43.414,0.061035,0.029785,1.001953,0.365854,1.341463,-0.609756,-5.087500,17.881250,19.537500,30.329,0.56800151,-0.00991933,-0.02905813,-0.82245457
'00:13:43.425,0.059082,0.030762,1.004395,0.304878,1.341463,-0.609756,-5.081250,17.956251,19.600000,30.284,0.56799204,-0.00990291,-0.02904966,-0.82246160
'00:13:43.434,0.060059,0.029785,1.004883,0.365854,1.402439,-0.548781,-5.081250,17.956251,19.600000,30.299,0.56798865,-0.00989129,-0.02904235,-0.82246435
'00:13:43.444,0.059570,0.029297,1.004395,0.365854,1.341463,-0.548781,-4.856250,17.550001,19.381250,30.329,0.56799152,-0.00988950,-0.02904080,-0.82246244
'00:13:43.455,0.059570,0.028809,1.004883,0.365854,1.341463,-0.548781,-4.856250,17.550001,19.381250,30.299,0.56799479,-0.00988955,-0.02903586,-0.82246036
'00:13:43.465,0.059082,0.029785,1.001953,0.365854,1.402439,-0.548781,-4.812500,17.600000,19.318750,30.299,0.56800221,-0.00988250,-0.02903801,-0.82245524
'00:13:43.474,0.059570,0.030762,1.002441,0.304878,1.280488,-0.609756,-4.812500,17.600000,19.318750,30.299,0.56800441,-0.00988557,-0.02904796,-0.82245333
'00:13:43.484,0.059082,0.030762,1.003418,0.365854,1.341463,-0.609756,-4.850000,17.531250,19.356251,30.329,0.56800265,-0.00987545,-0.02905322,-0.82245449
'00:13:43.494,0.061035,0.030273,1.002930,0.365854,1.341463,-0.609756,-4.850000,17.531250,19.356251,30.269,0.56800092,-0.00987832,-0.02906339,-0.82245528
'00:13:43.504,0.061035,0.029785,1.004883,0.304878,1.341463,-0.548781,-5.062500,17.856251,19.587500,30.269,0.56799587,-0.00987811,-0.02905643,-0.82245902
'00:13:43.514,0.062012,0.029297,1.005371,0.365854,1.341463,-0.548781,-5.062500,17.856251,19.587500,30.299,0.56799098,-0.00988199,-0.02905477,-0.82246241
'00:13:43.524,0.061523,0.028809,1.003418,0.365854,1.341463,-0.609756,-5.068750,17.900000,19.550001,30.284,0.56798258,-0.00988544,-0.02905010,-0.82246833
'00:13:43.536,0.061035,0.029785,1.003418,0.365854,1.402439,-0.609756,-5.068750,17.900000,19.550001,30.269,0.56797251,-0.00987663,-0.02904527,-0.82247557
'00:13:43.544,0.059082,0.030273,1.000977,0.365854,1.402439,-0.609756,-4.906250,17.687500,19.412500,30.299,0.56797105,-0.00986631,-0.02904520,-0.82247669
'00:13:43.554,0.060059,0.030273,1.003418,0.365854,1.341463,-0.609756,-4.906250,17.687500,19.412500,30.314,0.56796910,-0.00986281,-0.02905093,-0.82247789
'00:13:43.564,0.057617,0.030273,1.004883,0.365854,1.280488,-0.609756,-4.793750,17.500000,19.287500,30.284,0.56797098,-0.00985380,-0.02905412,-0.82247658
'00:13:43.574,0.059570,0.029785,1.005371,0.304878,1.280488,-0.609756,-4.793750,17.500000,19.287500,30.314,0.56797284,-0.00986062,-0.02905750,-0.82247509
'00:13:43.584,0.058594,0.029297,1.005859,0.304878,1.341463,-0.609756,-4.812500,17.556250,19.325001,30.314,0.56797486,-0.00985909,-0.02905084,-0.82247396
'00:13:43.594,0.059082,0.029297,1.004883,0.304878,1.341463,-0.609756,-4.812500,17.556250,19.325001,30.314,0.56797685,-0.00986049,-0.02904656,-0.82247272
'00:13:43.604,0.059082,0.029785,1.002930,0.426829,1.402439,-0.548781,-4.762500,17.506250,19.343750,30.299,0.56798559,-0.00985257,-0.02905424,-0.82246650
'00:13:43.614,0.060059,0.029785,1.003418,0.426829,1.402439,-0.548781,-4.762500,17.506250,19.343750,30.284,0.56799426,-0.00985007,-0.02906537,-0.82246015
'00:13:43.624,0.060059,0.031250,1.002441,0.304878,1.341463,-0.548781,-5.131250,17.975000,19.562500,30.299,0.56798728,-0.00983749,-0.02906163,-0.82246526
'00:13:43.634,0.061035,0.029785,1.003418,0.365854,1.341463,-0.548781,-4.956250,17.731251,19.431250,30.254,0.56798727,-0.00983940,-0.02906519,-0.82246512
'00:13:43.644,0.062500,0.029297,1.005859,0.304878,1.280488,-0.609756,-4.956250,17.731251,19.431250,30.299,0.56798273,-0.00985783,-0.02906926,-0.82246788
'00:13:43.654,0.060547,0.029297,1.004883,0.304878,1.341463,-0.609756,-4.806250,17.550001,19.362501,30.284,0.56798474,-0.00986772,-0.02907056,-0.82246633
'00:13:43.664,0.061035,0.028809,1.006348,0.304878,1.341463,-0.609756,-4.806250,17.550001,19.362501,30.299,0.56798681,-0.00988175,-0.02907034,-0.82246474
'00:13:43.674,0.059082,0.029785,1.003906,0.365854,1.341463,-0.609756,-4.787500,17.556250,19.356251,30.299,0.56799025,-0.00987963,-0.02907507,-0.82246223
'00:13:43.684,0.058594,0.030762,1.001953,0.365854,1.402439,-0.548781,-4.787500,17.556250,19.356251,30.314,0.56799799,-0.00986713,-0.02908110,-0.82245682
'00:13:43.697,0.058105,0.030273,1.002441,0.365854,1.341463,-0.548781,-4.793750,17.562500,19.275000,30.314,0.56800807,-0.00985497,-0.02908620,-0.82244982
'00:13:43.704,0.059570,0.030762,1.002441,0.304878,1.341463,-0.609756,-4.793750,17.562500,19.275000,30.284,0.56801028,-0.00985488,-0.02909176,-0.82244810
'00:13:43.714,0.058594,0.029785,1.002930,0.304878,1.402439,-0.609756,-5.168750,18.075001,19.687500,30.254,0.56799866,-0.00983471,-0.02907006,-0.82245713
'00:13:43.724,0.059082,0.028809,1.003906,0.426829,1.402439,-0.548781,-5.168750,18.075001,19.687500,30.299,0.56799182,-0.00981520,-0.02905355,-0.82246267
'00:13:43.735,0.059570,0.029297,1.002930,0.304878,1.341463,-0.548781,-5.112500,17.950001,19.668751,30.299,0.56798495,-0.00980826,-0.02903611,-0.82246811
'00:13:43.744,0.060059,0.029785,1.004395,0.304878,1.341463,-0.609756,-5.112500,17.950001,19.668751,30.299,0.56797537,-0.00980299,-0.02902576,-0.82247516
'00:13:43.754,0.061035,0.029785,1.002441,0.365854,1.341463,-0.609756,-4.856250,17.612501,19.350000,30.314,0.56797554,-0.00980980,-0.02903551,-0.82247462
'00:13:43.764,0.060059,0.029785,1.003418,0.365854,1.402439,-0.548781,-4.856250,17.612501,19.350000,30.299,0.56798026,-0.00980669,-0.02903787,-0.82247131
'00:13:43.775,0.060547,0.029785,1.004395,0.304878,1.341463,-0.609756,-4.831250,17.556250,19.293751,30.299,0.56798108,-0.00981465,-0.02904142,-0.82247052
'00:13:43.784,0.059570,0.029785,1.002441,0.365854,1.280488,-0.548781,-4.831250,17.556250,19.293751,30.314,0.56798560,-0.00981793,-0.02904818,-0.82246712
'00:13:43.794,0.060059,0.029297,1.004395,0.304878,1.280488,-0.609756,-4.812500,17.562500,19.362501,30.329,0.56798743,-0.00983001,-0.02905102,-0.82246562
'00:13:43.804,0.059570,0.028320,1.003418,0.304878,1.341463,-0.609756,-4.812500,17.562500,19.362501,30.239,0.56798960,-0.00983888,-0.02904371,-0.82246427
'00:13:43.814,0.060547,0.029297,1.003418,0.365854,1.341463,-0.548781,-5.106250,17.987501,19.668751,30.299,0.56798466,-0.00983530,-0.02903724,-0.82246795
'00:13:43.824,0.060547,0.029785,1.002441,0.365854,1.341463,-0.609756,-5.106250,17.987501,19.668751,30.254,0.56797528,-0.00982998,-0.02903405,-0.82247461
'00:13:43.834,0.060059,0.030762,1.002441,0.304878,1.341463,-0.609756,-5.018750,17.912500,19.575001,30.284,0.56797019,-0.00982518,-0.02903516,-0.82247814
'00:13:43.844,0.059082,0.030273,1.001953,0.304878,1.341463,-0.548781,-5.018750,17.912500,19.575001,30.299,0.56796962,-0.00981727,-0.02902996,-0.82247881
'00:13:43.857,0.059082,0.030762,1.003418,0.304878,1.280488,-0.548781,-4.868750,17.631250,19.387501,30.299,0.56797433,-0.00981590,-0.02903682,-0.82247533
'00:13:43.864,0.059082,0.029297,1.002930,0.304878,1.341463,-0.548781,-4.868750,17.631250,19.387501,30.314,0.56797717,-0.00981618,-0.02903265,-0.82247352
'00:13:43.875,0.058594,0.029297,1.004883,0.304878,1.341463,-0.548781,-4.793750,17.481251,19.312500,30.284,0.56798384,-0.00981575,-0.02902583,-0.82246916
'00:13:43.884,0.058594,0.029297,1.004883,0.304878,1.341463,-0.548781,-4.806250,17.550001,19.337500,30.284,0.56798988,-0.00981562,-0.02902091,-0.82246516
'00:13:43.895,0.059082,0.029785,1.003906,0.365854,1.341463,-0.548781,-4.806250,17.550001,19.337500,30.314,0.56799717,-0.00981323,-0.02902533,-0.82245999
'00:13:43.904,0.059082,0.029785,1.003906,0.365854,1.341463,-0.548781,-4.812500,17.506250,19.343750,30.314,0.56800175,-0.00981040,-0.02902745,-0.82245679
'00:13:43.914,0.059570,0.030273,1.002441,0.304878,1.280488,-0.548781,-4.812500,17.506250,19.343750,30.329,0.56800649,-0.00981577,-0.02903367,-0.82245324
'00:13:43.924,0.060547,0.029785,1.002930,0.365854,1.341463,-0.548781,-5.100000,17.968750,19.556250,30.314,0.56800189,-0.00981054,-0.02903056,-0.82245659
'00:13:43.935,0.060059,0.029785,1.003906,0.365854,1.341463,-0.548781,-5.100000,17.968750,19.556250,30.299,0.56799688,-0.00980175,-0.02902478,-0.82246035
'00:13:43.944,0.060059,0.029785,1.003906,0.365854,1.341463,-0.548781,-5.075000,17.906250,19.556250,30.299,0.56799301,-0.00979524,-0.02902048,-0.82246325
'00:13:43.954,0.059082,0.029785,1.003906,0.304878,1.341463,-0.548781,-5.075000,17.906250,19.556250,30.299,0.56798872,-0.00978582,-0.02900771,-0.82246678
'00:13:43.964,0.058594,0.028809,1.005859,0.365854,1.341463,-0.609756,-4.868750,17.618750,19.387501,30.239,0.56798837,-0.00978195,-0.02900056,-0.82246732
'00:13:43.975,0.058594,0.028809,1.004395,0.304878,1.341463,-0.609756,-4.868750,17.618750,19.387501,30.269,0.56798793,-0.00978143,-0.02898864,-0.82246805
'00:13:43.984,0.058105,0.029297,1.003906,0.365854,1.341463,-0.609756,-4.806250,17.600000,19.381250,30.284,0.56799111,-0.00977743,-0.02898792,-0.82246593
'00:13:43.994,0.059570,0.028809,1.001953,0.365854,1.402439,-0.548781,-4.806250,17.600000,19.381250,30.329,0.56799919,-0.00977931,-0.02898773,-0.82246033
'00:13:44.004,0.060547,0.030273,1.002930,0.304878,1.341463,-0.548781,-4.806250,17.512501,19.331251,30.284,0.56800482,-0.00978661,-0.02899589,-0.82245607
'00:13:44.015,0.060059,0.030762,1.003906,0.304878,1.341463,-0.609756,-4.806250,17.512501,19.331251,30.254,0.56800607,-0.00978899,-0.02900529,-0.82245484
'00:13:44.025,0.060547,0.029297,1.003418,0.304878,1.280488,-0.548781,-4.800000,17.487501,19.275000,30.269,0.56801177,-0.00980408,-0.02901041,-0.82245055
'00:13:44.034,0.061035,0.028809,1.004883,0.304878,1.341463,-0.548781,-4.800000,17.487501,19.275000,30.299,0.56801707,-0.00981735,-0.02901087,-0.82244672
'00:13:44.044,0.060547,0.028809,1.004883,0.365854,1.402439,-0.609756,-5.200000,18.100000,19.700001,30.329,0.56800434,-0.00980730,-0.02899442,-0.82245621
'00:13:44.054,0.060059,0.028809,1.003906,0.365854,1.341463,-0.609756,-5.200000,18.100000,19.700001,30.239,0.56799154,-0.00979942,-0.02897984,-0.82246565
'00:13:44.064,0.059570,0.029297,1.003906,0.365854,1.341463,-0.548781,-4.818750,17.593750,19.343750,30.314,0.56799849,-0.00980203,-0.02898374,-0.82246068
'00:13:44.074,0.059082,0.030273,1.003418,0.365854,1.341463,-0.548781,-4.818750,17.593750,19.343750,30.329,0.56800522,-0.00979814,-0.02899139,-0.82245581
'00:13:44.084,0.059570,0.030273,1.004395,0.426829,1.341463,-0.548781,-4.793750,17.525000,19.318750,30.314,0.56801217,-0.00979427,-0.02900514,-0.82245057
'00:13:44.094,0.058594,0.030762,1.004395,0.304878,1.402439,-0.609756,-4.793750,17.525000,19.318750,30.314,0.56801470,-0.00978458,-0.02900593,-0.82244891
'00:13:44.104,0.060547,0.030762,1.003418,0.304878,1.341463,-0.548781,-4.775000,17.475000,19.287500,30.284,0.56802162,-0.00979099,-0.02901798,-0.82244364
'00:13:44.114,0.060547,0.028320,1.002930,0.304878,1.341463,-0.548781,-4.775000,17.475000,19.287500,30.299,0.56802900,-0.00980701,-0.02901609,-0.82243842
'00:13:44.124,0.060547,0.028320,1.003418,0.365854,1.341463,-0.548781,-5.050000,17.850000,19.593750,30.299,0.56802509,-0.00980883,-0.02900561,-0.82244146
'00:13:44.136,0.062012,0.029785,1.002930,0.365854,1.341463,-0.548781,-5.050000,17.850000,19.593750,30.284,0.56802002,-0.00981392,-0.02900997,-0.82244475
'00:13:44.144,0.059570,0.029785,1.001953,0.365854,1.402439,-0.548781,-4.943750,17.700001,19.425001,30.299,0.56802031,-0.00980630,-0.02900718,-0.82244474
'00:13:44.154,0.061035,0.031250,1.003906,0.304878,1.341463,-0.609756,-4.787500,17.562500,19.362501,30.284,0.56802356,-0.00981352,-0.02902460,-0.82244180
'00:13:44.164,0.060547,0.030273,1.003906,0.304878,1.341463,-0.609756,-4.787500,17.562500,19.362501,30.299,0.56802698,-0.00982174,-0.02903428,-0.82243899
'00:13:44.176,0.060059,0.029297,1.004883,0.365854,1.341463,-0.548781,-4.800000,17.531250,19.268751,30.299,0.56803518,-0.00982732,-0.02903967,-0.82243307
'00:13:44.184,0.058594,0.028320,1.002930,0.304878,1.341463,-0.548781,-4.800000,17.531250,19.268751,30.314,0.56804076,-0.00983028,-0.02903131,-0.82242948
'00:13:44.194,0.058105,0.029785,1.002930,0.365854,1.341463,-0.548781,-4.850000,17.531250,19.293751,30.269,0.56804389,-0.00981944,-0.02902781,-0.82242757
'00:13:44.204,0.058594,0.029297,1.001465,0.365854,1.341463,-0.548781,-4.850000,17.531250,19.293751,30.299,0.56804711,-0.00981369,-0.02902408,-0.82242555
'00:13:44.216,0.059570,0.028809,1.001953,0.243902,1.341463,-0.609756,-4.956250,17.743750,19.431250,30.284,0.56804227,-0.00981886,-0.02900624,-0.82242945
'00:13:44.224,0.060059,0.028809,1.004395,0.365854,1.341463,-0.548781,-4.956250,17.743750,19.431250,30.299,0.56804266,-0.00981928,-0.02900226,-0.82242932
'00:13:44.234,0.059570,0.029297,1.004395,0.304878,1.341463,-0.548781,-5.031250,17.893751,19.556250,30.254,0.56804094,-0.00981621,-0.02899149,-0.82243092
'00:13:44.245,0.060547,0.029785,1.005371,0.365854,1.341463,-0.548781,-5.031250,17.893751,19.556250,30.329,0.56803900,-0.00981314,-0.02899130,-0.82243231
'00:13:44.257,0.062012,0.029785,1.004395,0.304878,1.402439,-0.548781,-5.087500,17.925001,19.581251,30.299,0.56803320,-0.00981463,-0.02898512,-0.82243651
'00:13:44.264,0.060059,0.030762,1.004395,0.304878,1.341463,-0.548781,-5.087500,17.925001,19.581251,30.269,0.56802962,-0.00980853,-0.02898233,-0.82243916
'00:13:44.274,0.059082,0.030273,1.003418,0.365854,1.341463,-0.609756,-4.856250,17.531250,19.375000,30.284,0.56802763,-0.00980121,-0.02898541,-0.82244051
'00:13:44.284,0.058594,0.030762,1.002930,0.426829,1.341463,-0.548781,-4.856250,17.531250,19.375000,30.284,0.56802998,-0.00978659,-0.02899386,-0.82243876
'00:13:44.297,0.059082,0.029297,1.002441,0.304878,1.341463,-0.548781,-4.818750,17.518751,19.343750,30.284,0.56803647,-0.00978953,-0.02898873,-0.82243442
'00:13:44.304,0.058105,0.029785,1.002441,0.304878,1.341463,-0.548781,-4.818750,17.518751,19.343750,30.299,0.56803991,-0.00978591,-0.02898530,-0.82243221
'00:13:44.314,0.059570,0.029785,1.002930,0.365854,1.341463,-0.548781,-4.800000,17.537500,19.318750,30.284,0.56804669,-0.00978719,-0.02899229,-0.82242727
'00:13:44.324,0.060059,0.030273,1.004883,0.304878,1.341463,-0.548781,-4.800000,17.537500,19.318750,30.314,0.56805327,-0.00979179,-0.02899865,-0.82242245
'00:13:44.336,0.059570,0.029785,1.005859,0.304878,1.280488,-0.609756,-4.893750,17.643751,19.400000,30.269,0.56805065,-0.00979621,-0.02899786,-0.82242423
'00:13:44.344,0.060547,0.029785,1.004883,0.365854,1.402439,-0.548781,-4.893750,17.643751,19.400000,30.314,0.56805265,-0.00979428,-0.02899926,-0.82242282
'00:13:44.354,0.059570,0.029297,1.001953,0.304878,1.341463,-0.548781,-5.031250,17.850000,19.550001,30.269,0.56804993,-0.00979147,-0.02898846,-0.82242512
'00:13:44.364,0.060547,0.030273,1.002930,0.304878,1.341463,-0.548781,-5.031250,17.850000,19.550001,30.239,0.56804702,-0.00979007,-0.02898662,-0.82242721
'00:13:44.376,0.060547,0.030273,1.002930,0.365854,1.341463,-0.548781,-4.825000,17.487501,19.331251,30.254,0.56805134,-0.00979303,-0.02899896,-0.82242375
'00:13:44.384,0.059082,0.029297,1.003418,0.365854,1.402439,-0.548781,-4.825000,17.487501,19.331251,30.314,0.56805453,-0.00978794,-0.02899547,-0.82242173
'00:13:44.394,0.060059,0.029785,1.003418,0.365854,1.341463,-0.609756,-4.837500,17.600000,19.337500,30.314,0.56805564,-0.00979016,-0.02900251,-0.82242069
'00:13:44.404,0.059082,0.028809,1.004395,0.304878,1.280488,-0.609756,-4.837500,17.600000,19.337500,30.269,0.56805678,-0.00979795,-0.02899840,-0.82241996
'00:13:44.416,0.059570,0.029297,1.004395,0.304878,1.280488,-0.609756,-4.812500,17.462500,19.275000,30.284,0.56805646,-0.00980745,-0.02899763,-0.82242009
'00:13:44.424,0.061035,0.030762,1.005371,0.365854,1.341463,-0.609756,-5.093750,18.043751,19.675001,30.284,0.56805041,-0.00980323,-0.02900211,-0.82242417
'00:13:44.434,0.060547,0.029785,1.002930,0.365854,1.341463,-0.609756,-5.093750,18.043751,19.675001,30.299,0.56804306,-0.00979964,-0.02900137,-0.82242931
'00:13:44.444,0.059570,0.030273,1.003906,0.426829,1.341463,-0.548781,-5.437500,18.375000,19.925001,30.284,0.56802445,-0.00977195,-0.02898614,-0.82244303
'00:13:44.454,0.061035,0.029297,1.003418,0.365854,1.341463,-0.548781,-5.437500,18.375000,19.925001,30.269,0.56800611,-0.00975929,-0.02896721,-0.82245651
'00:13:44.464,0.061035,0.028809,1.001953,0.365854,1.341463,-0.548781,-4.862500,17.593750,19.431250,30.284,0.56800973,-0.00977050,-0.02897137,-0.82245374
'00:13:44.474,0.059082,0.028809,1.003906,0.365854,1.341463,-0.548781,-4.862500,17.593750,19.431250,30.314,0.56801339,-0.00977029,-0.02896710,-0.82245136
'00:13:44.484,0.060547,0.029297,1.003418,0.365854,1.341463,-0.609756,-4.837500,17.550001,19.393751,30.299,0.56801338,-0.00977705,-0.02897255,-0.82245110
'00:13:44.494,0.061035,0.029785,1.003418,0.304878,1.341463,-0.609756,-4.837500,17.550001,19.393751,30.254,0.56801316,-0.00978750,-0.02897819,-0.82245092
'00:13:44.504,0.060059,0.029297,1.005859,0.365854,1.341463,-0.548781,-4.787500,17.500000,19.318750,30.284,0.56802012,-0.00979311,-0.02898341,-0.82244586
'00:13:44.514,0.059570,0.030273,1.004883,0.365854,1.341463,-0.609756,-4.787500,17.500000,19.318750,30.284,0.56802248,-0.00979209,-0.02899262,-0.82244393
'00:13:44.524,0.059570,0.029785,1.002441,0.365854,1.341463,-0.548781,-4.831250,17.612501,19.425001,30.314,0.56802843,-0.00979282,-0.02899885,-0.82243958
'00:13:44.536,0.059570,0.029785,1.003906,0.365854,1.341463,-0.548781,-4.831250,17.612501,19.425001,30.299,0.56803556,-0.00979327,-0.02900547,-0.82243442
'00:13:44.544,0.060059,0.029785,1.003906,0.243902,1.280488,-0.609756,-5.212500,18.106251,19.750000,30.284,0.56802418,-0.00979200,-0.02899259,-0.82244275
'00:13:44.554,0.060059,0.028809,1.002441,0.304878,1.341463,-0.548781,-5.212500,18.106251,19.750000,30.223,0.56801479,-0.00978727,-0.02897323,-0.82244997
'00:13:44.564,0.060059,0.029785,1.003906,0.304878,1.280488,-0.548781,-5.025000,17.831251,19.493750,30.239,0.56801221,-0.00978941,-0.02896999,-0.82245185
'00:13:44.576,0.061035,0.029785,1.003906,0.365854,1.341463,-0.548781,-5.025000,17.831251,19.493750,30.299,0.56800933,-0.00978946,-0.02897224,-0.82245376
'00:13:44.584,0.060059,0.029297,1.004395,0.365854,1.341463,-0.548781,-4.831250,17.593750,19.312500,30.269,0.56801426,-0.00979302,-0.02897606,-0.82245017
'00:13:44.595,0.061035,0.028809,1.004883,0.304878,1.280488,-0.548781,-4.831250,17.593750,19.312500,30.314,0.56802086,-0.00981384,-0.02898060,-0.82244520
'00:13:44.604,0.061035,0.029785,1.004395,0.365854,1.341463,-0.548781,-4.843750,17.587500,19.287500,30.314,0.56802538,-0.00981973,-0.02898959,-0.82244170
'00:13:44.614,0.061035,0.030273,1.002930,0.365854,1.402439,-0.609756,-4.843750,17.587500,19.287500,30.299,0.56802602,-0.00982005,-0.02899978,-0.82244089
'00:13:44.624,0.061035,0.030273,1.002930,0.365854,1.402439,-0.609756,-4.781250,17.562500,19.256250,30.299,0.56803054,-0.00982377,-0.02901417,-0.82243722
'00:13:44.634,0.059570,0.030273,1.001953,0.304878,1.341463,-0.548781,-4.781250,17.562500,19.256250,30.314,0.56803924,-0.00982707,-0.02902166,-0.82243091
'00:13:44.644,0.060547,0.030762,1.002441,0.304878,1.341463,-0.548781,-5.068750,17.943750,19.643751,30.314,0.56803543,-0.00982266,-0.02902138,-0.82243360
'00:13:44.657,0.059082,0.029297,1.002441,0.304878,1.341463,-0.548781,-5.112500,17.937500,19.518751,30.314,0.56802762,-0.00981021,-0.02899929,-0.82243992
'00:13:44.664,0.059570,0.029297,1.004883,0.304878,1.280488,-0.548781,-5.112500,17.937500,19.518751,30.284,0.56802337,-0.00980823,-0.02899041,-0.82244320
'00:13:44.675,0.059082,0.029297,1.005859,0.304878,1.341463,-0.548781,-4.831250,17.512501,19.306250,30.344,0.56802793,-0.00980853,-0.02898351,-0.82244029
'00:13:44.684,0.059082,0.030762,1.004883,0.304878,1.341463,-0.548781,-4.831250,17.512501,19.306250,30.299,0.56803137,-0.00980378,-0.02898576,-0.82243789
'00:13:44.694,0.060059,0.029785,1.002930,0.304878,1.341463,-0.609756,-4.787500,17.575001,19.318750,30.299,0.56803546,-0.00981166,-0.02899220,-0.82243474
'00:13:44.704,0.059570,0.030273,1.002441,0.304878,1.341463,-0.609756,-4.787500,17.575001,19.318750,30.314,0.56803943,-0.00981487,-0.02899959,-0.82243170
'00:13:44.714,0.059570,0.029297,1.002441,0.243902,1.341463,-0.609756,-4.812500,17.525000,19.350000,30.284,0.56804045,-0.00982274,-0.02899366,-0.82243111
'00:13:44.724,0.060547,0.029785,1.003418,0.304878,1.280488,-0.548781,-4.812500,17.525000,19.350000,30.329,0.56804559,-0.00983528,-0.02900133,-0.82242714
'00:13:44.734,0.059570,0.029297,1.003906,0.304878,1.341463,-0.609756,-4.887500,17.556250,19.356251,30.299,0.56804212,-0.00983532,-0.02899403,-0.82242979
'00:13:44.744,0.059570,0.028320,1.004395,0.304878,1.341463,-0.609756,-4.887500,17.556250,19.356251,30.314,0.56803888,-0.00983909,-0.02898115,-0.82243244
'00:13:44.755,0.060059,0.029297,1.005859,0.365854,1.341463,-0.609756,-5.181250,18.050001,19.668751,30.254,0.56802477,-0.00982766,-0.02896756,-0.82244280
'00:13:44.764,0.059082,0.029297,1.003418,0.304878,1.341463,-0.548781,-5.181250,18.050001,19.668751,30.269,0.56801720,-0.00981709,-0.02895024,-0.82244876
'00:13:44.775,0.060059,0.029785,1.002930,0.365854,1.341463,-0.609756,-4.793750,17.512501,19.318750,30.314,0.56801974,-0.00982096,-0.02896061,-0.82244660
'00:13:44.786,0.059082,0.029785,1.002441,0.304878,1.341463,-0.548781,-4.793750,17.512501,19.318750,30.284,0.56802703,-0.00982238,-0.02896197,-0.82244150
'00:13:44.794,0.059082,0.030273,1.003906,0.365854,1.341463,-0.548781,-4.943750,17.700001,19.443750,30.329,0.56802711,-0.00981424,-0.02896222,-0.82244153
'00:13:44.805,0.060059,0.028809,1.003906,0.304878,1.341463,-0.548781,-4.943750,17.700001,19.443750,30.239,0.56802748,-0.00981869,-0.02895285,-0.82244156
'00:13:44.814,0.059082,0.028320,1.004883,0.243902,1.341463,-0.548781,-4.762500,17.500000,19.362501,30.299,0.56803523,-0.00982905,-0.02894355,-0.82243640
'00:13:44.824,0.059082,0.028320,1.006836,0.365854,1.341463,-0.548781,-4.762500,17.500000,19.362501,30.269,0.56804395,-0.00983395,-0.02894131,-0.82243040
'00:13:44.834,0.060059,0.028320,1.003906,0.365854,1.341463,-0.609756,-4.818750,17.500000,19.331251,30.269,0.56804437,-0.00984102,-0.02893975,-0.82243008
'00:13:44.844,0.059082,0.029785,1.003418,0.365854,1.341463,-0.609756,-4.818750,17.500000,19.331251,30.284,0.56804451,-0.00983690,-0.02894294,-0.82242992
'00:13:44.854,0.059570,0.030273,1.002930,0.304878,1.341463,-0.609756,-5.112500,17.987501,19.625000,30.284,0.56803474,-0.00982680,-0.02893516,-0.82243706
'00:13:44.864,0.059570,0.030273,1.001953,0.365854,1.341463,-0.548781,-5.112500,17.987501,19.625000,30.269,0.56802946,-0.00981423,-0.02893226,-0.82244096
'00:13:44.874,0.060059,0.030273,1.001953,0.304878,1.341463,-0.548781,-4.950000,17.725000,19.468750,30.329,0.56802958,-0.00981306,-0.02893328,-0.82244086
'00:13:44.884,0.060059,0.029297,1.003418,0.304878,1.341463,-0.548781,-4.950000,17.725000,19.468750,30.299,0.56802992,-0.00981541,-0.02892821,-0.82244078
'00:13:44.894,0.060059,0.028320,1.004883,0.304878,1.402439,-0.548781,-4.787500,17.462500,19.331251,30.299,0.56803622,-0.00982286,-0.02892064,-0.82243660
'00:13:44.904,0.060059,0.029785,1.004883,0.304878,1.341463,-0.609756,-4.787500,17.462500,19.331251,30.299,0.56803766,-0.00982863,-0.02892459,-0.82243540
'00:13:44.914,0.059570,0.029297,1.004883,0.304878,1.341463,-0.609756,-4.856250,17.518751,19.375000,30.329,0.56803556,-0.00983016,-0.02891965,-0.82243700
'00:13:44.924,0.059570,0.030273,1.002930,0.365854,1.341463,-0.548781,-4.856250,17.518751,19.375000,30.284,0.56803768,-0.00982539,-0.02892543,-0.82243539
'00:13:44.934,0.059570,0.029785,1.002441,0.365854,1.341463,-0.548781,-4.787500,17.493750,19.312500,30.299,0.56804436,-0.00982643,-0.02893349,-0.82243048
'00:13:44.944,0.059570,0.029785,1.002441,0.304878,1.341463,-0.548781,-5.100000,17.912500,19.593750,30.299,0.56803830,-0.00981825,-0.02892251,-0.82243515
'00:13:44.954,0.059082,0.029297,1.003418,0.304878,1.341463,-0.548781,-5.100000,17.912500,19.593750,30.299,0.56803242,-0.00980924,-0.02890680,-0.82243987
'00:13:44.964,0.060059,0.030273,1.001465,0.243902,1.341463,-0.548781,-5.062500,17.862501,19.562500,30.314,0.56802778,-0.00980680,-0.02889858,-0.82244340
'00:13:44.974,0.060059,0.028320,1.004395,0.182927,1.219512,-0.548781,-5.062500,17.862501,19.562500,30.299,0.56802323,-0.00982309,-0.02888016,-0.82244699
'00:13:44.984,0.059570,0.029297,1.004883,0.365854,1.280488,-0.548781,-4.825000,17.543751,19.387501,30.284,0.56802826,-0.00982865,-0.02888637,-0.82244323
'00:13:44.994,0.060547,0.029785,1.003906,0.365854,1.402439,-0.548781,-4.825000,17.543751,19.387501,30.314,0.56803341,-0.00982904,-0.02889335,-0.82243942
'00:13:45.004,0.060059,0.028809,1.004883,0.304878,1.341463,-0.609756,-4.781250,17.537500,19.362501,30.314,0.56803721,-0.00984014,-0.02889442,-0.82243663
'00:13:45.014,0.059570,0.029785,1.004395,0.304878,1.341463,-0.609756,-4.781250,17.537500,19.362501,30.359,0.56804078,-0.00984460,-0.02889930,-0.82243394
'00:13:45.024,0.060059,0.029785,1.003906,0.365854,1.402439,-0.548781,-4.825000,17.581251,19.375000,30.329,0.56804681,-0.00984247,-0.02890504,-0.82242960
'00:13:45.034,0.059570,0.029297,1.002930,0.304878,1.341463,-0.548781,-4.825000,17.581251,19.375000,30.299,0.56805272,-0.00984716,-0.02890505,-0.82242546
'00:13:45.044,0.058105,0.028809,1.003418,0.304878,1.341463,-0.548781,-5.018750,17.887501,19.550001,30.299,0.56805195,-0.00983852,-0.02888862,-0.82242667
'00:13:45.054,0.059082,0.030762,1.004883,0.304878,1.341463,-0.548781,-5.018750,17.887501,19.550001,30.269,0.56805081,-0.00982753,-0.02888654,-0.82242767
'00:13:45.064,0.059570,0.030273,1.002930,0.365854,1.341463,-0.609756,-5.156250,18.037500,19.712500,30.299,0.56803911,-0.00981302,-0.02888176,-0.82243609
'00:13:45.074,0.060059,0.029297,1.003906,0.365854,1.280488,-0.609756,-5.156250,18.037500,19.712500,30.314,0.56802752,-0.00980933,-0.02887621,-0.82244433
'00:13:45.084,0.060059,0.030273,1.004395,0.304878,1.341463,-0.609756,-4.812500,17.543751,19.375000,30.299,0.56802900,-0.00981328,-0.02888379,-0.82244300
'00:13:45.094,0.059570,0.030273,1.002441,0.365854,1.341463,-0.548781,-4.812500,17.543751,19.375000,30.329,0.56803487,-0.00981199,-0.02889446,-0.82243858
'00:13:45.104,0.059570,0.029297,1.002930,0.304878,1.341463,-0.609756,-4.787500,17.525000,19.350000,30.269,0.56803791,-0.00981853,-0.02889643,-0.82243633
'00:13:45.114,0.058105,0.030273,1.003418,0.304878,1.341463,-0.548781,-4.787500,17.525000,19.350000,30.284,0.56804516,-0.00981297,-0.02889799,-0.82243134
'00:13:45.124,0.059082,0.029785,1.002441,0.304878,1.341463,-0.609756,-4.812500,17.562500,19.337500,30.314,0.56804726,-0.00981385,-0.02889992,-0.82242981
'00:13:45.134,0.060059,0.028809,1.003906,0.365854,1.341463,-0.609756,-4.812500,17.562500,19.337500,30.314,0.56804959,-0.00982063,-0.02890383,-0.82242798
'00:13:45.144,0.060059,0.029785,1.003906,0.365854,1.341463,-0.548781,-4.781250,17.531250,19.325001,30.299,0.56805755,-0.00982508,-0.02891488,-0.82242204
'00:13:45.154,0.060059,0.030273,1.004395,0.365854,1.341463,-0.548781,-4.781250,17.531250,19.325001,30.329,0.56806536,-0.00982739,-0.02892830,-0.82241615
'00:13:45.164,0.059570,0.029297,1.004395,0.365854,1.341463,-0.548781,-5.200000,18.056250,19.693750,30.329,0.56805575,-0.00981410,-0.02891410,-0.82242345
'00:13:45.174,0.059570,0.029297,1.003418,0.365854,1.341463,-0.548781,-5.200000,18.056250,19.693750,30.299,0.56804622,-0.00980125,-0.02890057,-0.82243066
'00:13:45.184,0.059570,0.029785,1.002441,0.243902,1.280488,-0.609756,-4.968750,17.756250,19.406250,30.299,0.56804163,-0.00980579,-0.02889544,-0.82243395
'00:13:45.194,0.060059,0.029297,1.001953,0.304878,1.341463,-0.609756,-4.818750,17.543751,19.356251,30.314,0.56804286,-0.00981365,-0.02889765,-0.82243293
'00:13:45.204,0.060547,0.029297,1.002930,0.304878,1.341463,-0.548781,-4.818750,17.543751,19.356251,30.329,0.56804843,-0.00982403,-0.02890124,-0.82242884
'00:13:45.214,0.059570,0.028809,1.004395,0.365854,1.341463,-0.548781,-4.756250,17.512501,19.287500,30.269,0.56805810,-0.00983067,-0.02890630,-0.82242190
'00:13:45.224,0.059570,0.029785,1.003418,0.304878,1.341463,-0.548781,-4.756250,17.512501,19.287500,30.284,0.56806745,-0.00983655,-0.02891282,-0.82241514
'00:13:45.234,0.058594,0.028809,1.003418,0.365854,1.341463,-0.609756,-4.775000,17.512501,19.331251,30.329,0.56807117,-0.00983651,-0.02891265,-0.82241258
'00:13:45.244,0.060547,0.029297,1.004395,0.365854,1.341463,-0.548781,-4.775000,17.512501,19.331251,30.314,0.56807907,-0.00984532,-0.02892240,-0.82240668
'00:13:45.254,0.058594,0.030273,1.003906,0.304878,1.341463,-0.609756,-5.143750,18.043751,19.587500,30.284,0.56806863,-0.00982846,-0.02890991,-0.82241452
