# FW/GUI: v9.6.1-multi17-dual (PyQt5)
# StartTime: 2026-04-03 16:21:43
# Slot: 13
# DeviceID: 13
# Label: EMG13
# IP: 192.168.137.206
# TCP: 3333
# DeviceFW: EMG_FW_v9.6_MULTI17_DUALCH_RUNTIMECFG_CHEN
# EMG column notes: EMG_t_s=seconds since this Start; sample_idx=device sample index (ADS frame index); fs=sample rate (SPS); gain=gain; flags=0x01(TEST) 0x02(SHORT) 0x04(RLD); emg_valid=1 valid / 0 invalid (spike-guard decision); ch1_raw_uV=raw uV (after spike guard); ch1_filt_uV=filtered uV; ch1_env_uV=envelope (RMS) uV
EMG_t_s,sample_idx,fs,gain,flags,emg_valid,ch1_raw_uV,ch1_filt_uV,ch1_env_uV,ch2_raw_uV,ch2_filt_uV,ch2_env_uV
0.000000,759211,1000.00,12,0,1,1212.419,6.094,4.081,1027.845,-0.298,1.078
0.001000,759212,1000.00,12,0,1,1212.972,7.752,4.134,1028.229,-0.114,1.070
0.002000,759213,1000.00,12,0,1,1209.417,3.224,4.159,1030.078,1.669,1.073
0.003000,759214,1000.00,12,0,1,1211.242,3.481,4.181,1030.247,1.825,1.103
0.004000,759215,1000.00,12,0,1,1212.900,4.794,4.216,1029.478,0.817,1.088
0.005000,759216,1000.00,12,0,1,1211.507,1.950,4.095,1029.838,0.750,1.091
0.006000,759217,1000.00,12,0,1,1210.378,-0.311,3.723,1028.517,-0.092,1.079
0.007000,759218,1000.00,12,0,1,1211.362,-0.774,3.330,1026.259,-2.385,1.129
0.008000,759219,1000.00,12,0,1,1216.263,2.389,3.259,1028.013,-0.912,1.132
0.009000,759220,1000.00,12,0,1,1218.905,4.119,3.306,1029.526,1.146,1.143
0.010000,759221,1000.00,12,0,1,1218.761,2.336,3.306,1027.268,-0.750,1.141
0.011000,759222,1000.00,12,0,1,1217.728,0.456,3.299,1029.166,0.127,1.116
0.012000,759223,1000.00,12,0,1,1214.749,-2.518,3.255,1027.917,0.376,1.115
0.013000,759224,1000.00,12,0,1,1216.311,-1.796,3.111,1027.748,-1.000,1.118
0.014000,759225,1000.00,12,0,1,1215.998,-0.404,3.055,1029.022,0.984,1.099
0.015000,759226,1000.00,12,0,1,1213.861,-2.312,3.063,1028.925,0.666,1.099
0.016000,759227,1000.00,12,0,1,1211.435,-3.027,2.968,1028.517,0.264,1.096
0.017000,759228,1000.00,12,0,1,1211.699,-2.127,2.907,1029.214,0.724,1.089
0.018000,759229,1000.00,12,0,1,1214.149,1.466,2.878,1028.853,0.538,1.077
0.019000,759230,1000.00,12,0,1,1211.146,0.276,2.872,1029.622,0.811,1.083
0.020000,759231,1000.00,12,0,1,1208.528,-2.413,2.892,1027.700,-0.393,1.083
0.021000,759232,1000.00,12,0,1,1208.456,-1.402,2.893,1026.788,-1.821,1.112
0.022000,759233,1000.00,12,0,1,1206.630,-2.495,2.912,1028.085,-0.272,1.112
0.023000,759234,1000.00,12,0,1,1207.303,-2.141,2.923,1028.349,0.269,1.064
0.024000,759235,1000.00,12,0,1,1209.056,-0.264,2.895,1026.908,-1.003,1.069
0.025000,759236,1000.00,12,0,1,1209.345,-0.487,2.863,1027.220,-0.853,1.075
0.026000,759237,1000.00,12,0,1,1210.306,-0.512,2.827,1029.598,1.340,1.092
0.027000,759238,1000.00,12,0,1,1209.873,-1.293,2.789,1029.142,1.382,1.109
0.028000,759239,1000.00,12,0,1,1208.000,-3.716,2.837,1029.190,0.554,1.102
0.029000,759240,1000.00,12,0,1,1205.309,-6.094,2.963,1029.118,0.882,1.076
0.030000,759241,1000.00,12,0,1,1211.218,-1.846,2.972,1029.262,0.443,1.074
0.031000,759242,1000.00,12,0,1,1214.293,2.825,2.996,1028.613,0.170,1.069
0.032000,759243,1000.00,12,0,1,1214.894,2.040,3.010,1029.238,0.185,1.068
0.033000,759244,1000.00,12,0,1,1215.350,2.932,3.038,1029.070,0.473,1.067
0.034000,759245,1000.00,12,0,1,1217.512,4.287,3.093,1027.821,-0.881,1.035
0.035000,759246,1000.00,12,0,1,1216.623,4.361,3.152,1027.388,-1.233,1.037
0.036000,759247,1000.00,12,0,1,1215.182,2.646,3.166,1028.661,-0.010,1.031
0.037000,759248,1000.00,12,0,1,1211.867,0.688,3.160,1027.244,-0.690,0.985
0.038000,759249,1000.00,12,0,1,1209.873,-0.890,3.154,1027.580,-0.963,0.945
0.039000,759250,1000.00,12,0,1,1212.972,2.392,3.170,1026.812,-0.748,0.948
0.040000,759251,1000.00,12,0,1,1214.365,4.816,3.243,1027.676,-0.566,0.908
0.041000,759252,1000.00,12,0,1,1216.695,5.632,3.330,1028.901,1.143,0.906
0.042000,759253,1000.00,12,0,1,1213.260,3.338,3.356,1026.788,-0.621,0.900
0.043000,759254,1000.00,12,0,1,1212.900,0.266,3.351,1027.148,-0.961,0.910
0.044000,759255,1000.00,12,0,1,1216.143,3.307,3.254,1027.148,-0.051,0.903
0.045000,759256,1000.00,12,0,1,1219.241,4.272,3.101,1027.412,-0.396,0.892
0.046000,759257,1000.00,12,0,1,1214.461,-0.328,3.041,1028.685,1.131,0.906
0.047000,759258,1000.00,12,0,1,1213.548,-4.191,3.079,1028.229,0.662,0.908
0.048000,759259,1000.00,12,0,1,1215.422,-2.217,3.072,1031.207,2.507,0.963
0.049000,759260,1000.00,12,0,1,1215.950,-2.638,3.094,1029.910,2.240,1.010
0.050000,759261,1000.00,12,0,1,1217.151,-2.177,2.988,1027.797,-1.009,1.019
0.051000,759262,1000.00,12,0,1,1218.401,-1.115,2.784,1028.517,-0.087,1.019
0.052000,759263,1000.00,12,0,1,1218.521,-1.310,2.752,1026.668,-1.311,1.008
0.053000,759264,1000.00,12,0,1,1218.377,-1.153,2.713,1026.067,-2.233,1.024
0.054000,759265,1000.00,12,0,1,1217.512,-1.633,2.637,1027.508,-0.325,1.019
0.055000,759266,1000.00,12,0,1,1215.062,-2.771,2.652,1028.181,0.448,1.015
0.056000,759267,1000.00,12,0,1,1214.749,-2.616,2.677,1029.382,1.419,1.035
0.057000,759268,1000.00,12,0,1,1212.491,-2.509,2.698,1027.676,0.280,0.979
0.058000,759269,1000.00,12,0,1,1212.419,-2.334,2.697,1028.901,0.380,0.972
0.059000,759270,1000.00,12,0,1,1209.441,-2.496,2.657,1030.271,2.283,1.012
0.060000,759271,1000.00,12,0,1,1207.471,-4.229,2.704,1029.478,1.037,1.017
0.061000,759272,1000.00,12,0,1,1205.670,-3.836,2.757,1027.700,-0.632,1.020
0.062000,759273,1000.00,12,0,1,1203.292,-5.290,2.834,1029.166,0.071,1.019
0.063000,759274,1000.00,12,0,1,1201.394,-5.880,2.943,1030.199,1.477,1.031
0.064000,759275,1000.00,12,0,1,1207.375,-0.810,2.944,1030.223,0.977,1.030
0.065000,759276,1000.00,12,0,1,1210.258,3.220,2.961,1027.460,-1.246,1.041
0.066000,759277,1000.00,12,0,1,1215.422,5.400,3.028,1029.382,-0.597,1.044
0.067000,759278,1000.00,12,0,1,1215.398,5.672,3.118,1029.262,0.563,1.042
0.068000,759279,1000.00,12,0,1,1215.590,2.718,3.135,1028.805,-0.815,1.045
0.069000,759280,1000.00,12,0,1,1218.977,4.819,3.208,1028.205,-0.758,1.045
0.070000,759281,1000.00,12,0,1,1221.187,5.532,3.284,1026.836,-2.043,1.082
0.071000,759282,1000.00,12,0,1,1218.352,2.067,3.291,1027.965,-1.115,1.063
0.072000,759283,1000.00,12,0,1,1214.797,-1.989,3.284,1029.190,0.646,1.066
0.073000,759284,1000.00,12,0,1,1216.287,-1.100,3.274,1028.829,0.136,1.066
0.074000,759285,1000.00,12,0,1,1213.909,-1.206,3.278,1026.956,-1.193,1.070
0.075000,759286,1000.00,12,0,1,1214.149,-1.763,3.287,1028.109,-0.764,1.068
0.076000,759287,1000.00,12,0,1,1213.068,-0.064,3.286,1028.301,0.424,1.053
0.077000,759288,1000.00,12,0,1,1211.963,-1.141,3.285,1028.757,0.132,1.035
0.078000,759289,1000.00,12,0,1,1212.299,0.841,3.245,1027.580,-0.186,1.032
0.079000,759290,1000.00,12,0,1,1210.354,0.014,3.128,1028.349,-0.313,1.026
0.080000,759291,1000.00,12,0,1,1208.720,-1.030,3.121,1028.301,0.450,1.026
0.081000,759292,1000.00,12,0,1,1208.312,-0.640,3.096,1029.070,0.440,1.027
0.082000,759293,1000.00,12,0,1,1208.792,-0.143,3.083,1029.094,0.896,1.035
0.083000,759294,1000.00,12,0,1,1209.873,0.917,3.058,1027.316,-0.883,1.040
0.084000,759295,1000.00,12,0,1,1210.041,0.550,2.998,1027.076,-1.352,1.050
0.085000,759296,1000.00,12,0,1,1212.347,1.485,2.942,1029.094,0.687,1.040
0.086000,759297,1000.00,12,0,1,1212.467,1.155,2.922,1028.589,0.560,1.043
0.087000,759298,1000.00,12,0,1,1216.503,2.418,2.941,1029.094,0.443,1.041
0.088000,759299,1000.00,12,0,1,1215.374,1.761,2.948,1029.742,1.261,1.047
0.089000,759300,1000.00,12,0,1,1215.590,-0.878,2.931,1026.451,-1.418,1.061
0.090000,759301,1000.00,12,0,1,1216.431,0.226,2.851,1028.085,-1.018,1.067
0.091000,759302,1000.00,12,0,1,1216.815,-0.493,2.739,1029.550,1.625,1.080
0.092000,759303,1000.00,12,0,1,1215.350,-1.385,2.705,1029.358,0.696,1.081
0.093000,759304,1000.00,12,0,1,1214.365,-2.320,2.724,1027.436,-0.515,1.075
0.094000,759305,1000.00,12,0,1,1213.044,-2.438,2.706,1028.757,-0.215,1.075
0.095000,759306,1000.00,12,0,1,1210.354,-3.548,2.685,1029.190,1.108,1.085
0.096000,759307,1000.00,12,0,1,1211.387,-1.936,2.699,1029.118,0.374,1.074
0.097000,759308,1000.00,12,0,1,1210.089,-0.500,2.634,1029.910,1.133,1.082
0.098000,759309,1000.00,12,0,1,1209.729,-0.753,2.617,1029.022,0.410,1.024
0.099000,759310,1000.00,12,0,1,1209.249,0.788,2.593,1027.340,-1.414,0.994
0.100000,759311,1000.00,12,0,1,1209.849,1.205,2.580,1028.229,-0.674,0.989
0.101000,759312,1000.00,12,0,1,1207.375,0.366,2.576,1028.877,0.226,0.989
0.102000,759313,1000.00,12,0,1,1208.672,0.263,2.569,1028.349,-0.245,0.972
0.103000,759314,1000.00,12,0,1,1209.225,1.764,2.576,1029.022,0.055,0.919
0.104000,759315,1000.00,12,0,1,1207.855,-0.588,2.567,1029.142,0.490,0.921
0.105000,759316,1000.00,12,0,1,1208.432,-0.800,2.540,1028.877,-0.102,0.919
0.106000,759317,1000.00,12,0,1,1208.720,-0.886,2.516,1027.628,-0.912,0.906
0.107000,759318,1000.00,12,0,1,1213.068,1.271,2.497,1029.790,0.321,0.906
0.108000,759319,1000.00,12,0,1,1223.325,9.307,2.803,1030.847,2.060,0.950
0.109000,759320,1000.00,12,0,1,1225.270,10.191,3.132,1030.175,0.764,0.900
0.110000,759321,1000.00,12,0,1,1221.763,4.115,3.129,1029.142,-0.129,0.888
0.111000,759322,1000.00,12,0,1,1221.835,2.257,3.098,1029.406,-0.247,0.885
0.112000,759323,1000.00,12,0,1,1221.547,1.738,3.017,1028.469,-0.653,0.889
0.113000,759324,1000.00,12,0,1,1216.719,-2.670,2.924,1028.061,-1.288,0.883
0.114000,759325,1000.00,12,0,1,1214.701,-4.592,2.993,1029.238,-0.047,0.873
0.115000,759326,1000.00,12,0,1,1213.572,-3.827,3.008,1028.061,-0.564,0.858
0.116000,759327,1000.00,12,0,1,1218.929,1.059,2.913,1028.133,-1.065,0.867
0.117000,759328,1000.00,12,0,1,1211.338,-1.740,2.811,1027.004,-1.133,0.878
0.118000,759329,1000.00,12,0,1,1206.054,-8.315,3.023,1028.589,-0.524,0.874
0.119000,759330,1000.00,12,0,1,1208.576,-3.069,2.977,1029.310,1.183,0.883
0.120000,759331,1000.00,12,0,1,1211.915,0.800,2.874,1027.917,-0.561,0.839
0.121000,759332,1000.00,12,0,1,1210.017,0.382,2.860,1028.637,-0.070,0.824
0.122000,759333,1000.00,12,0,1,1212.443,1.189,2.851,1030.463,1.658,0.851
0.123000,759334,1000.00,12,0,1,1214.341,3.406,2.887,1030.463,1.566,0.880
0.124000,759335,1000.00,12,0,1,1212.491,0.603,2.884,1031.544,1.878,0.903
0.125000,759336,1000.00,12,0,1,1213.476,-0.303,2.873,1030.102,0.835,0.904
0.126000,759337,1000.00,12,0,1,1217.920,2.833,2.901,1027.797,-1.818,0.938
0.127000,759338,1000.00,12,0,1,1217.320,1.354,2.903,1027.748,-1.817,0.973
0.128000,759339,1000.00,12,0,1,1218.064,-0.114,2.900,1027.965,-1.140,0.986
0.129000,759340,1000.00,12,0,1,1220.755,1.463,2.908,1028.037,-0.995,0.995
0.130000,759341,1000.00,12,0,1,1221.043,1.070,2.908,1029.142,0.176,0.993
0.131000,759342,1000.00,12,0,1,1223.877,2.069,2.921,1028.637,0.061,0.991
0.132000,759343,1000.00,12,0,1,1223.133,2.139,2.937,1029.070,0.097,0.983
0.133000,759344,1000.00,12,0,1,1221.715,-0.367,2.934,1026.908,-1.079,0.987
0.134000,759345,1000.00,12,0,1,1217.488,-2.604,2.956,1027.340,-1.455,0.990
0.135000,759346,1000.00,12,0,1,1214.677,-5.130,3.037,1028.877,0.799,0.991
0.136000,759347,1000.00,12,0,1,1213.596,-3.883,3.082,1029.022,0.768,0.994
0.137000,759348,1000.00,12,0,1,1218.136,0.714,3.064,1028.877,0.570,0.996
0.138000,759349,1000.00,12,0,1,1215.158,1.082,3.058,1030.223,1.466,1.001
0.139000,759350,1000.00,12,0,1,1209.153,-4.778,3.129,1027.580,-0.364,0.982
0.140000,759351,1000.00,12,0,1,1207.399,-5.060,3.210,1028.781,-0.537,0.975
0.141000,759352,1000.00,12,0,1,1206.967,-4.116,3.262,1027.196,-0.481,0.950
0.142000,759353,1000.00,12,0,1,1208.216,-2.598,3.276,1028.661,-0.631,0.949
0.143000,759354,1000.00,12,0,1,1208.864,-1.165,3.264,1029.454,1.376,0.966
0.144000,759355,1000.00,12,0,1,1211.314,-0.030,3.246,1027.845,-0.661,0.970
0.145000,759356,1000.00,12,0,1,1213.260,1.767,3.217,1028.829,-0.038,0.957
0.146000,759357,1000.00,12,0,1,1213.044,0.156,3.205,1027.388,-0.462,0.958
0.147000,759358,1000.00,12,0,1,1214.966,0.607,3.205,1026.836,-1.777,0.977
0.148000,759359,1000.00,12,0,1,1221.115,4.610,3.269,1027.797,-0.054,0.975
0.149000,759360,1000.00,12,0,1,1219.698,3.423,3.303,1026.908,-0.812,0.962
0.150000,759361,1000.00,12,0,1,1214.797,-2.990,3.326,1029.694,1.309,0.975
0.151000,759362,1000.00,12,0,1,1214.749,-3.261,3.357,1031.063,3.167,1.072
0.152000,759363,1000.00,12,0,1,1214.990,-2.018,3.369,1030.919,2.229,1.117
0.153000,759364,1000.00,12,0,1,1217.368,0.262,3.360,1030.703,1.839,1.147
0.154000,759365,1000.00,12,0,1,1215.422,0.615,3.360,1028.877,0.003,1.145
0.155000,759366,1000.00,12,0,1,1211.218,-2.899,3.383,1029.430,-0.142,1.145
0.156000,759367,1000.00,12,0,1,1216.815,2.612,3.401,1028.349,-0.361,1.139
0.157000,759368,1000.00,12,0,1,1217.704,6.181,3.507,1026.956,-2.148,1.178
0.158000,759369,1000.00,12,0,1,1212.275,0.979,3.253,1029.190,-0.034,1.141
0.159000,759370,1000.00,12,0,1,1210.498,-0.328,2.917,1031.183,2.055,1.173
0.160000,759371,1000.00,12,0,1,1209.249,-0.365,2.859,1029.646,0.639,1.176
0.161000,759372,1000.00,12,0,1,1209.249,-0.402,2.841,1027.748,-1.507,1.194
0.162000,759373,1000.00,12,0,1,1209.945,0.647,2.832,1029.142,-0.480,1.193
0.163000,759374,1000.00,12,0,1,1211.074,0.985,2.810,1030.319,1.019,1.188
0.164000,759375,1000.00,12,0,1,1212.275,1.476,2.742,1029.310,-0.055,1.188
0.165000,759376,1000.00,12,0,1,1213.909,1.601,2.698,1028.998,-0.600,1.188
0.166000,759377,1000.00,12,0,1,1215.830,2.067,2.710,1029.838,0.167,1.179
0.167000,759378,1000.00,12,0,1,1219.602,3.588,2.746,1029.454,0.001,1.168
0.168000,759379,1000.00,12,0,1,1218.521,1.949,2.496,1028.301,-1.151,1.177
0.169000,759380,1000.00,12,0,1,1220.803,1.185,2.464,1028.829,-0.757,1.170
0.170000,759381,1000.00,12,0,1,1221.211,1.924,2.476,1029.526,0.189,1.167
0.171000,759382,1000.00,12,0,1,1217.968,-2.184,2.495,1030.607,0.937,1.175
0.172000,759383,1000.00,12,0,1,1215.206,-4.441,2.567,1028.709,-0.270,1.152
0.173000,759384,1000.00,12,0,1,1214.317,-4.450,2.599,1027.508,-1.961,1.164
0.174000,759385,1000.00,12,0,1,1215.254,-2.392,2.620,1027.748,-1.185,1.145
0.175000,759386,1000.00,12,0,1,1213.524,-1.870,2.633,1027.965,-0.840,1.145
0.176000,759387,1000.00,12,0,1,1215.014,-0.261,2.602,1028.589,-0.124,1.116
0.177000,759388,1000.00,12,0,1,1213.644,1.166,2.600,1028.877,0.333,1.087
0.178000,759389,1000.00,12,0,1,1205.309,-5.349,2.708,1027.268,-0.948,1.084
0.179000,759390,1000.00,12,0,1,1203.868,-6.197,2.839,1027.772,-0.822,1.081
0.180000,759391,1000.00,12,0,1,1206.150,-1.739,2.846,1030.078,1.509,1.101
0.181000,759392,1000.00,12,0,1,1207.759,0.323,2.831,1029.190,1.022,1.111
0.182000,759393,1000.00,12,0,1,1205.718,-0.606,2.816,1027.028,-1.369,1.127
0.183000,759394,1000.00,12,0,1,1208.096,0.082,2.815,1028.565,-0.211,1.118
0.184000,759395,1000.00,12,0,1,1213.332,4.836,2.874,1028.565,0.495,1.101
0.185000,759396,1000.00,12,0,1,1213.717,4.118,2.841,1028.709,0.043,1.095
0.186000,759397,1000.00,12,0,1,1214.509,2.499,2.810,1029.238,0.827,1.096
0.187000,759398,1000.00,12,0,1,1213.404,0.809,2.810,1031.328,2.143,1.134
0.188000,759399,1000.00,12,0,1,1213.116,-1.442,2.814,1030.919,2.161,1.156
0.189000,759400,1000.00,12,0,1,1208.816,-4.596,2.807,1030.679,0.981,1.163
0.190000,759401,1000.00,12,0,1,1205.549,-8.427,2.965,1030.391,0.894,1.168
0.191000,759402,1000.00,12,0,1,1206.342,-6.191,3.036,1028.589,-0.874,1.172
0.192000,759403,1000.00,12,0,1,1208.960,-2.606,3.036,1029.262,-0.684,1.173
0.193000,759404,1000.00,12,0,1,1212.347,1.748,3.042,1030.247,0.756,1.161
0.194000,759405,1000.00,12,0,1,1208.912,0.710,3.043,1028.253,-1.003,1.166
0.195000,759406,1000.00,12,0,1,1206.438,-1.596,3.042,1028.613,-1.073,1.176
0.196000,759407,1000.00,12,0,1,1208.000,1.760,3.052,1027.917,-0.898,1.181
0.197000,759408,1000.00,12,0,1,1208.888,3.718,3.095,1029.142,-0.413,1.156
0.198000,759409,1000.00,12,0,1,1209.153,4.710,3.098,1030.343,1.316,1.170
0.199000,759410,1000.00,12,0,1,1203.292,0.708,3.062,1029.982,0.633,1.168
0.200000,759411,1000.00,12,0,1,1204.012,-0.011,3.033,1028.661,-0.564,1.156
0.201000,759412,1000.00,12,0,1,1209.177,5.908,3.112,1029.382,-0.328,1.067
0.202000,759413,1000.00,12,0,1,1205.213,2.509,3.119,1030.823,1.135,1.032
0.203000,759414,1000.00,12,0,1,1209.609,3.265,3.153,1028.157,-0.901,1.007
0.204000,759415,1000.00,12,0,1,1211.699,6.310,3.275,1026.403,-3.145,1.100
0.205000,759416,1000.00,12,0,1,1213.981,4.569,3.313,1028.998,-0.476,1.102
0.206000,759417,1000.00,12,0,1,1218.377,7.481,3.458,1031.231,1.878,1.133
0.207000,759418,1000.00,12,0,1,1220.154,6.519,3.471,1029.574,0.550,1.094
0.208000,759419,1000.00,12,0,1,1219.914,4.123,3.517,1030.030,0.069,1.094
0.209000,759420,1000.00,12,0,1,1214.341,-1.894,3.527,1029.742,0.520,1.057
0.210000,759421,1000.00,12,0,1,1214.077,-4.422,3.581,1029.142,-0.571,1.057
0.211000,759422,1000.00,12,0,1,1214.581,-2.396,3.597,1029.238,-0.183,1.035
0.212000,759423,1000.00,12,0,1,1213.644,-3.598,3.631,1028.109,-0.994,1.042
0.213000,759424,1000.00,12,0,1,1212.203,-3.432,3.661,1028.469,-0.867,1.040
0.214000,759425,1000.00,12,0,1,1217.103,0.726,3.657,1029.286,0.379,1.041
0.215000,759426,1000.00,12,0,1,1214.293,1.331,3.654,1029.622,0.538,1.040
0.216000,759427,1000.00,12,0,1,1208.696,-4.395,3.695,1029.022,0.220,1.041
0.217000,759428,1000.00,12,0,1,1208.384,-3.127,3.687,1028.901,-0.202,1.041
0.218000,759429,1000.00,12,0,1,1207.543,-2.095,3.689,1030.054,0.879,1.036
0.219000,759430,1000.00,12,0,1,1207.447,-1.672,3.692,1029.022,0.198,1.030
0.220000,759431,1000.00,12,0,1,1205.069,-2.163,3.695,1028.253,-0.957,1.039
0.221000,759432,1000.00,12,0,1,1204.661,-3.130,3.709,1029.166,-0.003,1.030
0.222000,759433,1000.00,12,0,1,1207.375,0.050,3.655,1027.965,-0.726,1.035
0.223000,759434,1000.00,12,0,1,1210.306,1.999,3.611,1028.613,-0.697,1.002
0.224000,759435,1000.00,12,0,1,1211.747,2.632,3.615,1029.430,0.615,0.992
0.225000,759436,1000.00,12,0,1,1211.555,1.003,3.608,1028.829,-0.133,0.985
0.226000,759437,1000.00,12,0,1,1214.149,1.534,3.614,1028.781,-0.245,0.985
0.227000,759438,1000.00,12,0,1,1216.191,2.553,3.628,1029.070,0.094,0.984
0.228000,759439,1000.00,12,0,1,1215.182,0.283,3.549,1028.109,-0.597,0.978
0.229000,759440,1000.00,12,0,1,1213.668,-1.992,3.451,1030.102,0.701,0.977
0.230000,759441,1000.00,12,0,1,1214.966,-1.469,3.448,1030.895,2.047,0.996
0.231000,759442,1000.00,12,0,1,1218.352,1.706,3.456,1028.998,-0.019,0.985
0.232000,759443,1000.00,12,0,1,1215.758,0.330,3.455,1027.364,-1.562,0.991
0.233000,759444,1000.00,12,0,1,1213.212,-2.429,3.472,1027.268,-1.485,1.013
0.234000,759445,1000.00,12,0,1,1213.885,-0.549,3.405,1028.469,-0.189,1.011
0.235000,759446,1000.00,12,0,1,1213.092,0.088,3.355,1031.015,2.137,1.055
0.236000,759447,1000.00,12,0,1,1212.539,0.361,3.337,1030.391,1.881,1.082
0.237000,759448,1000.00,12,0,1,1209.993,-0.355,3.335,1029.070,0.013,1.038
0.238000,759449,1000.00,12,0,1,1205.814,-3.333,3.362,1027.989,-0.806,0.999
0.239000,759450,1000.00,12,0,1,1207.423,-1.452,3.305,1026.187,-2.289,1.041
0.240000,759451,1000.00,12,0,1,1208.432,1.054,3.087,1028.301,-0.736,1.038
0.241000,759452,1000.00,12,0,1,1205.213,-1.758,2.970,1028.109,0.260,1.032
0.242000,759453,1000.00,12,0,1,1207.495,-0.705,2.949,1027.700,-0.913,1.035
0.243000,759454,1000.00,12,0,1,1207.303,0.110,2.939,1029.022,0.669,1.034
0.244000,759455,1000.00,12,0,1,1209.585,-0.063,2.937,1031.304,2.327,1.076
0.245000,759456,1000.00,12,0,1,1210.378,1.049,2.932,1030.655,1.996,1.102
0.246000,759457,1000.00,12,0,1,1211.891,0.130,2.921,1030.199,0.645,1.098
0.247000,759458,1000.00,12,0,1,1217.224,3.911,2.926,1028.205,-0.729,1.101
0.248000,759459,1000.00,12,0,1,1220.370,5.654,2.960,1028.421,-1.247,1.100
0.249000,759460,1000.00,12,0,1,1221.691,4.870,3.037,1028.901,-0.101,1.096
0.250000,759461,1000.00,12,0,1,1221.884,3.996,3.089,1027.748,-1.107,1.104
0.251000,759462,1000.00,12,0,1,1217.175,-0.763,2.976,1027.220,-1.548,1.125
0.252000,759463,1000.00,12,0,1,1216.599,-2.241,2.972,1029.670,0.712,1.118
0.253000,759464,1000.00,12,0,1,1217.272,-0.212,2.936,1030.799,2.132,1.151
0.254000,759465,1000.00,12,0,1,1214.966,-1.415,2.804,1029.982,1.130,1.074
0.255000,759466,1000.00,12,0,1,1212.900,-2.350,2.749,1028.157,-0.627,1.075
0.256000,759467,1000.00,12,0,1,1212.107,-1.618,2.547,1029.670,0.249,1.042
0.257000,759468,1000.00,12,0,1,1208.840,-2.843,2.408,1027.821,-0.420,1.041
0.258000,759469,1000.00,12,0,1,1208.576,-2.475,2.363,1028.229,-1.148,1.054
0.259000,759470,1000.00,12,0,1,1206.895,-1.968,2.364,1029.694,1.004,1.061
0.260000,759471,1000.00,12,0,1,1207.111,-1.909,2.296,1029.190,0.315,1.059
0.261000,759472,1000.00,12,0,1,1208.240,0.060,2.271,1029.094,-0.032,1.058
0.262000,759473,1000.00,12,0,1,1208.864,0.190,2.213,1028.998,0.020,1.049
0.263000,759474,1000.00,12,0,1,1210.498,0.927,2.163,1030.919,1.128,1.054
0.264000,759475,1000.00,12,0,1,1213.164,2.290,2.185,1029.910,0.941,1.061
0.265000,759476,1000.00,12,0,1,1212.900,1.027,2.182,1028.781,-1.099,1.069
0.266000,759477,1000.00,12,0,1,1212.972,-0.690,2.093,1030.054,0.306,1.070
0.267000,759478,1000.00,12,0,1,1212.203,-2.046,2.067,1028.637,-0.651,1.073
0.268000,759479,1000.00,12,0,1,1211.699,-3.443,2.102,1026.595,-2.685,1.132
0.269000,759480,1000.00,12,0,1,1214.749,-1.244,2.096,1029.406,-0.303,1.132
0.270000,759481,1000.00,12,0,1,1217.272,1.422,2.084,1030.559,1.651,1.148
0.271000,759482,1000.00,12,0,1,1214.990,-0.464,2.037,1030.703,1.124,1.159
0.272000,759483,1000.00,12,0,1,1213.332,-1.988,2.056,1030.223,0.890,1.161
0.273000,759484,1000.00,12,0,1,1218.593,2.941,2.079,1028.709,-0.680,1.161
0.274000,759485,1000.00,12,0,1,1221.956,7.542,2.307,1028.637,-0.885,1.165
0.275000,759486,1000.00,12,0,1,1218.328,4.432,2.386,1029.790,0.377,1.166
0.276000,759487,1000.00,12,0,1,1215.014,1.272,2.383,1027.941,-0.862,1.172
0.277000,759488,1000.00,12,0,1,1209.008,-2.555,2.383,1028.061,-1.306,1.186
0.278000,759489,1000.00,12,0,1,1208.624,-3.202,2.425,1028.349,-0.316,1.184
0.279000,759490,1000.00,12,0,1,1212.780,2.286,2.431,1030.391,0.967,1.188
0.280000,759491,1000.00,12,0,1,1212.107,2.312,2.444,1027.604,-0.448,1.153
0.281000,759492,1000.00,12,0,1,1210.426,0.008,2.432,1029.958,-0.123,1.154
0.282000,759493,1000.00,12,0,1,1210.426,-0.342,2.432,1029.958,1.620,1.155
0.283000,759494,1000.00,12,0,1,1205.934,-4.296,2.483,1030.343,0.354,1.137
0.284000,759495,1000.00,12,0,1,1208.672,-3.884,2.542,1030.415,1.153,1.148
0.285000,759496,1000.00,12,0,1,1213.765,1.333,2.549,1031.448,1.159,1.120
0.286000,759497,1000.00,12,0,1,1219.313,4.230,2.617,1031.472,1.417,1.106
0.287000,759498,1000.00,12,0,1,1227.000,9.336,2.931,1028.589,-1.252,1.120
0.288000,759499,1000.00,12,0,1,1226.279,7.409,3.077,1028.157,-2.284,1.160
0.289000,759500,1000.00,12,0,1,1216.791,-3.322,3.106,1029.430,-0.322,1.115
0.290000,759501,1000.00,12,0,1,1215.542,-6.340,3.229,1028.301,-1.198,1.123
0.291000,759502,1000.00,12,0,1,1214.869,-4.969,3.295,1030.343,0.323,1.123
0.292000,759503,1000.00,12,0,1,1215.302,-4.562,3.357,1031.015,1.612,1.139
0.293000,759504,1000.00,12,0,1,1214.845,-2.761,3.379,1029.550,-0.056,1.135
0.294000,759505,1000.00,12,0,1,1213.260,-3.136,3.408,1029.094,-0.608,1.090
0.295000,759506,1000.00,12,0,1,1208.816,-4.840,3.473,1029.478,-0.103,1.053
0.296000,759507,1000.00,12,0,1,1206.294,-5.740,3.567,1031.280,1.260,1.064
0.297000,759508,1000.00,12,0,1,1205.021,-4.328,3.576,1031.664,1.888,1.092
0.298000,759509,1000.00,12,0,1,1202.931,-4.152,3.535,1030.054,-0.010,1.078
0.299000,759510,1000.00,12,0,1,1204.036,-2.103,3.480,1027.148,-2.478,1.133
0.300000,759511,1000.00,12,0,1,1207.327,2.244,3.448,1028.349,-1.949,1.156
0.301000,759512,1000.00,12,0,1,1209.249,3.991,3.492,1028.877,-0.350,1.136
0.302000,759513,1000.00,12,0,1,1214.629,7.469,3.635,1026.355,-2.652,1.192
0.303000,759514,1000.00,12,0,1,1216.359,8.340,3.821,1028.037,-1.469,1.172
0.304000,759515,1000.00,12,0,1,1217.680,6.405,3.922,1030.175,1.330,1.176
0.305000,759516,1000.00,12,0,1,1217.824,4.949,3.970,1029.862,0.812,1.178
0.306000,759517,1000.00,12,0,1,1218.713,2.959,3.986,1028.181,-0.610,1.181
0.307000,759518,1000.00,12,0,1,1220.106,2.706,3.984,1029.382,-0.096,1.179
0.308000,759519,1000.00,12,0,1,1218.569,0.082,3.968,1028.853,0.315,1.169
0.309000,759520,1000.00,12,0,1,1218.352,-1.623,3.965,1030.511,0.817,1.166
0.310000,759521,1000.00,12,0,1,1216.671,-2.583,3.973,1031.832,2.702,1.226
0.311000,759522,1000.00,12,0,1,1212.131,-6.452,4.076,1029.742,0.467,1.228
0.312000,759523,1000.00,12,0,1,1211.242,-6.355,4.174,1028.421,-1.093,1.238
0.313000,759524,1000.00,12,0,1,1207.087,-7.177,4.294,1027.052,-1.788,1.253
0.314000,759525,1000.00,12,0,1,1208.672,-5.175,4.344,1028.685,-0.728,1.250
0.315000,759526,1000.00,12,0,1,1212.179,1.295,4.345,1031.640,2.591,1.294
0.316000,759527,1000.00,12,0,1,1212.876,2.917,4.363,1029.190,0.639,1.296
0.317000,759528,1000.00,12,0,1,1212.588,3.582,4.383,1029.910,0.098,1.293
0.318000,759529,1000.00,12,0,1,1210.258,2.129,4.367,1029.766,0.955,1.243
0.319000,759530,1000.00,12,0,1,1209.032,0.783,4.364,1028.829,-0.661,1.246
0.320000,759531,1000.00,12,0,1,1209.681,1.644,4.366,1029.550,0.153,1.224
0.321000,759532,1000.00,12,0,1,1213.741,4.239,4.406,1028.253,-0.718,1.218
0.322000,759533,1000.00,12,0,1,1216.647,6.429,4.490,1028.373,-1.138,1.222
0.323000,759534,1000.00,12,0,1,1216.815,4.482,4.516,1028.445,-0.406,1.220
0.324000,759535,1000.00,12,0,1,1217.224,2.878,4.407,1027.797,-1.223,1.225
0.325000,759536,1000.00,12,0,1,1217.752,1.523,4.367,1028.901,-0.149,1.224
0.326000,759537,1000.00,12,0,1,1217.848,0.008,4.364,1029.550,0.657,1.222
0.327000,759538,1000.00,12,0,1,1219.698,0.083,4.349,1030.751,1.370,1.223
0.328000,759539,1000.00,12,0,1,1220.082,-0.142,4.325,1029.502,0.624,1.226
0.329000,759540,1000.00,12,0,1,1220.731,-0.709,4.314,1027.460,-1.692,1.241
0.330000,759541,1000.00,12,0,1,1218.809,-2.013,4.311,1027.989,-1.124,1.250
0.331000,759542,1000.00,12,0,1,1218.905,-2.501,4.326,1029.502,0.545,1.252
0.332000,759543,1000.00,12,0,1,1218.665,-1.257,4.329,1028.349,-0.089,1.231
0.333000,759544,1000.00,12,0,1,1214.581,-3.851,4.321,1027.652,-1.034,1.239
0.334000,759545,1000.00,12,0,1,1213.644,-3.965,4.322,1028.253,-0.163,1.228
0.335000,759546,1000.00,12,0,1,1213.548,-1.735,4.325,1027.628,-0.385,1.218
0.336000,759547,1000.00,12,0,1,1211.362,-2.378,4.297,1027.388,-0.703,1.206
0.337000,759548,1000.00,12,0,1,1210.666,-1.813,4.097,1028.133,0.232,1.193
0.338000,759549,1000.00,12,0,1,1212.179,0.483,3.961,1028.781,0.847,1.155
0.339000,759550,1000.00,12,0,1,1211.218,0.668,3.934,1028.061,0.358,1.155
0.340000,759551,1000.00,12,0,1,1210.810,-0.224,3.831,1027.076,-0.723,1.147
0.341000,759552,1000.00,12,0,1,1206.150,-3.436,3.797,1028.109,0.109,1.146
0.342000,759553,1000.00,12,0,1,1208.192,-3.546,3.775,1027.580,0.113,1.124
0.343000,759554,1000.00,12,0,1,1213.116,1.832,3.764,1027.268,-0.602,1.127
0.344000,759555,1000.00,12,0,1,1215.782,2.776,3.758,1028.974,0.997,1.132
0.345000,759556,1000.00,12,0,1,1218.112,3.436,3.727,1030.271,2.153,1.172
0.346000,759557,1000.00,12,0,1,1219.626,3.274,3.667,1029.166,1.051,1.168
0.347000,759558,1000.00,12,0,1,1219.698,1.756,3.624,1027.965,-0.459,1.139
0.348000,759559,1000.00,12,0,1,1216.479,-1.688,3.584,1027.676,-0.679,1.143
0.349000,759560,1000.00,12,0,1,1216.695,-2.886,3.595,1028.061,-0.271,1.089
0.350000,759561,1000.00,12,0,1,1215.806,-2.204,3.595,1027.316,-0.609,1.057
0.351000,759562,1000.00,12,0,1,1211.170,-5.913,3.647,1028.085,-0.186,1.056
0.352000,759563,1000.00,12,0,1,1209.201,-6.400,3.606,1028.085,0.391,0.989
0.353000,759564,1000.00,12,0,1,1207.351,-5.548,3.497,1029.382,1.030,0.978
0.354000,759565,1000.00,12,0,1,1207.255,-3.924,3.423,1029.862,1.891,0.996
0.355000,759566,1000.00,12,0,1,1210.426,1.016,3.354,1027.508,-0.384,0.991
0.356000,759567,1000.00,12,0,1,1208.528,1.596,3.335,1028.998,0.195,0.987
0.357000,759568,1000.00,12,0,1,1211.795,3.849,3.358,1030.078,1.945,1.025
0.358000,759569,1000.00,12,0,1,1214.725,8.190,3.552,1030.102,1.199,1.038
0.359000,759570,1000.00,12,0,1,1214.677,6.879,3.676,1028.998,0.421,1.033
0.360000,759571,1000.00,12,0,1,1217.776,8.257,3.839,1030.463,0.791,0.966
0.361000,759572,1000.00,12,0,1,1217.584,7.271,3.868,1029.958,1.028,0.975
0.362000,759573,1000.00,12,0,1,1214.557,2.188,3.775,1028.781,-0.880,0.971
0.363000,759574,1000.00,12,0,1,1215.086,0.833,3.638,1028.974,-0.592,0.941
0.364000,759575,1000.00,12,0,1,1216.503,0.887,3.566,1030.703,0.714,0.941
0.365000,759576,1000.00,12,0,1,1223.589,4.773,3.625,1029.502,0.046,0.866
0.366000,759577,1000.00,12,0,1,1221.235,3.031,3.627,1028.685,-1.331,0.882
0.367000,759578,1000.00,12,0,1,1216.143,-4.733,3.653,1029.382,-0.500,0.885
0.368000,759579,1000.00,12,0,1,1217.512,-3.818,3.680,1027.436,-1.730,0.908
0.369000,759580,1000.00,12,0,1,1218.064,-2.734,3.699,1028.517,-1.474,0.927
0.370000,759581,1000.00,12,0,1,1217.320,-3.355,3.722,1030.391,1.146,0.941
0.371000,759582,1000.00,12,0,1,1219.626,-0.789,3.675,1029.070,-0.163,0.936
0.372000,759583,1000.00,12,0,1,1214.821,-3.054,3.587,1029.430,-0.203,0.922
0.373000,759584,1000.00,12,0,1,1211.242,-6.314,3.642,1030.102,0.724,0.926
0.374000,759585,1000.00,12,0,1,1205.429,-8.204,3.800,1029.982,0.427,0.912
0.375000,759586,1000.00,12,0,1,1205.381,-7.597,3.943,1029.478,-0.005,0.911
0.376000,759587,1000.00,12,0,1,1208.888,-1.181,3.947,1030.030,0.214,0.907
0.377000,759588,1000.00,12,0,1,1208.144,-0.180,3.947,1028.589,-0.604,0.890
0.378000,759589,1000.00,12,0,1,1203.892,-3.034,3.970,1027.845,-1.738,0.919
0.379000,759590,1000.00,12,0,1,1209.393,1.260,3.973,1029.070,-0.314,0.889
0.380000,759591,1000.00,12,0,1,1212.203,5.555,4.040,1029.694,0.433,0.877
0.381000,759592,1000.00,12,0,1,1207.495,0.260,4.024,1028.133,-0.833,0.881
0.382000,759593,1000.00,12,0,1,1209.585,0.094,4.020,1026.980,-2.010,0.926
0.383000,759594,1000.00,12,0,1,1215.494,5.328,4.054,1028.877,-0.326,0.915
0.384000,759595,1000.00,12,0,1,1215.878,4.340,4.062,1029.790,1.074,0.928
0.385000,759596,1000.00,12,0,1,1215.518,2.031,4.064,1029.070,0.122,0.926
0.386000,759597,1000.00,12,0,1,1221.475,5.144,4.115,1030.871,1.343,0.940
0.387000,759598,1000.00,12,0,1,1224.214,7.297,4.235,1029.838,0.971,0.950
0.388000,759599,1000.00,12,0,1,1220.707,2.247,4.246,1029.742,-0.102,0.942
0.389000,759600,1000.00,12,0,1,1219.505,-0.157,4.245,1029.022,-0.068,0.941
0.390000,759601,1000.00,12,0,1,1220.514,0.787,4.247,1027.292,-1.919,0.974
0.391000,759602,1000.00,12,0,1,1219.698,0.481,4.219,1028.877,-0.547,0.977
0.392000,759603,1000.00,12,0,1,1217.224,-1.197,4.193,1029.094,0.450,0.979
0.393000,759604,1000.00,12,0,1,1216.623,-1.160,4.188,1029.022,-0.108,0.975
0.394000,759605,1000.00,12,0,1,1212.852,-2.545,4.185,1026.451,-1.550,0.989
0.395000,759606,1000.00,12,0,1,1210.954,-3.873,4.193,1028.445,-0.829,0.949
0.396000,759607,1000.00,12,0,1,1212.299,-0.875,4.169,1028.829,1.106,0.950
0.397000,759608,1000.00,12,0,1,1211.122,-0.642,4.162,1030.439,1.259,0.964
0.398000,759609,1000.00,12,0,1,1210.498,-1.073,4.158,1029.550,1.511,0.983
0.399000,759610,1000.00,12,0,1,1212.419,0.938,4.140,1029.430,0.163,0.982
0.400000,759611,1000.00,12,0,1,1212.924,1.338,4.133,1030.415,1.413,0.999
0.401000,759612,1000.00,12,0,1,1212.395,0.013,4.048,1031.712,2.078,1.041
0.402000,759613,1000.00,12,0,1,1211.819,-1.358,3.950,1028.541,-0.397,1.041
0.403000,759614,1000.00,12,0,1,1210.738,-3.075,3.895,1029.694,-0.688,1.035
0.404000,759615,1000.00,12,0,1,1213.957,-1.606,3.862,1029.934,0.648,1.004
0.405000,759616,1000.00,12,0,1,1217.584,1.454,3.865,1028.349,-1.322,1.020
0.406000,759617,1000.00,12,0,1,1220.755,2.714,3.878,1028.181,-1.423,1.039
0.407000,759618,1000.00,12,0,1,1217.800,0.028,3.839,1029.070,-0.343,1.004
0.408000,759619,1000.00,12,0,1,1218.497,-1.571,3.667,1029.742,0.251,0.990
0.409000,759620,1000.00,12,0,1,1218.449,-0.256,3.536,1029.574,0.354,0.989
0.410000,759621,1000.00,12,0,1,1218.785,-0.723,3.339,1029.214,-0.268,0.984
0.411000,759622,1000.00,12,0,1,1221.091,2.230,3.192,1027.941,-0.976,0.983
0.412000,759623,1000.00,12,0,1,1218.449,1.048,3.181,1030.583,0.605,0.978
0.413000,759624,1000.00,12,0,1,1212.564,-3.719,3.222,1029.694,1.144,0.988
0.414000,759625,1000.00,12,0,1,1210.137,-4.584,3.284,1030.583,0.378,0.984
0.415000,759626,1000.00,12,0,1,1212.467,-1.057,3.217,1030.463,1.361,1.003
0.416000,759627,1000.00,12,0,1,1209.777,-0.799,3.191,1029.838,-0.173,0.986
0.417000,759628,1000.00,12,0,1,1205.934,-4.132,3.174,1027.700,-1.441,1.004
0.418000,759629,1000.00,12,0,1,1204.997,-3.465,3.166,1029.742,-0.522,0.976
0.419000,759630,1000.00,12,0,1,1206.534,-1.565,3.150,1028.877,0.060,0.954
0.420000,759631,1000.00,12,0,1,1208.912,1.096,3.118,1029.382,-0.628,0.944
0.421000,759632,1000.00,12,0,1,1210.930,2.409,3.134,1031.280,1.630,0.972
0.422000,759633,1000.00,12,0,1,1207.207,-1.042,3.108,1029.190,-0.067,0.971
0.423000,759634,1000.00,12,0,1,1207.735,-2.743,3.002,1029.598,-0.733,0.971
0.424000,759635,1000.00,12,0,1,1213.260,2.000,2.783,1029.382,0.126,0.970
0.425000,759636,1000.00,12,0,1,1223.277,8.959,2.863,1028.229,-1.588,0.995
0.426000,759637,1000.00,12,0,1,1225.318,10.298,3.208,1029.670,-0.014,0.995
0.427000,759638,1000.00,12,0,1,1225.991,7.023,3.358,1031.111,1.325,1.009
0.428000,759639,1000.00,12,0,1,1222.244,3.247,3.362,1029.046,-0.192,0.979
0.429000,759640,1000.00,12,0,1,1221.235,-0.173,3.357,1026.307,-2.983,1.065
0.430000,759641,1000.00,12,0,1,1219.313,-0.733,3.266,1028.877,-0.826,1.070
0.431000,759642,1000.00,12,0,1,1215.086,-4.363,3.323,1030.295,1.479,1.083
0.432000,759643,1000.00,12,0,1,1214.077,-4.329,3.379,1029.646,0.431,1.047
0.433000,759644,1000.00,12,0,1,1212.179,-3.520,3.332,1030.319,0.923,1.054
0.434000,759645,1000.00,12,0,1,1211.699,-3.073,3.303,1029.070,0.079,1.043
0.435000,759646,1000.00,12,0,1,1210.690,-1.350,3.296,1028.349,-1.027,1.053
0.436000,759647,1000.00,12,0,1,1210.666,-0.876,3.217,1028.517,-0.493,1.038
0.437000,759648,1000.00,12,0,1,1212.275,1.978,3.060,1026.668,-1.824,1.061
0.438000,759649,1000.00,12,0,1,1209.705,0.357,3.044,1025.298,-2.997,1.142
0.439000,759650,1000.00,12,0,1,1208.648,-1.247,3.049,1024.914,-2.698,1.204
0.440000,759651,1000.00,12,0,1,1209.969,0.069,3.047,1027.724,-0.165,1.174
0.441000,759652,1000.00,12,0,1,1207.567,-2.151,3.062,1030.607,3.049,1.248
0.442000,759653,1000.00,12,0,1,1210.426,-1.474,3.064,1030.391,2.634,1.301
0.443000,759654,1000.00,12,0,1,1212.107,0.517,3.060,1027.917,0.134,1.301
0.444000,759655,1000.00,12,0,1,1209.345,-3.394,3.077,1028.037,-0.359,1.283
0.445000,759656,1000.00,12,0,1,1209.537,-4.287,3.088,1026.812,-0.708,1.282
0.446000,759657,1000.00,12,0,1,1211.218,-2.734,3.109,1029.262,0.545,1.275
0.447000,759658,1000.00,12,0,1,1218.473,2.496,3.128,1029.958,2.277,1.303
0.448000,759659,1000.00,12,0,1,1224.430,8.318,3.339,1029.142,0.651,1.288
0.449000,759660,1000.00,12,0,1,1222.988,5.936,3.440,1029.886,1.258,1.300
0.450000,759661,1000.00,12,0,1,1216.623,-0.191,3.435,1030.415,1.671,1.306
0.451000,759662,1000.00,12,0,1,1212.419,-4.138,3.484,1030.127,1.104,1.282
0.452000,759663,1000.00,12,0,1,1211.411,-3.434,3.513,1028.109,-0.533,1.283
0.453000,759664,1000.00,12,0,1,1211.026,-1.959,3.497,1028.181,-1.085,1.289
0.454000,759665,1000.00,12,0,1,1209.729,-1.274,3.494,1029.430,0.629,1.289
0.455000,759666,1000.00,12,0,1,1211.555,1.369,3.493,1029.238,0.355,1.276
0.456000,759667,1000.00,12,0,1,1209.897,1.951,3.483,1030.583,1.233,1.272
0.457000,759668,1000.00,12,0,1,1206.654,-0.870,3.485,1030.343,1.295,1.284
0.458000,759669,1000.00,12,0,1,1205.189,-1.430,3.484,1026.379,-2.318,1.325
0.459000,759670,1000.00,12,0,1,1207.952,0.927,3.486,1026.619,-2.731,1.379
0.460000,759671,1000.00,12,0,1,1212.107,4.621,3.546,1031.472,2.067,1.409
0.461000,759672,1000.00,12,0,1,1211.987,3.818,3.573,1031.231,2.450,1.445
0.462000,759673,1000.00,12,0,1,1211.002,0.880,3.572,1030.295,0.405,1.443
0.463000,759674,1000.00,12,0,1,1210.137,-0.917,3.535,1031.760,1.609,1.452
0.464000,759675,1000.00,12,0,1,1210.690,-2.051,3.487,1029.886,0.085,1.451
0.465000,759676,1000.00,12,0,1,1217.632,2.624,3.504,1031.063,-0.033,1.438
0.466000,759677,1000.00,12,0,1,1218.449,3.513,3.537,1030.799,0.667,1.441
0.467000,759678,1000.00,12,0,1,1212.804,-3.285,3.519,1030.583,-0.549,1.429
0.468000,759679,1000.00,12,0,1,1210.426,-5.983,3.586,1029.910,-0.538,1.429
0.469000,759680,1000.00,12,0,1,1209.681,-5.514,3.663,1028.925,-1.758,1.451
0.470000,759681,1000.00,12,0,1,1210.402,-3.924,3.702,1031.111,0.116,1.448
0.471000,759682,1000.00,12,0,1,1214.101,0.758,3.688,1028.613,-0.976,1.436
0.472000,759683,1000.00,12,0,1,1222.748,8.880,3.893,1029.022,-1.940,1.462
0.473000,759684,1000.00,12,0,1,1218.881,7.871,4.030,1028.829,-0.497,1.460
0.474000,759685,1000.00,12,0,1,1209.537,-1.970,4.030,1028.757,-1.370,1.473
0.475000,759686,1000.00,12,0,1,1209.417,-1.462,3.831,1027.340,-1.513,1.471
0.476000,759687,1000.00,12,0,1,1210.426,1.390,3.549,1028.589,-1.116,1.480
0.477000,759688,1000.00,12,0,1,1212.948,3.451,3.442,1028.181,-0.248,1.468
0.478000,759689,1000.00,12,0,1,1214.821,5.772,3.508,1028.493,-0.662,1.471
0.479000,759690,1000.00,12,0,1,1211.651,2.201,3.521,1028.013,-0.354,1.410
0.480000,759691,1000.00,12,0,1,1211.627,0.526,3.521,1028.181,-0.582,1.407
0.481000,759692,1000.00,12,0,1,1212.467,0.901,3.468,1028.229,-0.179,1.392
0.482000,759693,1000.00,12,0,1,1212.588,-0.469,3.415,1029.862,0.979,1.398
0.483000,759694,1000.00,12,0,1,1214.509,-0.127,3.378,1027.676,-0.310,1.392
0.484000,759695,1000.00,12,0,1,1217.416,1.145,3.354,1028.901,-0.336,1.393
0.485000,759696,1000.00,12,0,1,1219.530,1.602,3.356,1029.790,1.429,1.400
0.486000,759697,1000.00,12,0,1,1222.388,2.431,3.372,1031.712,2.215,1.433
0.487000,759698,1000.00,12,0,1,1220.875,0.490,3.361,1031.784,2.680,1.460
0.488000,759699,1000.00,12,0,1,1218.280,-3.229,3.391,1030.799,1.036,1.404
0.489000,759700,1000.00,12,0,1,1218.016,-3.362,3.420,1030.727,0.712,1.355
0.490000,759701,1000.00,12,0,1,1218.232,-2.482,3.438,1030.511,0.595,1.358
0.491000,759702,1000.00,12,0,1,1218.641,-1.327,3.429,1030.799,0.452,1.289
0.492000,759703,1000.00,12,0,1,1211.819,-5.122,3.499,1028.469,-0.944,1.241
0.493000,759704,1000.00,12,0,1,1209.633,-7.136,3.641,1028.157,-2.023,1.274
0.494000,759705,1000.00,12,0,1,1210.185,-3.211,3.637,1025.274,-3.001,1.342
0.495000,759706,1000.00,12,0,1,1209.369,-2.545,3.605,1028.925,-1.162,1.348
0.496000,759707,1000.00,12,0,1,1208.168,-1.791,3.593,1031.183,2.972,1.410
0.497000,759708,1000.00,12,0,1,1208.696,-0.518,3.576,1030.823,1.378,1.386
0.498000,759709,1000.00,12,0,1,1208.984,0.709,3.378,1030.030,0.894,1.389
0.499000,759710,1000.00,12,0,1,1211.555,2.579,3.293,1029.310,-0.253,1.378
0.500000,759711,1000.00,12,0,1,1212.876,3.701,3.334,1029.766,-0.044,1.358
0.501000,759712,1000.00,12,0,1,1211.555,1.365,3.288,1029.214,-0.240,1.349
0.502000,759713,1000.00,12,0,1,1209.825,-1.452,3.258,1027.508,-2.063,1.378
0.503000,759714,1000.00,12,0,1,1210.065,-2.282,3.263,1030.535,0.305,1.370
0.504000,759715,1000.00,12,0,1,1208.792,-3.756,3.301,1029.910,0.726,1.371
0.505000,759716,1000.00,12,0,1,1211.507,-2.634,3.316,1029.118,-0.971,1.377
0.506000,759717,1000.00,12,0,1,1216.839,2.091,3.318,1029.406,-0.265,1.367
0.507000,759718,1000.00,12,0,1,1217.296,2.334,3.332,1029.334,-0.382,1.355
0.508000,759719,1000.00,12,0,1,1215.686,-0.120,3.326,1029.646,-0.091,1.315
0.509000,759720,1000.00,12,0,1,1220.851,3.677,3.363,1029.790,0.269,1.258
0.510000,759721,1000.00,12,0,1,1225.150,8.240,3.499,1031.183,1.161,1.234
0.511000,759722,1000.00,12,0,1,1223.733,6.526,3.578,1028.998,0.029,1.185
0.512000,759723,1000.00,12,0,1,1220.178,2.982,3.601,1029.862,-0.435,1.185
0.513000,759724,1000.00,12,0,1,1215.758,-0.439,3.599,1031.400,1.991,1.196
0.514000,759725,1000.00,12,0,1,1213.020,-2.281,3.602,1029.958,0.322,1.197
0.515000,759726,1000.00,12,0,1,1208.240,-4.442,3.637,1028.565,-1.011,1.206
0.516000,759727,1000.00,12,0,1,1206.102,-5.694,3.692,1029.310,-0.433,1.204
0.517000,759728,1000.00,12,0,1,1208.432,-1.817,3.672,1029.910,0.398,1.202
0.518000,759729,1000.00,12,0,1,1214.053,3.606,3.609,1030.559,0.777,1.205
0.519000,759730,1000.00,12,0,1,1220.154,8.875,3.741,1030.223,0.494,1.181
0.520000,759731,1000.00,12,0,1,1218.833,6.886,3.825,1029.742,-0.226,1.181
0.521000,759732,1000.00,12,0,1,1211.314,-1.896,3.833,1030.727,0.375,1.175
0.522000,759733,1000.00,12,0,1,1211.483,-4.116,3.668,1031.015,0.783,1.147
0.523000,759734,1000.00,12,0,1,1213.116,-2.340,3.511,1026.860,-2.738,1.209
0.524000,759735,1000.00,12,0,1,1213.813,-3.110,3.527,1028.998,-1.951,1.225
0.525000,759736,1000.00,12,0,1,1215.062,-2.535,3.539,1030.415,0.917,1.213
0.526000,759737,1000.00,12,0,1,1216.911,-1.669,3.542,1030.583,0.187,1.203
0.527000,759738,1000.00,12,0,1,1219.842,0.344,3.508,1027.652,-1.543,1.222
0.528000,759739,1000.00,12,0,1,1218.064,-0.819,3.414,1026.860,-3.017,1.291
0.529000,759740,1000.00,12,0,1,1216.479,-3.083,3.428,1028.829,-0.426,1.291
0.530000,759741,1000.00,12,0,1,1215.182,-2.836,3.450,1028.109,-0.418,1.290
0.531000,759742,1000.00,12,0,1,1213.717,-3.379,3.481,1028.349,-0.626,1.293
0.532000,759743,1000.00,12,0,1,1213.212,-2.145,3.493,1029.142,0.809,1.291
0.533000,759744,1000.00,12,0,1,1211.795,-1.666,3.501,1029.310,0.698,1.294
0.534000,759745,1000.00,12,0,1,1211.194,-0.870,3.500,1031.304,2.396,1.336
0.535000,759746,1000.00,12,0,1,1207.543,-1.904,3.503,1030.030,1.579,1.340
0.536000,759747,1000.00,12,0,1,1206.534,-2.396,3.502,1030.583,0.997,1.310
0.537000,759748,1000.00,12,0,1,1210.330,2.418,3.518,1029.622,0.846,1.260
0.538000,759749,1000.00,12,0,1,1213.476,5.697,3.580,1030.271,0.337,1.252
0.539000,759750,1000.00,12,0,1,1210.858,3.364,3.580,1031.376,1.793,1.274
0.540000,759751,1000.00,12,0,1,1212.539,2.662,3.583,1029.862,0.156,1.271
0.541000,759752,1000.00,12,0,1,1208.744,0.150,3.578,1029.382,-0.780,1.274
0.542000,759753,1000.00,12,0,1,1207.471,-3.841,3.546,1028.013,-1.467,1.284
0.543000,759754,1000.00,12,0,1,1207.519,-3.056,3.427,1027.797,-2.111,1.287
0.544000,759755,1000.00,12,0,1,1210.450,-2.078,3.409,1028.037,-1.137,1.226
0.545000,759756,1000.00,12,0,1,1217.296,3.579,3.428,1029.550,-0.104,1.215
0.546000,759757,1000.00,12,0,1,1217.175,3.414,3.452,1029.838,0.800,1.145
0.547000,759758,1000.00,12,0,1,1218.377,1.792,3.461,1029.142,-0.217,1.129
0.548000,759759,1000.00,12,0,1,1224.069,6.657,3.585,1029.022,-0.225,1.122
0.549000,759760,1000.00,12,0,1,1221.427,4.226,3.616,1030.102,0.631,1.125
0.550000,759761,1000.00,12,0,1,1217.896,-0.304,3.578,1030.102,0.873,1.132
0.551000,759762,1000.00,12,0,1,1218.833,0.900,3.575,1029.310,-0.026,1.132
0.552000,759763,1000.00,12,0,1,1215.398,-0.534,3.570,1028.949,-0.387,1.095
0.553000,759764,1000.00,12,0,1,1209.177,-5.408,3.637,1026.668,-1.914,1.127
0.554000,759765,1000.00,12,0,1,1205.790,-6.667,3.720,1027.989,-1.323,1.138
0.555000,759766,1000.00,12,0,1,1210.017,-1.590,3.708,1029.670,1.233,1.143
0.556000,759767,1000.00,12,0,1,1212.107,2.948,3.719,1031.231,2.007,1.177
0.557000,759768,1000.00,12,0,1,1212.275,2.808,3.726,1029.262,0.853,1.182
0.558000,759769,1000.00,12,0,1,1211.411,2.499,3.742,1027.316,-1.767,1.208
0.559000,759770,1000.00,12,0,1,1211.146,1.369,3.711,1028.349,-0.605,1.210
0.560000,759771,1000.00,12,0,1,1210.498,0.475,3.524,1029.598,0.750,1.204
0.561000,759772,1000.00,12,0,1,1214.581,2.319,3.417,1027.917,-0.535,1.206
0.562000,759773,1000.00,12,0,1,1216.983,4.066,3.439,1028.037,-0.920,1.211
0.563000,759774,1000.00,12,0,1,1219.121,3.370,3.472,1027.965,-0.399,1.180
0.564000,759775,1000.00,12,0,1,1222.196,4.381,3.512,1028.061,-0.527,1.181
0.565000,759776,1000.00,12,0,1,1224.790,4.594,3.516,1029.502,0.821,1.178
0.566000,759777,1000.00,12,0,1,1225.799,3.569,3.459,1031.520,2.549,1.231
0.567000,759778,1000.00,12,0,1,1223.637,0.400,3.450,1030.151,1.417,1.246
0.568000,759779,1000.00,12,0,1,1224.814,-0.423,3.413,1030.655,0.879,1.247
0.569000,759780,1000.00,12,0,1,1222.484,-1.362,3.179,1031.400,1.858,1.272
0.570000,759781,1000.00,12,0,1,1222.148,-2.884,3.054,1031.472,1.396,1.287
0.571000,759782,1000.00,12,0,1,1219.001,-3.245,3.076,1030.703,0.639,1.289
0.572000,759783,1000.00,12,0,1,1216.599,-5.388,3.115,1030.199,-0.132,1.285
0.573000,759784,1000.00,12,0,1,1215.758,-3.692,3.142,1029.238,-0.860,1.231
0.574000,759785,1000.00,12,0,1,1216.671,-1.732,3.120,1028.085,-1.812,1.227
0.575000,759786,1000.00,12,0,1,1216.311,-0.168,3.100,1029.190,-0.911,1.227
0.576000,759787,1000.00,12,0,1,1216.551,0.516,3.092,1029.958,0.379,1.227
0.577000,759788,1000.00,12,0,1,1216.047,0.847,3.093,1029.190,-0.449,1.210
0.578000,759789,1000.00,12,0,1,1213.620,-1.126,3.095,1027.700,-1.575,1.154
0.579000,759790,1000.00,12,0,1,1213.092,-2.199,3.080,1028.877,-0.858,1.158
0.580000,759791,1000.00,12,0,1,1215.638,-0.078,3.054,1030.367,1.024,1.166
0.581000,759792,1000.00,12,0,1,1218.809,1.822,3.027,1030.727,1.048,1.172
0.582000,759793,1000.00,12,0,1,1225.391,5.838,3.123,1029.934,0.293,1.167
0.583000,759794,1000.00,12,0,1,1226.712,5.934,3.225,1029.790,-0.248,1.163
0.584000,759795,1000.00,12,0,1,1217.248,-4.255,3.279,1029.190,-0.591,1.116
0.585000,759796,1000.00,12,0,1,1214.125,-9.729,3.546,1031.448,0.811,1.099
0.586000,759797,1000.00,12,0,1,1216.911,-6.103,3.633,1033.297,2.835,1.162
0.587000,759798,1000.00,12,0,1,1217.320,-5.204,3.691,1030.078,-0.139,1.156
0.588000,759799,1000.00,12,0,1,1209.897,-10.020,3.871,1028.925,-2.093,1.192
0.589000,759800,1000.00,12,0,1,1215.302,-6.335,3.945,1030.751,0.040,1.165
0.590000,759801,1000.00,12,0,1,1217.007,0.151,3.927,1029.982,-0.297,1.165
0.591000,759802,1000.00,12,0,1,1217.464,-0.358,3.927,1029.838,-0.764,1.165
0.592000,759803,1000.00,12,0,1,1221.763,5.491,3.966,1030.199,-0.050,1.147
0.593000,759804,1000.00,12,0,1,1221.547,6.339,4.043,1028.541,-1.279,1.122
0.594000,759805,1000.00,12,0,1,1219.025,3.961,4.071,1029.622,-0.697,1.114
0.595000,759806,1000.00,12,0,1,1222.508,6.874,4.155,1029.982,0.482,1.116
0.596000,759807,1000.00,12,0,1,1220.634,6.264,4.221,1027.268,-1.962,1.145
0.597000,759808,1000.00,12,0,1,1215.254,0.471,4.214,1028.301,-1.396,1.161
0.598000,759809,1000.00,12,0,1,1218.160,1.831,4.115,1029.694,0.704,1.165
0.599000,759810,1000.00,12,0,1,1223.109,6.649,4.179,1030.247,0.846,1.168
0.600000,759811,1000.00,12,0,1,1223.829,5.644,4.254,1031.640,1.967,1.194
0.601000,759812,1000.00,12,0,1,1221.067,1.731,4.259,1030.151,0.737,1.199
0.602000,759813,1000.00,12,0,1,1220.034,-1.516,4.264,1028.661,-1.264,1.211
0.603000,759814,1000.00,12,0,1,1221.667,-1.032,4.197,1029.190,-0.680,1.184
0.604000,759815,1000.00,12,0,1,1224.646,0.209,4.090,1028.061,-1.302,1.184
0.605000,759816,1000.00,12,0,1,1227.552,1.726,4.091,1029.574,-0.480,1.173
0.606000,759817,1000.00,12,0,1,1228.537,1.403,4.075,1029.934,0.710,1.142
0.607000,759818,1000.00,12,0,1,1224.958,-2.388,4.070,1030.919,0.811,1.142
0.608000,759819,1000.00,12,0,1,1220.707,-6.756,4.165,1031.472,1.745,1.141
0.609000,759820,1000.00,12,0,1,1222.148,-5.229,4.226,1030.415,0.430,1.139
0.610000,759821,1000.00,12,0,1,1221.835,-3.372,4.252,1029.478,-0.501,1.137
0.611000,759822,1000.00,12,0,1,1219.626,-4.610,4.289,1028.157,-1.410,1.151
0.612000,759823,1000.00,12,0,1,1219.481,-3.172,4.274,1028.781,-1.019,1.153
0.613000,759824,1000.00,12,0,1,1218.449,-2.260,4.260,1028.925,-0.096,1.152
0.614000,759825,1000.00,12,0,1,1216.239,-2.817,4.233,1029.454,0.047,1.149
0.615000,759826,1000.00,12,0,1,1216.647,-1.377,4.187,1028.469,-0.148,1.144
0.616000,759827,1000.00,12,0,1,1214.053,-1.751,4.164,1028.181,-0.880,1.092
0.617000,759828,1000.00,12,0,1,1210.234,-4.717,4.217,1028.421,-0.142,1.074
0.618000,759829,1000.00,12,0,1,1215.110,-0.370,4.217,1030.559,1.348,1.084
0.619000,759830,1000.00,12,0,1,1217.872,3.702,4.245,1030.247,1.623,1.076
0.620000,759831,1000.00,12,0,1,1217.512,1.912,4.234,1031.015,1.248,1.073
0.621000,759832,1000.00,12,0,1,1219.530,2.723,4.227,1031.304,1.794,1.098
0.622000,759833,1000.00,12,0,1,1226.255,6.790,4.267,1029.718,-0.103,1.098
0.623000,759834,1000.00,12,0,1,1225.391,5.672,4.310,1030.223,-0.189,1.092
0.624000,759835,1000.00,12,0,1,1220.947,-1.234,4.307,1030.775,0.639,1.065
0.625000,759836,1000.00,12,0,1,1223.037,-0.866,4.308,1030.559,0.030,1.058
0.626000,759837,1000.00,12,0,1,1222.820,-0.629,4.309,1031.400,0.695,1.061
0.627000,759838,1000.00,12,0,1,1225.511,-0.003,4.307,1029.406,-0.781,1.065
0.628000,759839,1000.00,12,0,1,1224.358,0.550,4.305,1029.958,-1.020,1.051
0.629000,759840,1000.00,12,0,1,1221.451,-3.072,4.315,1029.046,-0.767,1.050
0.630000,759841,1000.00,12,0,1,1220.610,-2.498,4.330,1028.421,-1.844,1.072
0.631000,759842,1000.00,12,0,1,1218.905,-2.803,4.340,1029.190,-0.535,1.064
0.632000,759843,1000.00,12,0,1,1218.136,-2.266,4.273,1029.310,-0.199,1.064
0.633000,759844,1000.00,12,0,1,1216.335,-1.894,4.198,1031.640,1.557,1.086
0.634000,759845,1000.00,12,0,1,1217.776,-0.084,4.155,1031.015,1.745,1.110
0.635000,759846,1000.00,12,0,1,1217.055,1.498,3.926,1030.271,0.041,1.104
0.636000,759847,1000.00,12,0,1,1216.263,0.465,3.831,1028.661,-0.731,1.034
0.637000,759848,1000.00,12,0,1,1220.466,4.446,3.812,1030.895,0.201,1.034
0.638000,759849,1000.00,12,0,1,1219.626,4.262,3.589,1030.871,1.377,1.010
0.639000,759850,1000.00,12,0,1,1217.416,0.545,3.477,1030.679,0.009,1.010
0.640000,759851,1000.00,12,0,1,1217.055,-0.240,3.477,1029.550,-0.398,1.011
0.641000,759852,1000.00,12,0,1,1219.481,0.557,3.477,1028.757,-1.662,1.032
0.642000,759853,1000.00,12,0,1,1220.082,0.798,3.391,1028.733,-1.351,1.050
0.643000,759854,1000.00,12,0,1,1222.436,0.836,3.273,1030.439,0.067,1.034
0.644000,759855,1000.00,12,0,1,1223.157,1.173,3.229,1028.205,-1.168,1.042
0.645000,759856,1000.00,12,0,1,1226.015,1.594,3.087,1030.751,-0.110,1.040
0.646000,759857,1000.00,12,0,1,1229.018,3.910,3.009,1031.111,1.643,1.029
0.647000,759858,1000.00,12,0,1,1227.673,1.842,3.019,1030.967,0.369,1.011
0.648000,759859,1000.00,12,0,1,1222.268,-3.345,3.045,1030.223,0.261,1.007
0.649000,759860,1000.00,12,0,1,1219.722,-5.682,3.006,1029.382,-0.835,1.007
0.650000,759861,1000.00,12,0,1,1222.748,-1.998,2.912,1029.310,-0.732,0.973
0.651000,759862,1000.00,12,0,1,1222.124,-0.289,2.902,1028.589,-0.922,0.976
0.652000,759863,1000.00,12,0,1,1216.623,-4.335,2.958,1027.196,-2.100,1.005
0.653000,759864,1000.00,12,0,1,1217.704,-2.688,2.979,1027.748,-1.269,1.016
0.654000,759865,1000.00,12,0,1,1219.674,1.394,2.985,1028.469,-0.213,1.000
0.655000,759866,1000.00,12,0,1,1221.043,2.922,3.004,1030.343,1.448,1.018
0.656000,759867,1000.00,12,0,1,1217.368,0.924,3.000,1029.310,0.980,1.023
0.657000,759868,1000.00,12,0,1,1218.881,0.724,2.982,1030.006,0.710,1.021
0.658000,759869,1000.00,12,0,1,1219.001,2.280,2.844,1029.694,1.029,1.002
0.659000,759870,1000.00,12,0,1,1219.602,0.981,2.749,1027.965,-0.983,1.009
0.660000,759871,1000.00,12,0,1,1220.442,1.618,2.717,1024.338,-3.700,1.135
0.661000,759872,1000.00,12,0,1,1225.078,3.620,2.687,1027.917,-1.367,1.134
0.662000,759873,1000.00,12,0,1,1225.367,3.593,2.698,1029.910,2.147,1.165
0.663000,759874,1000.00,12,0,1,1225.535,0.981,2.682,1029.022,0.520,1.167
0.664000,759875,1000.00,12,0,1,1225.487,0.155,2.653,1028.397,0.042,1.167
0.665000,759876,1000.00,12,0,1,1222.292,-3.537,2.692,1029.262,0.567,1.170
0.666000,759877,1000.00,12,0,1,1221.427,-5.282,2.783,1029.262,0.778,1.168
0.667000,759878,1000.00,12,0,1,1222.148,-3.692,2.752,1027.869,-0.439,1.170
0.668000,759879,1000.00,12,0,1,1223.061,-2.681,2.777,1029.070,0.153,1.154
0.669000,759880,1000.00,12,0,1,1223.805,-0.831,2.730,1030.030,1.702,1.156
0.670000,759881,1000.00,12,0,1,1220.274,-2.822,2.746,1027.196,-0.879,1.150
0.671000,759882,1000.00,12,0,1,1223.589,-0.038,2.719,1028.013,-0.687,1.125
0.672000,759883,1000.00,12,0,1,1224.958,3.794,2.600,1029.070,1.092,1.136
0.673000,759884,1000.00,12,0,1,1221.067,0.440,2.473,1030.223,1.643,1.159
0.674000,759885,1000.00,12,0,1,1218.497,-1.233,2.473,1028.205,0.448,1.157
0.675000,759886,1000.00,12,0,1,1218.809,-0.179,2.471,1028.541,-0.300,1.158
0.676000,759887,1000.00,12,0,1,1218.112,0.166,2.469,1029.478,1.247,1.167
0.677000,759888,1000.00,12,0,1,1220.755,2.080,2.487,1030.703,1.715,1.187
0.678000,759889,1000.00,12,0,1,1219.505,1.843,2.499,1030.559,1.723,1.203
0.679000,759890,1000.00,12,0,1,1220.346,0.689,2.463,1027.893,-0.926,1.205
0.680000,759891,1000.00,12,0,1,1221.932,2.125,2.456,1029.310,-0.530,1.179
0.681000,759892,1000.00,12,0,1,1221.763,0.616,2.425,1029.862,0.915,1.184
0.682000,759893,1000.00,12,0,1,1217.224,-3.872,2.465,1030.295,0.319,1.184
0.683000,759894,1000.00,12,0,1,1218.593,-4.520,2.533,1030.271,0.741,1.169
0.684000,759895,1000.00,12,0,1,1225.150,1.486,2.542,1030.030,-0.114,1.142
0.685000,759896,1000.00,12,0,1,1230.603,5.653,2.656,1027.917,-1.528,1.163
0.686000,759897,1000.00,12,0,1,1229.690,4.083,2.717,1027.772,-2.209,1.199
0.687000,759898,1000.00,12,0,1,1224.598,-1.506,2.652,1030.511,0.651,1.203
0.688000,759899,1000.00,12,0,1,1223.277,-3.460,2.629,1030.271,0.944,1.194
0.689000,759900,1000.00,12,0,1,1226.712,0.426,2.628,1029.910,-0.051,1.194
0.690000,759901,1000.00,12,0,1,1229.522,3.608,2.677,1030.030,0.410,1.194
0.691000,759902,1000.00,12,0,1,1228.777,3.550,2.722,1029.742,-0.085,1.171
0.692000,759903,1000.00,12,0,1,1226.159,1.241,2.726,1029.766,0.045,1.155
0.693000,759904,1000.00,12,0,1,1222.196,-1.443,2.731,1029.526,-0.162,1.155
0.694000,759905,1000.00,12,0,1,1225.150,0.790,2.728,1029.982,0.150,1.144
0.695000,759906,1000.00,12,0,1,1222.724,1.200,2.724,1030.343,0.580,1.147
0.696000,759907,1000.00,12,0,1,1220.923,-1.895,2.681,1030.247,0.339,1.124
0.697000,759908,1000.00,12,0,1,1221.427,-0.209,2.668,1029.310,-0.459,1.125
0.698000,759909,1000.00,12,0,1,1223.469,0.860,2.629,1028.517,-1.318,1.139
0.699000,759910,1000.00,12,0,1,1225.847,2.749,2.533,1028.565,-1.152,1.145
0.700000,759911,1000.00,12,0,1,1224.838,1.084,2.522,1028.829,-0.762,1.145
0.701000,759912,1000.00,12,0,1,1224.165,-1.288,2.528,1029.742,0.019,1.138
0.702000,759913,1000.00,12,0,1,1229.042,1.734,2.465,1028.901,-0.384,1.100
0.703000,759914,1000.00,12,0,1,1232.164,3.722,2.492,1029.430,-0.458,1.087
0.704000,759915,1000.00,12,0,1,1229.666,0.156,2.484,1029.766,0.347,1.088
0.705000,759916,1000.00,12,0,1,1229.834,-1.786,2.462,1030.078,0.226,1.069
0.706000,759917,1000.00,12,0,1,1229.618,-1.664,2.470,1030.919,1.038,1.070
0.707000,759918,1000.00,12,0,1,1225.871,-5.324,2.580,1030.775,0.850,1.072
0.708000,759919,1000.00,12,0,1,1227.408,-4.151,2.626,1029.622,-0.317,1.063
0.709000,759920,1000.00,12,0,1,1224.406,-4.347,2.694,1029.742,-0.380,1.055
0.710000,759921,1000.00,12,0,1,1223.013,-5.824,2.808,1029.142,-0.536,0.919
0.711000,759922,1000.00,12,0,1,1219.770,-5.506,2.868,1029.166,-0.680,0.904
0.712000,759923,1000.00,12,0,1,1217.992,-6.376,2.963,1029.142,-0.299,0.852
0.713000,759924,1000.00,12,0,1,1217.151,-4.202,3.019,1028.469,-0.803,0.857
0.714000,759925,1000.00,12,0,1,1222.844,1.330,3.025,1028.949,-0.382,0.858
0.715000,759926,1000.00,12,0,1,1223.301,4.512,3.051,1030.199,0.954,0.865
0.716000,759927,1000.00,12,0,1,1216.407,-1.877,2.970,1028.037,-0.585,0.862
0.717000,759928,1000.00,12,0,1,1216.191,-2.686,2.948,1028.998,-0.566,0.864
0.718000,759929,1000.00,12,0,1,1220.683,2.396,2.943,1027.172,-0.888,0.872
0.719000,759930,1000.00,12,0,1,1222.652,3.746,2.988,1028.445,-1.015,0.851
0.720000,759931,1000.00,12,0,1,1225.006,4.677,3.034,1029.286,1.032,0.854
0.721000,759932,1000.00,12,0,1,1228.129,5.890,3.147,1029.934,0.733,0.855
0.722000,759933,1000.00,12,0,1,1231.156,6.845,3.248,1029.430,0.722,0.847
0.723000,759934,1000.00,12,0,1,1232.212,5.822,3.350,1029.430,0.115,0.815
0.724000,759935,1000.00,12,0,1,1231.972,3.646,3.385,1028.829,-0.168,0.813
0.725000,759936,1000.00,12,0,1,1228.513,-0.539,3.386,1032.288,2.112,0.865
0.726000,759937,1000.00,12,0,1,1225.415,-4.353,3.441,1031.183,2.107,0.897
0.727000,759938,1000.00,12,0,1,1222.340,-6.393,3.546,1029.622,-0.598,0.868
0.728000,759939,1000.00,12,0,1,1224.910,-4.052,3.583,1028.781,-0.862,0.842
0.729000,759940,1000.00,12,0,1,1229.378,1.725,3.590,1027.893,-1.666,0.865
0.730000,759941,1000.00,12,0,1,1227.817,1.442,3.583,1031.304,1.027,0.874
0.731000,759942,1000.00,12,0,1,1229.474,2.304,3.596,1031.063,2.049,0.911
0.732000,759943,1000.00,12,0,1,1227.264,2.455,3.571,1031.304,0.784,0.917
0.733000,759944,1000.00,12,0,1,1220.683,-3.588,3.550,1031.304,1.612,0.939
0.734000,759945,1000.00,12,0,1,1222.844,-1.496,3.550,1027.196,-2.342,0.996
0.735000,759946,1000.00,12,0,1,1224.165,1.811,3.469,1027.124,-2.837,1.051
0.736000,759947,1000.00,12,0,1,1224.093,1.126,3.424,1029.070,-0.215,1.004
0.737000,759948,1000.00,12,0,1,1226.111,2.937,3.442,1031.448,1.668,1.028
0.738000,759949,1000.00,12,0,1,1223.565,0.623,3.409,1031.111,1.784,1.050
0.739000,759950,1000.00,12,0,1,1222.340,-2.061,3.421,1031.352,0.948,1.058
0.740000,759951,1000.00,12,0,1,1224.574,-0.403,3.383,1029.526,-0.155,1.057
0.741000,759952,1000.00,12,0,1,1227.985,1.593,3.353,1031.640,0.355,1.058
0.742000,759953,1000.00,12,0,1,1227.865,0.946,3.351,1030.943,0.960,1.067
0.743000,759954,1000.00,12,0,1,1229.618,0.388,3.345,1030.655,-0.696,1.071
0.744000,759955,1000.00,12,0,1,1229.930,0.551,3.344,1030.511,-0.165,1.071
0.745000,759956,1000.00,12,0,1,1229.690,-1.100,3.344,1028.685,-1.980,1.104
0.746000,759957,1000.00,12,0,1,1233.654,1.721,3.342,1029.262,-1.679,1.128
0.747000,759958,1000.00,12,0,1,1233.293,2.023,3.354,1029.022,-0.974,1.135
0.748000,759959,1000.00,12,0,1,1230.075,-1.712,3.360,1028.757,-1.568,1.141
0.749000,759960,1000.00,12,0,1,1227.913,-2.928,3.363,1028.325,-1.135,1.141
0.750000,759961,1000.00,12,0,1,1231.252,0.100,3.360,1029.694,-0.295,1.136
0.751000,759962,1000.00,12,0,1,1231.516,2.466,3.373,1029.838,0.751,1.141
0.752000,759963,1000.00,12,0,1,1227.360,-1.142,3.368,1029.862,0.225,1.140
0.753000,759964,1000.00,12,0,1,1225.439,-2.214,3.341,1028.181,-0.596,1.142
0.754000,759965,1000.00,12,0,1,1221.283,-4.138,3.392,1030.391,0.453,1.142
0.755000,759966,1000.00,12,0,1,1218.545,-6.157,3.493,1031.231,2.265,1.186
0.756000,759967,1000.00,12,0,1,1220.274,-3.197,3.514,1032.288,2.089,1.213
0.757000,759968,1000.00,12,0,1,1222.004,-0.732,3.434,1031.376,1.687,1.231
0.758000,759969,1000.00,12,0,1,1227.961,3.863,3.427,1030.054,-0.337,1.231
0.759000,759970,1000.00,12,0,1,1226.496,3.441,3.407,1028.757,-1.326,1.244
0.760000,759971,1000.00,12,0,1,1226.808,0.564,3.307,1028.998,-1.299,1.255
0.761000,759972,1000.00,12,0,1,1228.513,2.159,3.228,1030.583,0.235,1.252
0.762000,759973,1000.00,12,0,1,1229.330,0.982,3.103,1032.120,1.683,1.274
0.763000,759974,1000.00,12,0,1,1231.372,1.676,3.054,1032.673,1.816,1.294
0.764000,759975,1000.00,12,0,1,1228.729,-1.009,3.052,1032.745,1.607,1.313
0.765000,759976,1000.00,12,0,1,1227.913,-3.463,3.024,1031.928,0.502,1.308
0.766000,759977,1000.00,12,0,1,1226.640,-3.420,3.051,1029.622,-1.498,1.322
0.767000,759978,1000.00,12,0,1,1225.871,-4.455,3.093,1028.733,-2.593,1.370
0.768000,759979,1000.00,12,0,1,1221.475,-6.079,3.192,1030.223,-0.835,1.369
0.769000,759980,1000.00,12,0,1,1224.238,-4.052,3.199,1030.655,-0.028,1.362
0.770000,759981,1000.00,12,0,1,1227.937,2.446,3.149,1030.151,-0.464,1.356
0.771000,759982,1000.00,12,0,1,1226.087,1.490,3.044,1030.078,-0.473,1.353
0.772000,759983,1000.00,12,0,1,1225.030,1.081,2.890,1031.183,0.499,1.351
0.773000,759984,1000.00,12,0,1,1225.871,2.799,2.799,1030.343,0.148,1.351
0.774000,759985,1000.00,12,0,1,1225.294,2.875,2.781,1031.304,0.321,1.352
0.775000,759986,1000.00,12,0,1,1221.307,0.037,2.780,1030.967,0.682,1.322
0.776000,759987,1000.00,12,0,1,1220.851,-1.080,2.715,1029.358,-1.237,1.300
0.777000,759988,1000.00,12,0,1,1220.154,-0.402,2.561,1029.670,-0.961,1.304
0.778000,759989,1000.00,12,0,1,1220.106,-1.308,2.503,1029.310,-0.854,1.304
0.779000,759990,1000.00,12,0,1,1225.367,2.969,2.526,1029.430,-0.998,1.290
0.780000,759991,1000.00,12,0,1,1230.579,6.930,2.702,1029.118,-0.769,1.287
0.781000,759992,1000.00,12,0,1,1237.905,10.827,3.088,1029.550,-0.686,1.257
0.782000,759993,1000.00,12,0,1,1240.644,11.717,3.488,1029.502,-0.219,1.253
0.783000,759994,1000.00,12,0,1,1232.885,2.245,3.465,1028.757,-1.013,1.240
0.784000,759995,1000.00,12,0,1,1231.900,-2.137,3.472,1031.063,0.828,1.201
0.785000,759996,1000.00,12,0,1,1236.608,2.068,3.475,1031.616,1.924,1.164
0.786000,759997,1000.00,12,0,1,1235.359,0.696,3.472,1032.432,1.768,1.190
0.787000,759998,1000.00,12,0,1,1229.162,-5.191,3.525,1031.231,1.184,1.179
0.788000,759999,1000.00,12,0,1,1226.880,-7.239,3.669,1031.856,0.653,1.155
0.789000,760000,1000.00,12,0,1,1230.315,-2.865,3.680,1031.280,0.896,1.154
0.790000,760001,1000.00,12,0,1,1227.985,-2.451,3.696,1029.142,-1.485,1.173
0.791000,760002,1000.00,12,0,1,1228.201,-2.571,3.707,1028.469,-1.913,1.203
0.792000,760003,1000.00,12,0,1,1227.552,-0.523,3.705,1030.463,-0.003,1.195
0.793000,760004,1000.00,12,0,1,1225.150,-2.405,3.720,1029.982,0.264,1.192
0.794000,760005,1000.00,12,0,1,1223.109,-2.838,3.741,1031.111,0.585,1.194
0.795000,760006,1000.00,12,0,1,1218.112,-5.970,3.832,1031.640,1.583,1.182
0.796000,760007,1000.00,12,0,1,1218.280,-5.792,3.911,1031.400,0.839,1.164
0.797000,760008,1000.00,12,0,1,1218.497,-3.423,3.931,1030.535,0.068,1.156
0.798000,760009,1000.00,12,0,1,1221.715,-1.412,3.928,1031.280,0.279,1.135
0.799000,760010,1000.00,12,0,1,1226.928,3.817,3.943,1030.030,-0.407,1.125
0.800000,760011,1000.00,12,0,1,1231.684,6.476,4.048,1029.934,-1.116,1.136
0.801000,760012,1000.00,12,0,1,1231.180,5.133,4.098,1031.736,0.673,1.135
0.802000,760013,1000.00,12,0,1,1230.939,2.176,4.106,1032.432,1.345,1.150
0.803000,760014,1000.00,12,0,1,1231.996,2.103,4.105,1034.042,2.060,1.183
0.804000,760015,1000.00,12,0,1,1234.062,2.473,4.078,1029.838,-0.832,1.187
0.805000,760016,1000.00,12,0,1,1233.221,1.342,3.989,1029.646,-2.780,1.209
0.806000,760017,1000.00,12,0,1,1233.437,0.351,3.964,1030.199,-0.602,1.176
0.807000,760018,1000.00,12,0,1,1232.284,-0.132,3.962,1029.862,-1.491,1.170
0.808000,760019,1000.00,12,0,1,1230.723,-1.535,3.930,1030.823,-0.134,1.169
0.809000,760020,1000.00,12,0,1,1228.970,-2.064,3.911,1031.784,0.788,1.160
0.810000,760021,1000.00,12,0,1,1227.697,-2.150,3.922,1031.496,0.601,1.148
0.811000,760022,1000.00,12,0,1,1225.439,-2.608,3.927,1029.238,-1.203,1.160
0.812000,760023,1000.00,12,0,1,1224.646,-2.176,3.937,1030.583,-0.669,1.139
0.813000,760024,1000.00,12,0,1,1227.456,1.339,3.934,1029.910,0.029,1.110
0.814000,760025,1000.00,12,0,1,1225.847,1.646,3.939,1030.439,-0.538,1.089
0.815000,760026,1000.00,12,0,1,1219.650,-3.861,3.946,1033.249,2.525,1.144
0.816000,760027,1000.00,12,0,1,1221.547,-2.598,3.934,1032.216,1.599,1.147
0.817000,760028,1000.00,12,0,1,1224.478,1.389,3.888,1030.223,-0.807,1.093
0.818000,760029,1000.00,12,0,1,1223.181,-0.276,3.792,1030.247,-0.857,1.093
0.819000,760030,1000.00,12,0,1,1224.286,-0.450,3.749,1031.664,0.350,1.094
0.820000,760031,1000.00,12,0,1,1226.952,1.413,3.738,1031.304,0.354,1.093
0.821000,760032,1000.00,12,0,1,1228.393,1.550,3.739,1031.183,-0.310,1.092
0.822000,760033,1000.00,12,0,1,1228.417,0.504,3.736,1031.280,0.028,1.090
0.823000,760034,1000.00,12,0,1,1229.882,0.375,3.715,1031.832,0.195,1.090
0.824000,760035,1000.00,12,0,1,1227.168,-1.830,3.702,1031.015,-0.202,1.089
0.825000,760036,1000.00,12,0,1,1227.048,-3.374,3.733,1031.448,-0.331,1.086
0.826000,760037,1000.00,12,0,1,1233.197,2.499,3.746,1032.553,0.967,1.081
0.827000,760038,1000.00,12,0,1,1233.317,3.711,3.783,1030.559,-0.597,1.075
0.828000,760039,1000.00,12,0,1,1233.005,2.258,3.792,1030.439,-1.294,1.084
0.829000,760040,1000.00,12,0,1,1229.522,0.746,3.770,1030.175,-0.677,1.079
0.830000,760041,1000.00,12,0,1,1225.847,-2.771,3.661,1030.583,-0.691,1.078
0.831000,760042,1000.00,12,0,1,1224.045,-2.541,3.345,1029.838,-0.562,1.077
0.832000,760043,1000.00,12,0,1,1223.757,-1.670,2.915,1029.022,-1.556,1.098
0.833000,760044,1000.00,12,0,1,1224.982,0.775,2.900,1030.775,0.195,1.089
0.834000,760045,1000.00,12,0,1,1225.391,2.120,2.900,1030.054,0.220,1.084
0.835000,760046,1000.00,12,0,1,1224.045,1.169,2.889,1032.793,1.554,1.072
0.836000,760047,1000.00,12,0,1,1226.904,3.019,2.919,1032.000,2.096,1.083
0.837000,760048,1000.00,12,0,1,1228.201,4.368,2.892,1031.424,-0.018,1.070
0.838000,760049,1000.00,12,0,1,1222.700,-1.290,2.711,1028.998,-1.129,1.078
0.839000,760050,1000.00,12,0,1,1222.556,-3.535,2.727,1029.598,-1.774,1.100
0.840000,760051,1000.00,12,0,1,1223.325,-2.140,2.722,1030.271,0.006,1.080
0.841000,760052,1000.00,12,0,1,1226.207,-1.333,2.704,1030.559,-0.225,1.046
0.842000,760053,1000.00,12,0,1,1232.525,3.826,2.756,1031.544,0.795,1.052
0.843000,760054,1000.00,12,0,1,1235.599,5.484,2.843,1030.655,0.232,1.051
0.844000,760055,1000.00,12,0,1,1235.431,3.623,2.861,1030.535,-0.457,1.050
0.845000,760056,1000.00,12,0,1,1236.896,3.293,2.773,1028.229,-1.572,1.050
0.846000,760057,1000.00,12,0,1,1236.680,2.658,2.676,1030.247,-0.891,1.051
0.847000,760058,1000.00,12,0,1,1234.687,0.226,2.632,1031.592,1.844,1.083
0.848000,760059,1000.00,12,0,1,1232.597,-1.489,2.633,1030.559,0.181,1.082
0.849000,760060,1000.00,12,0,1,1231.924,-1.535,2.586,1031.880,1.296,1.096
0.850000,760061,1000.00,12,0,1,1232.621,0.021,2.418,1028.637,-0.804,1.091
0.851000,760062,1000.00,12,0,1,1229.546,-1.089,2.312,1028.589,-2.046,1.124
0.852000,760063,1000.00,12,0,1,1225.967,-3.787,2.353,1028.757,-0.395,1.109
0.853000,760064,1000.00,12,0,1,1221.475,-5.775,2.473,1029.670,-0.305,1.071
0.854000,760065,1000.00,12,0,1,1221.379,-5.313,2.561,1030.199,1.002,1.074
0.855000,760066,1000.00,12,0,1,1222.964,-1.810,2.566,1031.111,1.186,1.014
0.856000,760067,1000.00,12,0,1,1223.325,-1.065,2.570,1032.240,2.292,1.061
0.857000,760068,1000.00,12,0,1,1221.619,-2.108,2.588,1031.736,1.574,1.063
0.858000,760069,1000.00,12,0,1,1230.051,3.432,2.624,1028.901,-1.136,1.075
0.859000,760070,1000.00,12,0,1,1240.427,12.711,3.167,1029.262,-1.359,1.087
0.860000,760071,1000.00,12,0,1,1240.548,10.551,3.488,1030.535,0.305,1.084
0.861000,760072,1000.00,12,0,1,1240.500,6.324,3.582,1030.727,0.419,1.072
0.862000,760073,1000.00,12,0,1,1240.956,4.816,3.633,1030.559,0.148,1.068
0.863000,760074,1000.00,12,0,1,1243.574,3.958,3.671,1031.352,0.708,1.073
0.864000,760075,1000.00,12,0,1,1243.935,3.442,3.696,1029.598,-0.513,1.073
0.865000,760076,1000.00,12,0,1,1239.443,-2.217,3.668,1028.301,-2.038,1.052
0.866000,760077,1000.00,12,0,1,1237.953,-4.467,3.704,1031.207,0.542,1.030
0.867000,760078,1000.00,12,0,1,1233.005,-7.220,3.837,1030.127,0.654,1.028
0.868000,760079,1000.00,12,0,1,1231.420,-8.666,4.028,1030.223,-0.417,1.022
0.869000,760080,1000.00,12,0,1,1230.891,-6.028,4.117,1031.496,1.485,1.043
0.870000,760081,1000.00,12,0,1,1227.745,-7.063,4.232,1033.706,2.698,1.109
0.871000,760082,1000.00,12,0,1,1226.688,-5.998,4.310,1031.039,1.070,1.119
0.872000,760083,1000.00,12,0,1,1226.544,-3.748,4.342,1028.301,-2.526,1.174
0.873000,760084,1000.00,12,0,1,1231.540,1.419,4.346,1029.142,-1.395,1.190
0.874000,760085,1000.00,12,0,1,1233.413,5.116,4.399,1031.712,1.032,1.199
0.875000,760086,1000.00,12,0,1,1236.176,5.878,4.451,1029.142,-0.534,1.200
0.876000,760087,1000.00,12,0,1,1234.470,4.945,4.492,1029.478,-1.365,1.208
0.877000,760088,1000.00,12,0,1,1231.276,-0.284,4.461,1029.382,-0.333,1.206
0.878000,760089,1000.00,12,0,1,1230.195,-1.842,4.457,1028.974,-1.198,1.204
0.879000,760090,1000.00,12,0,1,1229.306,-3.473,4.483,1029.310,-0.552,1.203
0.880000,760091,1000.00,12,0,1,1232.861,-1.676,4.472,1030.078,0.150,1.199
0.881000,760092,1000.00,12,0,1,1237.665,2.301,4.470,1030.871,0.800,1.202
0.882000,760093,1000.00,12,0,1,1240.163,2.974,4.483,1031.231,1.153,1.193
0.883000,760094,1000.00,12,0,1,1240.379,2.046,4.491,1031.784,1.199,1.204
0.884000,760095,1000.00,12,0,1,1239.323,-0.228,4.481,1031.712,1.229,1.216
0.885000,760096,1000.00,12,0,1,1238.530,-1.369,4.482,1031.568,0.587,1.199
0.886000,760097,1000.00,12,0,1,1239.563,-0.668,4.463,1029.670,-0.732,1.167
0.887000,760098,1000.00,12,0,1,1237.593,-1.278,4.424,1029.742,-1.297,1.181
0.888000,760099,1000.00,12,0,1,1236.440,-2.256,4.431,1030.102,-0.194,1.170
0.889000,760100,1000.00,12,0,1,1233.558,-2.753,4.420,1029.334,-0.952,1.151
0.890000,760101,1000.00,12,0,1,1232.645,-2.960,4.430,1029.022,-1.021,1.160
0.891000,760102,1000.00,12,0,1,1228.633,-3.700,4.457,1030.943,0.640,1.163
0.892000,760103,1000.00,12,0,1,1226.087,-5.302,4.487,1031.135,1.315,1.173
0.893000,760104,1000.00,12,0,1,1231.804,1.125,4.422,1029.814,-0.187,1.172
0.894000,760105,1000.00,12,0,1,1230.507,2.527,4.407,1029.478,-0.594,1.174
0.895000,760106,1000.00,12,0,1,1229.018,-0.402,4.382,1030.127,0.082,1.153
0.896000,760107,1000.00,12,0,1,1232.765,3.354,4.392,1029.886,-0.013,1.146
0.897000,760108,1000.00,12,0,1,1233.077,3.201,4.415,1029.286,-0.613,1.119
0.898000,760109,1000.00,12,0,1,1233.558,1.885,4.418,1029.190,-0.723,1.123
0.899000,760110,1000.00,12,0,1,1233.606,1.052,4.415,1028.998,-0.694,1.113
0.900000,760111,1000.00,12,0,1,1237.569,2.238,4.427,1030.463,0.339,1.108
0.901000,760112,1000.00,12,0,1,1237.737,2.252,4.435,1029.790,0.340,1.070
0.902000,760113,1000.00,12,0,1,1241.244,2.163,4.414,1031.135,0.591,1.072
0.903000,760114,1000.00,12,0,1,1239.851,1.585,4.343,1031.111,1.346,1.088
0.904000,760115,1000.00,12,0,1,1235.599,-4.300,4.321,1030.871,0.278,1.080
0.905000,760116,1000.00,12,0,1,1237.281,-2.912,4.333,1030.967,0.630,1.070
0.906000,760117,1000.00,12,0,1,1238.650,-0.513,4.331,1031.159,0.512,1.022
0.907000,760118,1000.00,12,0,1,1234.735,-3.198,4.344,1032.120,1.245,1.013
0.908000,760119,1000.00,12,0,1,1233.486,-3.718,4.349,1030.487,0.141,1.001
0.909000,760120,1000.00,12,0,1,1234.735,-0.865,3.962,1031.111,-0.197,0.982
0.910000,760121,1000.00,12,0,1,1235.215,1.139,3.674,1030.943,0.568,0.985
0.911000,760122,1000.00,12,0,1,1233.966,1.115,3.566,1031.880,0.509,0.986
0.912000,760123,1000.00,12,0,1,1232.212,0.496,3.502,1031.352,0.813,0.992
0.913000,760124,1000.00,12,0,1,1230.651,-0.231,3.457,1030.799,-0.444,0.989
0.914000,760125,1000.00,12,0,1,1230.867,0.426,3.423,1031.832,0.637,0.990
0.915000,760126,1000.00,12,0,1,1228.369,-1.015,3.411,1031.376,0.334,0.949
0.916000,760127,1000.00,12,0,1,1227.000,-2.820,3.376,1030.991,-0.448,0.948
0.917000,760128,1000.00,12,0,1,1229.090,-0.974,3.221,1030.078,-0.935,0.953
0.918000,760129,1000.00,12,0,1,1230.123,-0.175,2.979,1030.679,-0.903,0.959
0.919000,760130,1000.00,12,0,1,1232.573,0.606,2.855,1030.799,-0.201,0.936
0.920000,760131,1000.00,12,0,1,1234.855,2.009,2.690,1031.904,0.162,0.855
0.921000,760132,1000.00,12,0,1,1235.191,0.850,2.555,1029.022,-1.462,0.867
0.922000,760133,1000.00,12,0,1,1239.683,2.994,2.535,1030.391,-1.643,0.823
0.923000,760134,1000.00,12,0,1,1240.500,3.610,2.579,1029.790,-0.447,0.802
0.924000,760135,1000.00,12,0,1,1237.881,-0.375,2.476,1028.613,-2.404,0.859
0.925000,760136,1000.00,12,0,1,1234.422,-3.402,2.381,1029.718,-0.792,0.863
0.926000,760137,1000.00,12,0,1,1227.961,-8.245,2.557,1029.214,-0.756,0.848
0.927000,760138,1000.00,12,0,1,1225.535,-9.457,2.886,1030.223,-0.246,0.847
0.928000,760139,1000.00,12,0,1,1228.874,-3.953,2.928,1030.631,0.934,0.840
0.929000,760140,1000.00,12,0,1,1232.212,1.295,2.892,1030.151,0.042,0.837
0.930000,760141,1000.00,12,0,1,1236.488,6.101,3.009,1029.574,-0.057,0.836
0.931000,760142,1000.00,12,0,1,1232.357,4.400,3.055,1030.607,0.457,0.831
0.932000,760143,1000.00,12,0,1,1235.960,5.378,3.120,1029.214,0.051,0.815
0.933000,760144,1000.00,12,0,1,1231.059,4.444,3.170,1028.085,-1.559,0.827
0.934000,760145,1000.00,12,0,1,1224.526,-3.987,3.219,1027.845,-1.110,0.824
0.935000,760146,1000.00,12,0,1,1225.318,-2.129,3.227,1029.742,0.363,0.821
0.936000,760147,1000.00,12,0,1,1230.483,2.237,3.241,1030.751,1.830,0.855
0.937000,760148,1000.00,12,0,1,1230.363,2.591,3.257,1027.700,-0.820,0.843
0.938000,760149,1000.00,12,0,1,1229.642,0.091,3.241,1029.070,-0.570,0.846
0.939000,760150,1000.00,12,0,1,1232.212,1.169,3.222,1030.223,1.592,0.865
0.940000,760151,1000.00,12,0,1,1237.017,4.237,3.251,1030.703,1.142,0.868
0.941000,760152,1000.00,12,0,1,1241.629,6.451,3.336,1031.015,1.682,0.896
0.942000,760153,1000.00,12,0,1,1242.301,5.676,3.348,1030.943,1.054,0.889
0.943000,760154,1000.00,12,0,1,1241.268,2.268,3.359,1030.078,0.314,0.890
0.944000,760155,1000.00,12,0,1,1240.500,0.716,3.342,1029.670,-0.381,0.887
0.945000,760156,1000.00,12,0,1,1242.013,0.837,3.343,1029.694,-0.247,0.888
0.946000,760157,1000.00,12,0,1,1241.580,1.067,3.313,1028.781,-0.844,0.896
0.947000,760158,1000.00,12,0,1,1238.746,-1.674,3.291,1028.421,-1.255,0.909
0.948000,760159,1000.00,12,0,1,1236.176,-3.110,3.309,1030.679,0.855,0.911
0.949000,760160,1000.00,12,0,1,1234.999,-3.091,3.334,1030.367,1.138,0.920
0.950000,760161,1000.00,12,0,1,1235.527,-1.253,3.324,1030.199,0.355,0.920
0.951000,760162,1000.00,12,0,1,1237.089,1.337,3.314,1029.910,0.452,0.921
0.952000,760163,1000.00,12,0,1,1234.278,0.196,3.300,1030.823,0.794,0.924
0.953000,760164,1000.00,12,0,1,1228.249,-4.700,3.359,1031.111,1.352,0.925
0.954000,760165,1000.00,12,0,1,1224.574,-7.307,3.461,1031.304,1.035,0.935
0.955000,760166,1000.00,12,0,1,1225.631,-5.398,3.521,1031.352,1.013,0.942
0.956000,760167,1000.00,12,0,1,1229.162,-1.494,3.526,1030.078,-0.224,0.940
0.957000,760168,1000.00,12,0,1,1226.640,-2.800,3.519,1029.358,-1.204,0.939
0.958000,760169,1000.00,12,0,1,1227.360,-3.922,3.524,1028.181,-1.820,0.973
0.959000,760170,1000.00,12,0,1,1232.212,0.651,3.523,1027.484,-2.551,1.037
0.960000,760171,1000.00,12,0,1,1237.737,4.187,3.569,1028.445,-1.293,1.050
0.961000,760172,1000.00,12,0,1,1240.452,5.538,3.650,1029.478,-0.119,1.048
0.962000,760173,1000.00,12,0,1,1240.452,3.532,3.684,1028.181,-0.885,1.049
0.963000,760174,1000.00,12,0,1,1240.980,2.317,3.698,1029.142,-0.560,1.050
0.964000,760175,1000.00,12,0,1,1241.701,2.123,3.710,1030.223,1.048,1.057
0.965000,760176,1000.00,12,0,1,1241.004,0.935,3.709,1032.360,2.292,1.105
0.966000,760177,1000.00,12,0,1,1241.172,0.836,3.690,1031.039,1.684,1.128
0.967000,760178,1000.00,12,0,1,1236.680,-1.957,3.697,1030.439,-0.003,1.120
0.968000,760179,1000.00,12,0,1,1236.993,-2.102,3.709,1030.463,0.467,1.115
0.969000,760180,1000.00,12,0,1,1234.134,-1.526,3.714,1029.190,-0.782,1.120
0.970000,760181,1000.00,12,0,1,1233.702,-2.096,3.715,1029.838,-0.442,1.122
0.971000,760182,1000.00,12,0,1,1232.284,-0.451,3.714,1029.694,0.083,1.102
0.972000,760183,1000.00,12,0,1,1228.513,-3.092,3.716,1028.133,-1.490,1.098
0.973000,760184,1000.00,12,0,1,1226.279,-3.782,3.719,1029.622,-0.203,1.097
0.974000,760185,1000.00,12,0,1,1228.321,-1.133,3.722,1029.238,0.182,1.043
0.975000,760186,1000.00,12,0,1,1229.522,0.897,3.693,1030.511,0.591,1.040
0.976000,760187,1000.00,12,0,1,1227.480,-0.873,3.506,1027.893,-0.614,1.038
0.977000,760188,1000.00,12,0,1,1227.480,-1.959,3.253,1027.893,-1.875,1.071
0.978000,760189,1000.00,12,0,1,1228.729,-0.855,3.207,1028.373,-0.208,1.063
0.979000,760190,1000.00,12,0,1,1230.867,-0.271,3.202,1030.127,0.643,1.067
0.980000,760191,1000.00,12,0,1,1235.335,2.698,3.107,1031.015,1.973,1.103
0.981000,760192,1000.00,12,0,1,1240.307,5.541,3.143,1029.550,0.305,1.102
0.982000,760193,1000.00,12,0,1,1239.058,3.518,3.090,1030.343,0.347,1.103
0.983000,760194,1000.00,12,0,1,1235.816,-1.478,3.033,1028.781,-0.240,1.081
0.984000,760195,1000.00,12,0,1,1232.645,-4.314,3.042,1029.358,-0.886,1.077
0.985000,760196,1000.00,12,0,1,1234.230,-3.290,3.062,1031.952,2.150,1.118
0.986000,760197,1000.00,12,0,1,1236.008,0.002,3.046,1030.919,1.089,1.099
0.987000,760198,1000.00,12,0,1,1238.314,2.283,3.041,1030.823,0.368,1.094
0.988000,760199,1000.00,12,0,1,1236.993,2.749,3.066,1030.391,0.306,1.092
0.989000,760200,1000.00,12,0,1,1234.614,0.852,3.064,1031.352,0.567,1.071
0.990000,760201,1000.00,12,0,1,1231.492,-0.391,3.005,1031.616,1.269,1.074
0.991000,760202,1000.00,12,0,1,1230.507,-0.489,2.864,1031.255,0.446,1.049
0.992000,760203,1000.00,12,0,1,1229.330,0.133,2.749,1028.733,-1.362,1.056
0.993000,760204,1000.00,12,0,1,1227.721,-0.535,2.732,1030.607,-0.596,1.059
0.994000,760205,1000.00,12,0,1,1227.600,-0.177,2.730,1029.598,-0.016,1.057
0.995000,760206,1000.00,12,0,1,1229.042,1.389,2.734,1029.742,-1.066,1.068
0.996000,760207,1000.00,12,0,1,1231.612,3.057,2.764,1028.709,-0.821,1.067
0.997000,760208,1000.00,12,0,1,1231.564,2.567,2.778,1032.312,1.098,1.064
0.998000,760209,1000.00,12,0,1,1233.293,1.834,2.755,1031.520,1.928,1.091
0.999000,760210,1000.00,12,0,1,1233.846,1.666,2.730,1030.511,-0.609,1.083
1.000000,760211,1000.00,12,0,1,1231.876,-1.974,2.739,1028.565,-1.504,1.103
1.001000,760212,1000.00,12,0,1,1234.182,-1.552,2.741,1030.463,-0.812,1.107
1.002000,760213,1000.00,12,0,1,1237.977,1.309,2.747,1027.941,-1.526,1.122
1.003000,760214,1000.00,12,0,1,1239.347,1.590,2.675,1029.358,-1.748,1.133
1.004000,760215,1000.00,12,0,1,1239.779,1.116,2.472,1030.559,0.764,1.128
1.005000,760216,1000.00,12,0,1,1240.524,1.269,2.359,1030.511,0.120,1.119
1.006000,760217,1000.00,12,0,1,1238.146,-0.335,2.350,1030.127,-0.071,1.119
1.007000,760218,1000.00,12,0,1,1233.918,-3.751,2.376,1029.910,-0.246,1.107
1.008000,760219,1000.00,12,0,1,1231.804,-4.410,2.393,1030.679,0.203,1.077
1.009000,760220,1000.00,12,0,1,1230.555,-3.508,2.442,1028.037,-1.199,1.028
1.010000,760221,1000.00,12,0,1,1226.544,-4.765,2.463,1030.463,-0.453,1.014
1.011000,760222,1000.00,12,0,1,1225.799,-4.137,2.408,1031.111,2.016,1.053
1.012000,760223,1000.00,12,0,1,1230.819,2.101,2.374,1031.231,0.689,1.050
1.013000,760224,1000.00,12,0,1,1233.221,5.739,2.487,1029.022,-0.139,1.047
1.014000,760225,1000.00,12,0,1,1226.592,0.310,2.469,1028.421,-1.733,1.066
1.015000,760226,1000.00,12,0,1,1228.369,-0.253,2.466,1029.262,-0.112,1.015
1.016000,760227,1000.00,12,0,1,1225.439,-0.516,2.464,1029.262,-0.114,0.987
1.017000,760228,1000.00,12,0,1,1223.061,-5.160,2.555,1031.111,1.235,1.002
1.018000,760229,1000.00,12,0,1,1222.364,-4.692,2.623,1031.280,1.883,1.035
1.019000,760230,1000.00,12,0,1,1219.842,-7.420,2.817,1031.183,0.865,1.036
1.020000,760231,1000.00,12,0,1,1222.388,-5.690,2.915,1032.264,1.865,1.067
1.021000,760232,1000.00,12,0,1,1230.171,1.413,2.921,1031.255,0.700,1.072
1.022000,760233,1000.00,12,0,1,1237.449,7.129,3.059,1029.382,-1.243,1.066
1.023000,760234,1000.00,12,0,1,1239.178,7.908,3.213,1030.343,-0.784,1.071
1.024000,760235,1000.00,12,0,1,1238.290,4.975,3.285,1031.472,0.672,1.075
1.025000,760236,1000.00,12,0,1,1242.085,6.970,3.427,1029.670,-0.896,1.079
1.026000,760237,1000.00,12,0,1,1244.703,9.028,3.655,1028.301,-2.335,1.125
1.027000,760238,1000.00,12,0,1,1243.574,7.189,3.784,1029.910,-0.756,1.099
1.028000,760239,1000.00,12,0,1,1239.731,3.488,3.814,1032.721,1.984,1.134
1.029000,760240,1000.00,12,0,1,1229.522,-4.492,3.866,1030.607,0.636,1.133
1.030000,760241,1000.00,12,0,1,1224.262,-9.007,4.053,1030.559,-0.556,1.101
1.031000,760242,1000.00,12,0,1,1229.882,-1.762,3.984,1031.231,0.848,1.107
1.032000,760243,1000.00,12,0,1,1231.083,2.240,3.966,1031.063,0.283,1.107
1.033000,760244,1000.00,12,0,1,1227.480,-0.761,3.962,1030.271,-0.192,1.107
1.034000,760245,1000.00,12,0,1,1224.646,-2.652,3.932,1031.904,0.753,1.105
1.035000,760246,1000.00,12,0,1,1225.775,-1.702,3.912,1032.889,2.021,1.100
1.036000,760247,1000.00,12,0,1,1227.288,0.160,3.912,1030.967,0.074,1.089
1.037000,760248,1000.00,12,0,1,1229.642,1.154,3.902,1028.277,-2.544,1.146
1.038000,760249,1000.00,12,0,1,1233.894,3.728,3.918,1029.742,-1.462,1.163
1.039000,760250,1000.00,12,0,1,1236.056,4.160,3.960,1031.424,0.696,1.165
1.040000,760251,1000.00,12,0,1,1236.848,2.459,3.975,1029.718,-0.690,1.155
1.041000,760252,1000.00,12,0,1,1238.506,1.931,3.984,1028.901,-1.855,1.183
1.042000,760253,1000.00,12,0,1,1237.977,0.059,3.984,1030.247,-0.345,1.168
1.043000,760254,1000.00,12,0,1,1234.614,-3.996,4.023,1030.319,-0.033,1.165
1.044000,760255,1000.00,12,0,1,1232.789,-6.194,4.117,1030.751,0.113,1.165
1.045000,760256,1000.00,12,0,1,1233.918,-4.520,4.162,1029.670,-0.478,1.157
1.046000,760257,1000.00,12,0,1,1235.575,-1.917,4.148,1031.712,0.582,1.154
1.047000,760258,1000.00,12,0,1,1235.359,-0.773,4.134,1031.400,1.272,1.158
1.048000,760259,1000.00,12,0,1,1233.173,-1.443,4.131,1030.823,-0.187,1.126
1.049000,760260,1000.00,12,0,1,1232.693,-0.724,4.125,1029.646,-0.625,1.126
1.050000,760261,1000.00,12,0,1,1230.099,-0.811,4.118,1029.742,-0.974,1.114
1.051000,760262,1000.00,12,0,1,1228.994,-1.034,4.114,1031.712,1.082,1.119
1.052000,760263,1000.00,12,0,1,1229.882,1.465,4.115,1032.072,1.648,1.122
1.053000,760264,1000.00,12,0,1,1229.210,1.776,4.117,1030.607,0.054,1.094
1.054000,760265,1000.00,12,0,1,1228.009,0.905,4.116,1028.613,-1.584,1.112
1.055000,760266,1000.00,12,0,1,1228.633,1.261,4.116,1030.223,-0.601,1.115
1.056000,760267,1000.00,12,0,1,1228.753,1.130,4.119,1028.709,-0.623,1.118
1.057000,760268,1000.00,12,0,1,1233.654,3.673,4.117,1029.454,-1.116,1.129
1.058000,760269,1000.00,12,0,1,1232.212,2.556,4.086,1029.814,0.476,1.131
1.059000,760270,1000.00,12,0,1,1227.648,-4.220,4.099,1029.070,-0.776,1.123
1.060000,760271,1000.00,12,0,1,1228.009,-4.928,4.103,1028.757,-0.706,1.126
1.061000,760272,1000.00,12,0,1,1231.804,-2.147,4.072,1031.664,1.416,1.107
1.062000,760273,1000.00,12,0,1,1231.492,-2.321,4.075,1031.592,2.038,1.140
1.063000,760274,1000.00,12,0,1,1233.774,-1.690,4.000,1030.295,0.028,1.140
1.064000,760275,1000.00,12,0,1,1231.876,-2.076,4.011,1026.860,-2.550,1.170
1.065000,760276,1000.00,12,0,1,1230.099,-4.365,4.058,1029.070,-1.500,1.189
1.066000,760277,1000.00,12,0,1,1231.612,-1.666,4.064,1030.199,0.983,1.197
1.067000,760278,1000.00,12,0,1,1232.597,0.611,3.999,1030.679,0.635,1.188
1.068000,760279,1000.00,12,0,1,1228.561,-1.275,3.948,1030.871,1.157,1.169
1.069000,760280,1000.00,12,0,1,1227.264,-1.687,3.813,1031.472,1.286,1.177
1.070000,760281,1000.00,12,0,1,1228.633,1.580,3.734,1028.829,-0.629,1.150
1.071000,760282,1000.00,12,0,1,1230.627,4.562,3.784,1028.781,-1.383,1.163
1.072000,760283,1000.00,12,0,1,1231.636,6.207,3.751,1030.102,0.474,1.151
1.073000,760284,1000.00,12,0,1,1224.790,1.241,3.585,1030.102,0.589,1.149
1.074000,760285,1000.00,12,0,1,1225.030,-0.525,3.516,1030.703,0.825,1.151
1.075000,760286,1000.00,12,0,1,1226.808,2.959,3.401,1030.295,0.848,1.150
1.076000,760287,1000.00,12,0,1,1227.504,1.958,3.164,1031.400,1.050,1.112
1.077000,760288,1000.00,12,0,1,1226.471,0.956,3.000,1030.943,1.288,1.121
1.078000,760289,1000.00,12,0,1,1226.159,-1.142,2.963,1030.631,0.085,1.086
1.079000,760290,1000.00,12,0,1,1230.387,1.342,2.901,1029.934,-0.074,1.082
1.080000,760291,1000.00,12,0,1,1233.966,3.651,2.657,1029.910,-0.643,1.083
1.081000,760292,1000.00,12,0,1,1230.867,-0.390,2.645,1031.352,0.766,1.082
1.082000,760293,1000.00,12,0,1,1231.948,-1.738,2.638,1030.751,0.385,1.083
1.083000,760294,1000.00,12,0,1,1234.446,0.608,2.637,1030.271,-0.582,1.085
1.084000,760295,1000.00,12,0,1,1234.062,-0.250,2.610,1031.592,0.611,1.084
1.085000,760296,1000.00,12,0,1,1232.693,-1.603,2.609,1031.183,0.368,1.046
1.086000,760297,1000.00,12,0,1,1231.708,-1.929,2.623,1029.598,-1.246,1.061
1.087000,760298,1000.00,12,0,1,1231.276,-1.465,2.626,1028.757,-1.980,1.037
1.088000,760299,1000.00,12,0,1,1231.204,-0.160,2.573,1031.304,0.176,1.016
1.089000,760300,1000.00,12,0,1,1228.177,-1.228,2.511,1030.006,0.044,1.012
1.090000,760301,1000.00,12,0,1,1225.126,-2.753,2.517,1030.127,-0.886,1.015
1.091000,760302,1000.00,12,0,1,1223.541,-2.434,2.526,1030.415,0.291,0.981
1.092000,760303,1000.00,12,0,1,1220.803,-2.978,2.561,1030.102,-0.363,0.981
1.093000,760304,1000.00,12,0,1,1218.208,-4.082,2.563,1030.367,0.078,0.981
1.094000,760305,1000.00,12,0,1,1221.115,-0.778,2.412,1030.535,0.292,0.982
1.095000,760306,1000.00,12,0,1,1219.433,-0.398,2.326,1030.006,-0.168,0.980
1.096000,760307,1000.00,12,0,1,1216.599,-3.816,2.372,1031.231,0.704,0.981
1.097000,760308,1000.00,12,0,1,1221.835,0.354,2.370,1031.039,0.850,0.972
1.098000,760309,1000.00,12,0,1,1223.901,2.812,2.395,1030.583,0.018,0.972
1.099000,760310,1000.00,12,0,1,1231.876,6.521,2.564,1030.511,-0.021,0.968
1.100000,760311,1000.00,12,0,1,1239.226,12.666,3.126,1029.070,-1.134,0.971
1.101000,760312,1000.00,12,0,1,1236.969,7.656,3.305,1030.271,-0.590,0.963
1.102000,760313,1000.00,12,0,1,1234.494,2.374,3.315,1032.408,1.815,0.969
1.103000,760314,1000.00,12,0,1,1238.290,3.740,3.348,1031.808,1.095,0.981
1.104000,760315,1000.00,12,0,1,1239.419,4.429,3.403,1028.829,-1.619,0.982
1.105000,760316,1000.00,12,0,1,1235.071,-0.278,3.399,1029.286,-1.787,1.011
1.106000,760317,1000.00,12,0,1,1231.276,-3.976,3.442,1030.415,0.030,1.007
1.107000,760318,1000.00,12,0,1,1230.891,-3.300,3.434,1029.982,-0.415,0.996
1.108000,760319,1000.00,12,0,1,1231.204,-1.465,3.421,1030.271,-0.196,0.994
1.109000,760320,1000.00,12,0,1,1229.762,-1.018,3.372,1031.183,0.734,0.994
1.110000,760321,1000.00,12,0,1,1226.832,-2.244,3.314,1031.544,1.022,0.999
1.111000,760322,1000.00,12,0,1,1227.624,-0.558,3.301,1030.054,-0.169,0.979
1.112000,760323,1000.00,12,0,1,1224.069,-1.356,3.290,1030.679,-0.181,0.936
1.113000,760324,1000.00,12,0,1,1223.757,-2.179,3.296,1029.286,-0.523,0.939
1.114000,760325,1000.00,12,0,1,1227.793,2.604,3.304,1031.760,0.522,0.870
1.115000,760326,1000.00,12,0,1,1230.915,4.960,3.320,1032.216,2.220,0.900
1.116000,760327,1000.00,12,0,1,1232.212,4.943,3.385,1030.967,0.049,0.890
1.117000,760328,1000.00,12,0,1,1230.651,2.059,3.396,1030.535,-0.144,0.885
1.118000,760329,1000.00,12,0,1,1228.922,-1.594,3.399,1030.487,-0.337,0.871
1.119000,760330,1000.00,12,0,1,1230.915,-1.409,3.397,1028.589,-1.689,0.885
1.120000,760331,1000.00,12,0,1,1233.221,-0.439,3.390,1030.703,-0.412,0.882
1.121000,760332,1000.00,12,0,1,1234.975,-0.293,3.328,1032.505,1.964,0.904
1.122000,760333,1000.00,12,0,1,1236.656,0.002,3.210,1029.718,-0.565,0.905
1.123000,760334,1000.00,12,0,1,1233.317,-3.093,3.235,1029.430,-1.630,0.930
1.124000,760335,1000.00,12,0,1,1226.880,-9.138,3.483,1030.631,0.160,0.923
1.125000,760336,1000.00,12,0,1,1232.236,-4.710,3.521,1031.111,0.323,0.917
1.126000,760337,1000.00,12,0,1,1235.215,1.310,3.515,1031.808,1.017,0.916
1.127000,760338,1000.00,12,0,1,1234.614,0.568,3.514,1032.360,1.245,0.915
1.128000,760339,1000.00,12,0,1,1234.446,1.889,3.520,1029.502,-0.943,0.924
1.129000,760340,1000.00,12,0,1,1234.470,2.609,3.534,1029.598,-1.740,0.956
1.130000,760341,1000.00,12,0,1,1232.957,2.457,3.514,1030.631,0.115,0.952
1.131000,760342,1000.00,12,0,1,1234.302,3.738,3.553,1031.400,0.482,0.949
1.132000,760343,1000.00,12,0,1,1230.555,2.008,3.555,1031.520,0.854,0.955
1.133000,760344,1000.00,12,0,1,1228.297,-1.010,3.557,1028.277,-1.795,0.984
1.134000,760345,1000.00,12,0,1,1223.205,-3.870,3.599,1030.991,-0.442,0.983
1.135000,760346,1000.00,12,0,1,1223.109,-5.168,3.665,1029.574,0.297,0.982
1.136000,760347,1000.00,12,0,1,1225.703,-1.602,3.662,1029.118,-1.741,0.997
1.137000,760348,1000.00,12,0,1,1224.190,-3.095,3.683,1029.622,0.040,0.957
1.138000,760349,1000.00,12,0,1,1228.826,-0.918,3.685,1032.745,1.813,0.990
1.139000,760350,1000.00,12,0,1,1231.876,2.425,3.697,1030.943,1.471,1.012
1.140000,760351,1000.00,12,0,1,1231.516,-0.269,3.676,1030.295,-0.710,1.009
1.141000,760352,1000.00,12,0,1,1233.822,0.629,3.661,1031.063,0.658,1.013
1.142000,760353,1000.00,12,0,1,1237.329,2.470,3.654,1030.967,0.301,1.012
1.143000,760354,1000.00,12,0,1,1235.191,0.425,3.608,1031.904,0.799,1.018
1.144000,760355,1000.00,12,0,1,1232.957,-2.945,3.630,1029.910,-0.355,1.019
1.145000,760356,1000.00,12,0,1,1235.143,-0.665,3.631,1029.958,-1.407,1.038
1.146000,760357,1000.00,12,0,1,1233.726,-0.487,3.592,1031.231,0.656,1.037
1.147000,760358,1000.00,12,0,1,1228.561,-4.335,3.643,1030.271,-0.451,1.032
1.148000,760359,1000.00,12,0,1,1228.826,-3.080,3.648,1031.664,0.537,1.035
1.149000,760360,1000.00,12,0,1,1228.994,-0.245,3.529,1032.024,1.268,1.050
1.150000,760361,1000.00,12,0,1,1227.576,-0.213,3.041,1029.742,-0.925,1.046
1.151000,760362,1000.00,12,0,1,1228.874,2.068,2.857,1030.871,-0.431,1.045
1.152000,760363,1000.00,12,0,1,1227.336,2.374,2.857,1031.712,1.037,1.023
1.153000,760364,1000.00,12,0,1,1227.600,2.084,2.823,1030.607,-0.222,1.012
1.154000,760365,1000.00,12,0,1,1226.471,2.181,2.770,1028.781,-1.671,1.014
1.155000,760366,1000.00,12,0,1,1225.655,0.305,2.770,1028.541,-1.955,1.020
1.156000,760367,1000.00,12,0,1,1224.286,-0.737,2.714,1031.664,0.926,1.028
1.157000,760368,1000.00,12,0,1,1225.487,-1.132,2.678,1033.658,3.111,1.117
1.158000,760369,1000.00,12,0,1,1229.138,1.521,2.679,1032.096,1.359,1.133
1.159000,760370,1000.00,12,0,1,1229.594,1.022,2.679,1032.096,0.585,1.131
1.160000,760371,1000.00,12,0,1,1231.564,0.561,2.661,1029.862,-0.876,1.129
1.161000,760372,1000.00,12,0,1,1236.824,4.063,2.722,1028.205,-2.972,1.204
1.162000,760373,1000.00,12,0,1,1239.299,4.972,2.804,1028.301,-2.256,1.245
1.163000,760374,1000.00,12,0,1,1242.301,5.527,2.895,1030.703,-0.151,1.243
1.164000,760375,1000.00,12,0,1,1239.923,3.113,2.905,1030.439,0.446,1.243
1.165000,760376,1000.00,12,0,1,1237.521,-0.778,2.821,1030.175,-0.419,1.204
1.166000,760377,1000.00,12,0,1,1238.890,0.790,2.735,1031.280,0.787,1.209
1.167000,760378,1000.00,12,0,1,1237.785,0.783,2.722,1030.799,0.511,1.211
1.168000,760379,1000.00,12,0,1,1230.123,-4.755,2.795,1031.544,0.621,1.213
1.169000,760380,1000.00,12,0,1,1227.865,-6.343,2.928,1030.030,-0.017,1.190
1.170000,760381,1000.00,12,0,1,1225.318,-5.150,3.017,1030.343,-0.683,1.192
1.171000,760382,1000.00,12,0,1,1226.039,-3.688,3.062,1031.952,1.440,1.177
1.172000,760383,1000.00,12,0,1,1219.794,-5.406,3.156,1030.823,0.352,1.175
1.173000,760384,1000.00,12,0,1,1212.539,-11.550,3.526,1030.703,-0.152,1.153
1.174000,760385,1000.00,12,0,1,1212.131,-9.648,3.553,1032.048,1.164,1.164
1.175000,760386,1000.00,12,0,1,1217.200,-3.529,3.526,1031.520,0.780,1.169
1.176000,760387,1000.00,12,0,1,1229.930,7.510,3.678,1031.472,0.291,1.160
1.177000,760388,1000.00,12,0,1,1243.502,18.858,4.542,1030.583,-0.231,1.147
1.178000,760389,1000.00,12,0,1,1238.122,12.311,4.857,1031.039,-0.298,1.140
1.179000,760390,1000.00,12,0,1,1237.089,4.877,4.892,1031.664,0.606,1.117
1.180000,760391,1000.00,12,0,1,1237.449,4.559,4.922,1031.159,0.001,1.117
1.181000,760392,1000.00,12,0,1,1236.008,0.010,4.893,1030.943,-0.351,1.116
1.182000,760393,1000.00,12,0,1,1230.915,-4.812,4.932,1030.463,-0.623,1.113
1.183000,760394,1000.00,12,0,1,1232.405,-5.374,4.989,1030.511,-0.761,1.089
1.184000,760395,1000.00,12,0,1,1233.654,-2.393,4.970,1031.712,0.414,1.088
1.185000,760396,1000.00,12,0,1,1233.918,-2.189,4.926,1029.478,-1.105,1.099
1.186000,760397,1000.00,12,0,1,1233.894,-0.937,4.922,1030.751,-0.893,1.078
1.187000,760398,1000.00,12,0,1,1230.555,-2.246,4.913,1030.223,-0.073,1.078
1.188000,760399,1000.00,12,0,1,1231.228,-1.255,4.914,1032.096,0.386,1.049
1.189000,760400,1000.00,12,0,1,1231.276,1.716,4.908,1032.625,1.925,1.063
1.190000,760401,1000.00,12,0,1,1230.555,1.393,4.912,1032.000,0.461,1.061
1.191000,760402,1000.00,12,0,1,1229.594,2.275,4.922,1030.127,-0.826,1.063
1.192000,760403,1000.00,12,0,1,1231.732,3.808,4.939,1028.205,-2.709,1.129
1.193000,760404,1000.00,12,0,1,1233.461,6.165,5.015,1028.061,-2.552,1.180
1.194000,760405,1000.00,12,0,1,1229.906,2.365,5.009,1028.685,-1.334,1.194
1.195000,760406,1000.00,12,0,1,1229.474,0.223,5.008,1029.598,-0.387,1.179
1.196000,760407,1000.00,12,0,1,1232.212,2.074,5.016,1028.949,-0.309,1.176
1.197000,760408,1000.00,12,0,1,1234.158,2.258,4.989,1029.790,-0.078,1.174
1.198000,760409,1000.00,12,0,1,1234.014,0.638,4.971,1028.829,0.009,1.172
1.199000,760410,1000.00,12,0,1,1233.173,-2.075,4.979,1031.664,1.334,1.173
1.200000,760411,1000.00,12,0,1,1231.852,-4.337,5.017,1031.760,2.712,1.227
1.201000,760412,1000.00,12,0,1,1230.699,-6.255,5.086,1028.877,-0.887,1.232
1.202000,760413,1000.00,12,0,1,1226.664,-9.304,5.242,1029.838,-0.268,1.224
1.203000,760414,1000.00,12,0,1,1225.727,-10.193,5.429,1031.568,1.649,1.246
1.204000,760415,1000.00,12,0,1,1230.051,-4.765,5.462,1029.022,-0.463,1.225
1.205000,760416,1000.00,12,0,1,1233.437,-0.034,5.462,1031.111,0.356,1.194
1.206000,760417,1000.00,12,0,1,1238.578,4.819,5.503,1031.760,2.003,1.220
1.207000,760418,1000.00,12,0,1,1242.469,9.376,5.658,1030.751,0.274,1.139
1.208000,760419,1000.00,12,0,1,1240.524,7.677,5.758,1031.352,0.736,1.127
1.209000,760420,1000.00,12,0,1,1241.725,7.699,5.858,1029.622,-0.413,1.126
1.210000,760421,1000.00,12,0,1,1239.275,6.680,5.933,1030.439,-0.533,1.122
1.211000,760422,1000.00,12,0,1,1236.296,2.796,5.918,1030.511,0.564,1.043
1.212000,760423,1000.00,12,0,1,1231.276,-0.548,5.877,1025.755,-3.648,1.119
1.213000,760424,1000.00,12,0,1,1227.889,-4.147,5.854,1029.238,-1.431,1.137
1.214000,760425,1000.00,12,0,1,1227.456,-3.622,5.860,1030.295,1.601,1.157
1.215000,760426,1000.00,12,0,1,1230.243,-1.288,5.862,1029.598,-0.203,1.156
1.216000,760427,1000.00,12,0,1,1229.090,-1.699,5.866,1029.934,0.640,1.154
1.217000,760428,1000.00,12,0,1,1224.190,-6.855,5.944,1029.070,-0.258,1.153
1.218000,760429,1000.00,12,0,1,1227.264,-5.540,5.958,1030.343,0.493,1.152
1.219000,760430,1000.00,12,0,1,1233.413,0.499,5.890,1030.391,1.100,1.162
1.220000,760431,1000.00,12,0,1,1236.993,2.313,5.854,1030.847,0.674,1.162
1.221000,760432,1000.00,12,0,1,1236.536,1.060,5.833,1031.304,1.416,1.161
1.222000,760433,1000.00,12,0,1,1235.311,-1.748,5.788,1030.559,0.280,1.161
1.223000,760434,1000.00,12,0,1,1233.534,-3.380,5.573,1029.838,-0.402,1.162
1.224000,760435,1000.00,12,0,1,1235.143,-2.535,5.415,1031.592,0.724,1.155
1.225000,760436,1000.00,12,0,1,1238.410,1.340,5.396,1029.934,0.022,1.150
1.226000,760437,1000.00,12,0,1,1234.470,-0.848,5.291,1028.541,-2.036,1.184
1.227000,760438,1000.00,12,0,1,1228.970,-5.468,4.635,1030.102,-0.260,1.185
1.228000,760439,1000.00,12,0,1,1225.895,-6.036,4.380,1028.901,-0.687,1.188
1.229000,760440,1000.00,12,0,1,1225.607,-4.306,4.368,1029.982,-0.442,1.186
1.230000,760441,1000.00,12,0,1,1225.198,-1.911,4.328,1029.622,0.361,1.187
1.231000,760442,1000.00,12,0,1,1229.402,2.653,4.345,1029.862,-0.268,1.187
1.232000,760443,1000.00,12,0,1,1228.369,4.334,4.335,1028.901,-0.206,1.184
1.233000,760444,1000.00,12,0,1,1229.546,3.888,4.303,1028.349,-1.261,1.193
1.234000,760445,1000.00,12,0,1,1235.287,9.296,4.486,1029.790,0.388,1.192
1.235000,760446,1000.00,12,0,1,1235.167,8.480,4.634,1029.982,0.803,1.188
1.236000,760447,1000.00,12,0,1,1230.099,1.915,4.640,1029.166,-0.148,1.181
1.237000,760448,1000.00,12,0,1,1230.075,-0.241,4.629,1031.832,1.782,1.208
1.238000,760449,1000.00,12,0,1,1234.687,2.627,4.640,1030.559,1.361,1.222
1.239000,760450,1000.00,12,0,1,1235.239,2.324,4.646,1029.862,-0.461,1.193
1.240000,760451,1000.00,12,0,1,1236.296,0.606,4.642,1030.943,0.825,1.197
1.241000,760452,1000.00,12,0,1,1237.161,0.714,4.632,1029.262,-0.549,1.193
1.242000,760453,1000.00,12,0,1,1239.323,0.693,4.602,1028.253,-1.908,1.162
1.243000,760454,1000.00,12,0,1,1242.854,3.274,4.542,1028.229,-1.379,1.122
1.244000,760455,1000.00,12,0,1,1242.830,2.668,4.545,1030.030,-0.017,1.106
1.245000,760456,1000.00,12,0,1,1238.794,-1.305,4.549,1029.502,0.381,1.106
1.246000,760457,1000.00,12,0,1,1230.075,-8.129,4.683,1029.886,-0.094,1.105
1.247000,760458,1000.00,12,0,1,1226.784,-10.538,4.904,1028.541,-0.360,1.106
1.248000,760459,1000.00,12,0,1,1225.391,-8.085,5.035,1029.022,-0.750,1.111
1.249000,760460,1000.00,12,0,1,1220.827,-9.499,5.203,1029.238,0.364,1.096
1.250000,760461,1000.00,12,0,1,1224.093,-4.885,5.212,1029.094,-0.136,1.027
1.251000,760462,1000.00,12,0,1,1229.210,2.896,5.153,1028.781,-0.090,1.019
1.252000,760463,1000.00,12,0,1,1227.384,2.511,4.995,1027.989,-0.726,1.024
1.253000,760464,1000.00,12,0,1,1224.406,-0.150,4.782,1028.637,-0.276,0.998
1.254000,760465,1000.00,12,0,1,1225.487,0.766,4.736,1029.382,0.815,1.002
1.255000,760466,1000.00,12,0,1,1225.487,1.218,4.739,1028.229,-0.260,1.002
1.256000,760467,1000.00,12,0,1,1227.120,1.382,4.694,1029.886,0.775,0.967
1.257000,760468,1000.00,12,0,1,1230.363,3.613,4.531,1030.319,1.663,0.994
1.258000,760469,1000.00,12,0,1,1235.167,5.963,4.480,1030.102,0.832,0.996
1.259000,760470,1000.00,12,0,1,1239.659,8.171,4.496,1030.655,1.210,1.009
1.260000,760471,1000.00,12,0,1,1243.454,8.863,4.571,1031.039,1.326,1.023
1.261000,760472,1000.00,12,0,1,1240.163,4.365,4.596,1031.063,1.050,1.031
1.262000,760473,1000.00,12,0,1,1235.816,-2.169,4.605,1028.925,-0.729,0.898
1.263000,760474,1000.00,12,0,1,1236.944,-1.959,4.576,1029.814,-0.741,0.882
1.264000,760475,1000.00,12,0,1,1237.401,-0.885,4.549,1027.941,-1.150,0.867
1.265000,760476,1000.00,12,0,1,1234.807,-2.887,4.564,1027.628,-2.394,0.931
1.266000,760477,1000.00,12,0,1,1230.843,-5.201,4.616,1029.166,-0.029,0.926
1.267000,760478,1000.00,12,0,1,1230.555,-4.482,4.558,1029.334,0.149,0.926
1.268000,760479,1000.00,12,0,1,1229.522,-2.634,4.505,1027.797,-0.952,0.933
1.269000,760480,1000.00,12,0,1,1231.684,-0.045,4.505,1029.118,-0.160,0.920
1.270000,760481,1000.00,12,0,1,1233.029,3.469,4.520,1028.541,0.190,0.916
1.271000,760482,1000.00,12,0,1,1227.528,-0.517,4.518,1031.111,1.461,0.917
1.272000,760483,1000.00,12,0,1,1226.423,-1.952,4.519,1030.727,2.167,0.966
1.273000,760484,1000.00,12,0,1,1226.423,-0.291,4.494,1031.832,1.623,0.991
1.274000,760485,1000.00,12,0,1,1218.352,-6.691,4.579,1029.982,0.888,0.994
1.275000,760486,1000.00,12,0,1,1218.545,-7.730,4.704,1030.391,-0.236,0.994
1.276000,760487,1000.00,12,0,1,1228.922,2.362,4.714,1030.006,0.323,0.953
1.277000,760488,1000.00,12,0,1,1227.264,2.064,4.659,1031.352,0.520,0.955
1.278000,760489,1000.00,12,0,1,1228.970,-0.291,4.581,1029.742,-0.082,0.950
1.279000,760490,1000.00,12,0,1,1230.603,2.010,4.549,1028.853,-1.740,0.980
1.280000,760491,1000.00,12,0,1,1233.245,1.448,4.545,1028.637,-1.382,0.998
1.281000,760492,1000.00,12,0,1,1232.116,0.895,4.532,1028.229,-1.589,1.022
1.282000,760493,1000.00,12,0,1,1232.116,-1.278,4.494,1028.229,-1.474,1.043
1.283000,760494,1000.00,12,0,1,1230.291,-1.889,4.468,1030.847,0.961,1.036
1.284000,760495,1000.00,12,0,1,1226.015,-5.577,4.342,1029.094,0.127,1.035
1.285000,760496,1000.00,12,0,1,1225.559,-5.129,4.236,1027.556,-1.917,1.064
1.286000,760497,1000.00,12,0,1,1222.724,-4.637,4.278,1029.598,0.093,1.064
1.287000,760498,1000.00,12,0,1,1222.964,-3.722,4.310,1028.349,-0.134,1.033
1.288000,760499,1000.00,12,0,1,1221.763,-1.031,4.296,1028.685,-0.765,1.021
1.289000,760500,1000.00,12,0,1,1224.190,1.339,4.288,1029.094,0.581,1.022
1.290000,760501,1000.00,12,0,1,1229.498,8.382,4.448,1030.559,1.084,1.027
1.291000,760502,1000.00,12,0,1,1230.027,9.168,4.632,1030.655,1.806,1.056
1.292000,760503,1000.00,12,0,1,1224.934,4.519,4.675,1028.805,-0.406,1.022
1.293000,760504,1000.00,12,0,1,1222.340,1.052,4.654,1028.061,-1.143,1.016
1.294000,760505,1000.00,12,0,1,1224.454,2.642,4.654,1028.589,-0.543,1.019
1.295000,760506,1000.00,12,0,1,1228.441,5.491,4.715,1027.917,-0.818,1.024
1.296000,760507,1000.00,12,0,1,1234.639,9.031,4.747,1028.157,-0.739,1.030
1.297000,760508,1000.00,12,0,1,1236.969,9.559,4.706,1030.895,1.657,1.055
1.298000,760509,1000.00,12,0,1,1235.239,4.782,4.615,1031.376,2.474,1.106
1.299000,760510,1000.00,12,0,1,1234.374,1.532,4.420,1030.943,1.283,1.120
1.300000,760511,1000.00,12,0,1,1235.575,0.557,4.366,1027.748,-1.108,1.130
1.301000,760512,1000.00,12,0,1,1235.479,-0.494,4.348,1029.670,-0.676,1.134
1.302000,760513,1000.00,12,0,1,1235.359,-1.872,4.341,1031.015,1.894,1.161
1.303000,760514,1000.00,12,0,1,1231.852,-4.559,4.389,1029.382,-0.236,1.161
1.304000,760515,1000.00,12,0,1,1229.114,-7.211,4.504,1029.622,-0.182,1.155
1.305000,760516,1000.00,12,0,1,1228.681,-5.993,4.580,1028.517,-0.658,1.159
1.306000,760517,1000.00,12,0,1,1226.568,-5.896,4.651,1030.871,0.547,1.156
1.307000,760518,1000.00,12,0,1,1227.072,-4.165,4.661,1031.135,1.930,1.164
1.308000,760519,1000.00,12,0,1,1229.258,0.069,4.584,1030.487,0.213,1.159
1.309000,760520,1000.00,12,0,1,1233.005,4.178,4.475,1031.880,1.576,1.167
1.310000,760521,1000.00,12,0,1,1233.269,5.795,4.373,1030.223,0.213,1.153
1.311000,760522,1000.00,12,0,1,1232.789,4.518,4.376,1029.262,-1.326,1.158
1.312000,760523,1000.00,12,0,1,1228.633,1.476,4.370,1026.980,-2.553,1.209
1.313000,760524,1000.00,12,0,1,1224.117,-3.525,4.390,1028.181,-2.210,1.244
1.314000,760525,1000.00,12,0,1,1222.868,-4.432,4.433,1030.078,0.633,1.237
1.315000,760526,1000.00,12,0,1,1223.829,-3.514,4.442,1030.415,0.585,1.193
1.316000,760527,1000.00,12,0,1,1225.559,-2.153,4.391,1028.397,-0.852,1.199
1.317000,760528,1000.00,12,0,1,1230.387,1.182,4.348,1030.247,-0.093,1.198
1.318000,760529,1000.00,12,0,1,1234.999,4.397,4.377,1030.991,1.515,1.210
1.319000,760530,1000.00,12,0,1,1235.623,3.503,4.405,1031.159,0.846,1.216
1.320000,760531,1000.00,12,0,1,1230.123,-2.625,4.393,1030.295,0.351,1.216
1.321000,760532,1000.00,12,0,1,1230.531,-4.309,4.434,1029.910,-0.465,1.201
1.322000,760533,1000.00,12,0,1,1231.396,-2.322,4.438,1030.511,0.139,1.161
1.323000,760534,1000.00,12,0,1,1230.435,-3.419,4.464,1030.511,0.288,1.139
1.324000,760535,1000.00,12,0,1,1231.924,-1.538,4.368,1030.847,0.256,1.132
1.325000,760536,1000.00,12,0,1,1233.918,1.287,4.233,1033.081,2.151,1.172
1.326000,760537,1000.00,12,0,1,1233.486,1.738,4.227,1031.928,1.346,1.187
1.327000,760538,1000.00,12,0,1,1231.660,0.941,4.219,1030.463,-0.684,1.188
1.328000,760539,1000.00,12,0,1,1235.359,4.156,4.260,1029.070,-1.616,1.210
1.329000,760540,1000.00,12,0,1,1235.623,6.325,4.343,1028.757,-1.987,1.217
1.330000,760541,1000.00,12,0,1,1231.348,1.950,4.347,1027.580,-2.334,1.246
1.331000,760542,1000.00,12,0,1,1227.072,-1.364,4.350,1028.661,-1.564,1.246
1.332000,760543,1000.00,12,0,1,1221.067,-5.893,4.425,1028.469,-0.753,1.233
1.333000,760544,1000.00,12,0,1,1225.054,-3.043,4.438,1028.229,-1.249,1.238
1.334000,760545,1000.00,12,0,1,1229.642,3.075,4.389,1027.628,-1.209,1.249
1.335000,760546,1000.00,12,0,1,1230.483,2.448,4.342,1028.517,-0.603,1.223
1.336000,760547,1000.00,12,0,1,1234.927,4.850,4.347,1029.022,0.345,1.224
1.337000,760548,1000.00,12,0,1,1236.632,5.356,4.381,1030.727,1.447,1.240
1.338000,760549,1000.00,12,0,1,1232.837,-0.075,4.378,1033.033,3.437,1.328
1.339000,760550,1000.00,12,0,1,1227.384,-6.269,4.463,1031.328,1.930,1.353
1.340000,760551,1000.00,12,0,1,1224.862,-9.277,4.499,1028.901,-1.129,1.354
1.341000,760552,1000.00,12,0,1,1228.393,-5.912,4.388,1029.166,-0.848,1.335
1.342000,760553,1000.00,12,0,1,1233.365,-0.630,4.342,1031.352,1.030,1.342
1.343000,760554,1000.00,12,0,1,1232.597,-0.488,4.340,1029.742,0.293,1.332
1.344000,760555,1000.00,12,0,1,1231.900,-1.550,4.330,1029.598,-0.807,1.335
1.345000,760556,1000.00,12,0,1,1232.164,-0.155,4.260,1029.382,-0.104,1.330
1.346000,760557,1000.00,12,0,1,1229.714,-1.259,4.067,1029.310,-0.585,1.329
1.347000,760558,1000.00,12,0,1,1226.231,-3.198,3.863,1028.301,-0.825,1.313
1.348000,760559,1000.00,12,0,1,1229.618,0.501,3.804,1028.541,-0.894,1.272
1.349000,760560,1000.00,12,0,1,1233.413,5.942,3.889,1029.502,0.441,1.260
1.350000,760561,1000.00,12,0,1,1232.333,5.348,3.962,1031.280,1.839,1.277
1.351000,760562,1000.00,12,0,1,1229.954,3.020,3.984,1029.862,0.953,1.281
1.352000,760563,1000.00,12,0,1,1229.834,2.620,3.992,1030.151,0.276,1.253
1.353000,760564,1000.00,12,0,1,1230.195,2.808,3.960,1030.247,0.841,1.258
1.354000,760565,1000.00,12,0,1,1229.882,1.941,3.836,1030.391,0.417,1.260
1.355000,760566,1000.00,12,0,1,1232.212,2.650,3.760,1031.231,1.085,1.265
1.356000,760567,1000.00,12,0,1,1231.924,2.037,3.678,1030.679,0.574,1.266
1.357000,760568,1000.00,12,0,1,1229.138,-2.168,3.643,1030.583,-0.097,1.236
1.358000,760569,1000.00,12,0,1,1232.381,-0.920,3.645,1029.982,-0.329,1.236
1.359000,760570,1000.00,12,0,1,1234.278,0.795,3.599,1030.078,-0.744,1.221
1.360000,760571,1000.00,12,0,1,1234.518,-0.658,3.506,1029.070,-1.049,1.229
1.361000,760572,1000.00,12,0,1,1233.293,-2.002,3.459,1029.886,-0.904,1.222
1.362000,760573,1000.00,12,0,1,1236.680,-0.442,3.453,1027.700,-1.656,1.190
1.363000,760574,1000.00,12,0,1,1239.299,2.702,3.438,1027.941,-2.332,1.195
1.364000,760575,1000.00,12,0,1,1237.209,0.426,3.381,1029.142,-0.062,1.192
1.365000,760576,1000.00,12,0,1,1231.804,-3.948,3.390,1030.583,0.894,1.196
1.366000,760577,1000.00,12,0,1,1229.954,-5.252,3.457,1029.718,0.720,1.194
1.367000,760578,1000.00,12,0,1,1229.738,-3.406,3.487,1028.757,-0.603,1.197
1.368000,760579,1000.00,12,0,1,1230.123,-1.701,3.439,1026.740,-1.854,1.206
1.369000,760580,1000.00,12,0,1,1231.564,0.877,3.406,1028.421,-0.792,1.206
1.370000,760581,1000.00,12,0,1,1235.503,4.947,3.457,1027.604,-0.260,1.205
1.371000,760582,1000.00,12,0,1,1239.010,8.264,3.598,1028.325,-0.454,1.205
1.372000,760583,1000.00,12,0,1,1238.218,7.081,3.720,1028.013,0.230,1.205
1.373000,760584,1000.00,12,0,1,1239.875,6.335,3.796,1028.949,0.360,1.206
1.374000,760585,1000.00,12,0,1,1239.683,5.708,3.875,1030.679,2.191,1.244
1.375000,760586,1000.00,12,0,1,1232.957,-1.864,3.879,1032.721,3.502,1.304
1.376000,760587,1000.00,12,0,1,1227.432,-8.160,4.040,1030.078,1.286,1.303
1.377000,760588,1000.00,12,0,1,1230.363,-6.279,4.134,1028.517,-1.205,1.311
1.378000,760589,1000.00,12,0,1,1236.488,-0.472,4.093,1029.142,-0.397,1.292
1.379000,760590,1000.00,12,0,1,1233.486,-2.727,4.012,1029.622,0.146,1.261
1.380000,760591,1000.00,12,0,1,1231.636,-6.333,4.102,1029.622,0.060,1.217
1.381000,760592,1000.00,12,0,1,1234.999,-2.831,4.117,1029.478,0.059,1.197
1.382000,760593,1000.00,12,0,1,1234.134,-2.868,4.052,1030.319,0.511,1.194
1.383000,760594,1000.00,12,0,1,1225.583,-9.572,4.250,1031.111,1.479,1.199
1.384000,760595,1000.00,12,0,1,1224.598,-10.531,4.483,1031.640,1.534,1.207
1.385000,760596,1000.00,12,0,1,1233.245,-0.490,4.470,1029.670,0.097,1.204
1.386000,760597,1000.00,12,0,1,1239.659,7.057,4.528,1029.334,-0.976,1.211
1.387000,760598,1000.00,12,0,1,1238.122,6.215,4.550,1028.877,-0.624,1.197
1.388000,760599,1000.00,12,0,1,1234.038,2.242,4.561,1029.382,-0.613,1.097
1.389000,760600,1000.00,12,0,1,1235.023,2.821,4.492,1029.358,-0.036,1.062
1.390000,760601,1000.00,12,0,1,1232.885,2.491,4.311,1029.502,-0.245,1.051
1.391000,760602,1000.00,12,0,1,1234.110,2.254,4.241,1029.502,-0.011,1.044
1.392000,760603,1000.00,12,0,1,1236.656,5.551,4.312,1029.382,-0.252,1.034
1.393000,760604,1000.00,12,0,1,1234.518,2.986,4.332,1028.829,-0.691,1.038
1.394000,760605,1000.00,12,0,1,1231.876,-0.283,4.326,1031.207,0.974,1.041
1.395000,760606,1000.00,12,0,1,1228.297,-3.544,4.355,1030.151,0.752,1.046
1.396000,760607,1000.00,12,0,1,1233.726,-0.537,4.352,1029.262,-1.037,1.053
1.397000,760608,1000.00,12,0,1,1238.097,4.516,4.376,1029.622,-0.349,1.048
1.398000,760609,1000.00,12,0,1,1239.635,3.480,4.403,1028.469,-1.253,1.055
1.399000,760610,1000.00,12,0,1,1243.886,5.759,4.398,1030.078,-0.297,1.054
1.400000,760611,1000.00,12,0,1,1237.497,-0.028,4.332,1030.415,0.867,1.029
1.401000,760612,1000.00,12,0,1,1231.924,-7.753,4.448,1028.229,-1.454,1.041
1.402000,760613,1000.00,12,0,1,1234.086,-5.076,4.491,1029.502,-0.498,1.042
1.403000,760614,1000.00,12,0,1,1233.317,-4.524,4.519,1030.751,1.192,1.049
1.404000,760615,1000.00,12,0,1,1232.020,-5.306,4.572,1030.078,0.492,1.050
1.405000,760616,1000.00,12,0,1,1231.516,-4.275,4.597,1029.286,-0.283,1.039
1.406000,760617,1000.00,12,0,1,1232.429,-2.487,4.601,1029.526,-0.093,1.036
1.407000,760618,1000.00,12,0,1,1235.527,1.493,4.596,1028.901,-0.314,1.037
1.408000,760619,1000.00,12,0,1,1241.460,7.082,4.702,1027.821,-1.287,1.052
1.409000,760620,1000.00,12,0,1,1240.187,7.099,4.807,1026.307,-2.235,1.093
1.410000,760621,1000.00,12,0,1,1231.852,-1.041,4.808,1029.574,0.246,1.084
1.411000,760622,1000.00,12,0,1,1226.351,-6.018,4.875,1029.358,1.404,1.094
1.412000,760623,1000.00,12,0,1,1229.954,-2.408,4.886,1029.742,0.434,1.071
1.413000,760624,1000.00,12,0,1,1236.536,4.510,4.913,1029.958,1.317,1.036
1.414000,760625,1000.00,12,0,1,1236.584,4.731,4.958,1030.102,0.687,1.040
1.415000,760626,1000.00,12,0,1,1232.381,-0.341,4.926,1030.391,0.996,1.042
1.416000,760627,1000.00,12,0,1,1221.932,-9.160,5.039,1027.797,-1.179,1.050
1.417000,760628,1000.00,12,0,1,1223.973,-9.466,5.192,1029.646,-0.583,1.050
1.418000,760629,1000.00,12,0,1,1233.173,1.127,5.189,1031.159,1.914,1.052
1.419000,760630,1000.00,12,0,1,1235.575,3.117,5.206,1028.133,-1.199,1.060
1.420000,760631,1000.00,12,0,1,1235.575,1.931,5.166,1030.439,0.090,1.059
1.421000,760632,1000.00,12,0,1,1236.680,2.129,5.041,1030.895,1.638,1.083
1.422000,760633,1000.00,12,0,1,1237.809,2.417,4.952,1029.190,-0.637,1.086
1.423000,760634,1000.00,12,0,1,1238.338,2.558,4.884,1026.499,-2.454,1.139
1.424000,760635,1000.00,12,0,1,1237.737,1.627,4.822,1029.862,-0.289,1.097
1.425000,760636,1000.00,12,0,1,1231.059,-3.333,4.838,1033.201,3.928,1.125
1.426000,760637,1000.00,12,0,1,1230.555,-4.704,4.745,1031.880,2.250,1.155
1.427000,760638,1000.00,12,0,1,1230.219,-1.968,4.670,1029.982,0.013,1.142
1.428000,760639,1000.00,12,0,1,1231.780,-0.726,4.671,1030.463,0.177,1.141
1.429000,760640,1000.00,12,0,1,1234.086,3.218,4.677,1028.925,-0.781,1.146
1.430000,760641,1000.00,12,0,1,1225.823,-2.626,4.605,1029.550,-0.836,1.152
1.431000,760642,1000.00,12,0,1,1224.934,-4.835,4.638,1031.784,1.490,1.172
1.432000,760643,1000.00,12,0,1,1232.405,3.900,4.653,1031.255,1.088,1.179
1.433000,760644,1000.00,12,0,1,1240.019,10.114,4.676,1030.727,-0.091,1.161
1.434000,760645,1000.00,12,0,1,1243.358,12.360,4.765,1028.109,-1.881,1.171
1.435000,760646,1000.00,12,0,1,1239.250,6.637,4.856,1028.277,-2.583,1.227
1.436000,760647,1000.00,12,0,1,1235.239,0.507,4.753,1029.574,-0.434,1.220
1.437000,760648,1000.00,12,0,1,1237.881,1.172,4.674,1030.343,-0.042,1.217
1.438000,760649,1000.00,12,0,1,1247.321,7.891,4.795,1030.751,0.536,1.216
1.439000,760650,1000.00,12,0,1,1248.979,8.898,4.941,1031.231,0.675,1.220
1.440000,760651,1000.00,12,0,1,1240.283,-1.335,4.932,1029.622,-0.504,1.222
1.441000,760652,1000.00,12,0,1,1238.938,-5.014,4.973,1028.757,-1.654,1.244
1.442000,760653,1000.00,12,0,1,1238.194,-4.347,4.949,1029.190,-0.908,1.250
1.443000,760654,1000.00,12,0,1,1237.761,-5.386,4.989,1029.742,-0.192,1.246
1.444000,760655,1000.00,12,0,1,1236.752,-4.739,5.034,1031.111,0.965,1.246
1.445000,760656,1000.00,12,0,1,1236.440,-4.702,5.053,1030.151,0.595,1.245
1.446000,760657,1000.00,12,0,1,1233.317,-5.451,5.111,1028.157,-1.562,1.256
1.447000,760658,1000.00,12,0,1,1234.999,-3.890,5.100,1028.661,-0.985,1.262
1.448000,760659,1000.00,12,0,1,1235.840,-0.619,5.077,1028.637,-0.472,1.252
1.449000,760660,1000.00,12,0,1,1233.750,-2.009,5.020,1029.622,0.184,1.251
1.450000,760661,1000.00,12,0,1,1232.525,-2.331,5.030,1030.078,1.018,1.253
1.451000,760662,1000.00,12,0,1,1226.207,-6.097,4.985,1028.397,-0.557,1.239
1.452000,760663,1000.00,12,0,1,1224.165,-8.302,5.070,1029.094,-0.357,1.238
1.453000,760664,1000.00,12,0,1,1226.471,-3.961,5.061,1030.151,1.035,1.235
1.454000,760665,1000.00,12,0,1,1234.614,2.742,5.020,1030.823,1.236,1.246
1.455000,760666,1000.00,12,0,1,1238.626,7.575,5.097,1030.319,0.870,1.251
1.456000,760667,1000.00,12,0,1,1236.632,3.775,5.113,1030.439,0.395,1.252
1.457000,760668,1000.00,12,0,1,1237.089,2.524,5.121,1029.670,-0.021,1.251
1.458000,760669,1000.00,12,0,1,1237.761,2.383,5.034,1029.790,-0.407,1.239
1.459000,760670,1000.00,12,0,1,1237.377,0.786,4.934,1030.823,0.708,1.203
1.460000,760671,1000.00,12,0,1,1240.452,2.420,4.943,1029.430,-0.319,1.203
1.461000,760672,1000.00,12,0,1,1245.184,5.902,4.941,1028.013,-1.880,1.216
1.462000,760673,1000.00,12,0,1,1241.941,3.110,4.948,1028.061,-1.457,1.232
1.463000,760674,1000.00,12,0,1,1237.377,-2.597,4.921,1029.958,0.263,1.218
1.464000,760675,1000.00,12,0,1,1229.834,-7.622,4.993,1031.039,1.710,1.238
1.465000,760676,1000.00,12,0,1,1226.976,-10.136,5.194,1028.998,-0.116,1.230
1.466000,760677,1000.00,12,0,1,1225.463,-7.950,5.154,1029.598,-0.178,1.219
1.467000,760678,1000.00,12,0,1,1226.520,-5.698,5.042,1030.127,0.948,1.224
1.468000,760679,1000.00,12,0,1,1225.415,-3.489,5.064,1030.199,0.566,1.196
1.469000,760680,1000.00,12,0,1,1223.277,-4.258,5.081,1031.856,1.915,1.214
1.470000,760681,1000.00,12,0,1,1224.886,-1.473,5.077,1029.598,0.300,1.215
1.471000,760682,1000.00,12,0,1,1224.093,-0.217,5.069,1030.655,-0.084,1.193
1.472000,760683,1000.00,12,0,1,1226.688,1.381,5.061,1028.877,-0.300,1.190
1.473000,760684,1000.00,12,0,1,1227.384,3.539,5.073,1030.607,-0.448,1.140
1.474000,760685,1000.00,12,0,1,1229.594,3.590,5.093,1028.998,-0.089,1.140
1.475000,760686,1000.00,12,0,1,1227.745,2.778,5.086,1028.229,-2.267,1.045
1.476000,760687,1000.00,12,0,1,1226.808,-0.365,5.043,1029.958,0.131,0.996
1.477000,760688,1000.00,12,0,1,1236.920,7.356,5.141,1030.559,0.635,1.000
1.478000,760689,1000.00,12,0,1,1240.620,11.010,5.371,1028.013,-1.421,1.020
1.479000,760690,1000.00,12,0,1,1239.082,6.320,5.426,1029.334,-0.870,1.021
1.480000,760691,1000.00,12,0,1,1236.632,3.168,5.432,1029.502,0.235,1.015
1.481000,760692,1000.00,12,0,1,1231.900,-2.190,5.397,1028.277,-1.113,1.005
1.482000,760693,1000.00,12,0,1,1235.143,-0.353,5.369,1030.367,0.493,0.996
1.483000,760694,1000.00,12,0,1,1235.888,2.137,5.184,1027.076,-1.028,1.006
1.484000,760695,1000.00,12,0,1,1235.287,0.692,4.881,1027.700,-2.113,1.015
1.485000,760696,1000.00,12,0,1,1235.816,2.093,4.799,1027.917,0.103,0.947
1.486000,760697,1000.00,12,0,1,1234.422,1.252,4.802,1029.358,0.180,0.946
1.487000,760698,1000.00,12,0,1,1230.843,-1.232,4.802,1027.965,0.419,0.948
1.488000,760699,1000.00,12,0,1,1232.284,-0.022,4.671,1029.742,0.509,0.947
1.489000,760700,1000.00,12,0,1,1235.119,3.673,4.528,1029.022,1.324,0.961
1.490000,760701,1000.00,12,0,1,1231.131,0.744,4.525,1030.391,1.031,0.969
1.491000,760702,1000.00,12,0,1,1230.051,-1.551,4.475,1031.352,2.662,1.013
1.492000,760703,1000.00,12,0,1,1238.650,5.733,4.506,1031.063,1.616,1.031
1.493000,760704,1000.00,12,0,1,1242.301,9.081,4.623,1029.790,0.332,1.031
1.494000,760705,1000.00,12,0,1,1236.872,2.288,4.586,1028.349,-1.092,1.034
1.495000,760706,1000.00,12,0,1,1225.391,-8.991,4.712,1030.199,-0.009,1.030
1.496000,760707,1000.00,12,0,1,1221.139,-14.133,5.060,1030.223,0.969,1.016
1.497000,760708,1000.00,12,0,1,1223.013,-10.691,5.252,1028.325,-1.443,1.027
1.498000,760709,1000.00,12,0,1,1221.932,-10.061,5.441,1029.118,-0.606,1.028
1.499000,760710,1000.00,12,0,1,1229.882,-3.639,5.458,1028.205,-0.928,1.036
1.500000,760711,1000.00,12,0,1,1238.362,5.986,5.513,1029.334,-0.393,1.028
1.501000,760712,1000.00,12,0,1,1245.616,10.485,5.644,1029.310,0.402,1.026
1.502000,760713,1000.00,12,0,1,1250.828,14.342,5.881,1029.646,0.097,1.025
1.503000,760714,1000.00,12,0,1,1250.156,11.608,6.080,1029.118,0.177,1.015
1.504000,760715,1000.00,12,0,1,1247.033,6.830,6.144,1031.135,1.190,1.014
1.505000,760716,1000.00,12,0,1,1245.568,4.203,6.079,1031.688,2.320,1.058
1.506000,760717,1000.00,12,0,1,1241.244,0.462,6.056,1030.751,0.748,1.062
1.507000,760718,1000.00,12,0,1,1236.224,-4.152,6.074,1029.742,-0.214,1.062
1.508000,760719,1000.00,12,0,1,1234.494,-4.977,6.105,1029.190,-0.845,1.068
1.509000,760720,1000.00,12,0,1,1234.590,-3.519,6.125,1028.277,-1.498,1.084
1.510000,760721,1000.00,12,0,1,1235.575,-1.874,6.121,1028.205,-1.491,1.103
1.511000,760722,1000.00,12,0,1,1237.209,0.214,6.064,1028.757,-0.789,1.077
1.512000,760723,1000.00,12,0,1,1235.840,-0.680,6.048,1029.478,0.046,1.057
1.513000,760724,1000.00,12,0,1,1238.578,0.490,6.038,1029.718,0.263,1.057
1.514000,760725,1000.00,12,0,1,1239.250,1.568,5.945,1028.589,-0.566,1.032
1.515000,760726,1000.00,12,0,1,1233.966,-4.182,5.800,1030.175,0.253,1.032
1.516000,760727,1000.00,12,0,1,1231.996,-7.137,5.778,1031.231,1.808,1.063
1.517000,760728,1000.00,12,0,1,1233.269,-5.651,5.778,1029.598,-0.013,1.055
1.518000,760729,1000.00,12,0,1,1232.333,-6.207,5.823,1029.022,-0.799,1.058
1.519000,760730,1000.00,12,0,1,1232.573,-6.160,5.857,1026.836,-2.161,1.067
1.520000,760731,1000.00,12,0,1,1236.512,-2.468,5.864,1027.941,-1.741,1.094
1.521000,760732,1000.00,12,0,1,1239.827,1.041,5.865,1030.343,1.326,1.110
1.522000,760733,1000.00,12,0,1,1238.362,-0.060,5.862,1029.406,0.546,1.112
1.523000,760734,1000.00,12,0,1,1233.461,-4.158,5.870,1030.247,0.702,1.115
1.524000,760735,1000.00,12,0,1,1234.831,-3.032,5.864,1030.535,1.432,1.133
1.525000,760736,1000.00,12,0,1,1242.133,4.821,5.890,1031.496,1.523,1.108
1.526000,760737,1000.00,12,0,1,1249.820,11.889,6.125,1031.712,1.985,1.143
1.527000,760738,1000.00,12,0,1,1252.822,14.189,6.361,1030.151,0.118,1.139
1.528000,760739,1000.00,12,0,1,1250.660,10.770,6.353,1028.397,-1.507,1.141
1.529000,760740,1000.00,12,0,1,1235.527,-2.364,6.299,1029.670,-0.660,1.139
1.530000,760741,1000.00,12,0,1,1226.159,-12.678,6.534,1030.247,0.472,1.140
1.531000,760742,1000.00,12,0,1,1233.389,-4.628,6.559,1029.718,-0.270,1.130
1.532000,760743,1000.00,12,0,1,1233.846,-0.905,6.560,1030.679,0.415,1.129
1.533000,760744,1000.00,12,0,1,1230.243,-5.068,6.592,1029.766,0.012,1.120
1.534000,760745,1000.00,12,0,1,1230.675,-3.912,6.615,1030.703,0.040,1.079
1.535000,760746,1000.00,12,0,1,1235.047,-0.364,6.608,1031.952,1.662,1.104
1.536000,760747,1000.00,12,0,1,1243.694,6.730,6.674,1030.078,-0.229,1.104
1.537000,760748,1000.00,12,0,1,1244.991,7.488,6.755,1029.358,-1.295,1.118
1.538000,760749,1000.00,12,0,1,1235.119,-3.023,6.769,1030.511,-0.102,1.116
1.539000,760750,1000.00,12,0,1,1230.363,-9.355,6.877,1029.886,-0.356,1.101
1.540000,760751,1000.00,12,0,1,1232.765,-6.387,6.936,1031.352,0.370,1.093
1.541000,760752,1000.00,12,0,1,1238.554,-0.928,6.933,1029.046,-0.676,1.030
1.542000,760753,1000.00,12,0,1,1238.290,0.216,6.886,1027.316,-3.108,1.096
1.543000,760754,1000.00,12,0,1,1235.503,-2.872,6.777,1028.493,-1.341,1.112
1.544000,760755,1000.00,12,0,1,1229.906,-6.234,6.827,1029.430,-0.186,1.101
1.545000,760756,1000.00,12,0,1,1229.906,-6.038,6.761,1028.469,-0.722,1.106
1.546000,760757,1000.00,12,0,1,1233.678,-0.127,6.459,1030.463,0.595,1.101
1.547000,760758,1000.00,12,0,1,1238.242,4.850,6.317,1030.199,1.170,1.094
1.548000,760759,1000.00,12,0,1,1238.049,5.977,6.212,1028.109,-1.186,1.104
1.549000,760760,1000.00,12,0,1,1234.350,2.566,6.202,1030.151,0.288,1.097
1.550000,760761,1000.00,12,0,1,1231.276,-0.007,6.144,1029.070,0.395,1.097
1.551000,760762,1000.00,12,0,1,1227.769,-2.156,5.970,1027.700,-1.735,1.122
1.552000,760763,1000.00,12,0,1,1226.111,-3.419,5.636,1027.628,-1.064,1.132
1.553000,760764,1000.00,12,0,1,1222.988,-4.528,5.429,1027.989,-0.840,1.138
1.554000,760765,1000.00,12,0,1,1219.674,-7.215,5.439,1029.046,0.439,1.127
1.555000,760766,1000.00,12,0,1,1219.313,-6.385,5.481,1030.703,1.797,1.108
1.556000,760767,1000.00,12,0,1,1219.073,-5.517,5.536,1031.496,2.480,1.157
1.557000,760768,1000.00,12,0,1,1219.962,-4.215,5.537,1028.781,0.085,1.157
1.558000,760769,1000.00,12,0,1,1222.412,-1.491,5.496,1029.214,-0.508,1.153
1.559000,760770,1000.00,12,0,1,1232.813,6.657,5.554,1029.454,0.621,1.137
1.560000,760771,1000.00,12,0,1,1241.412,14.554,5.917,1028.541,-0.668,1.121
1.561000,760772,1000.00,12,0,1,1240.572,11.712,6.145,1029.742,0.439,1.117
1.562000,760773,1000.00,12,0,1,1238.578,7.276,6.229,1030.223,1.125,1.129
1.563000,760774,1000.00,12,0,1,1239.299,6.479,6.296,1030.343,0.877,1.135
1.564000,760775,1000.00,12,0,1,1238.122,4.882,6.330,1029.262,0.130,1.132
1.565000,760776,1000.00,12,0,1,1236.848,2.952,6.316,1027.196,-1.882,1.162
1.566000,760777,1000.00,12,0,1,1237.161,3.207,6.251,1027.748,-1.415,1.151
1.567000,760778,1000.00,12,0,1,1238.194,4.283,6.229,1031.039,1.685,1.176
1.568000,760779,1000.00,12,0,1,1234.062,1.472,6.171,1030.583,1.827,1.199
1.569000,760780,1000.00,12,0,1,1226.471,-5.006,6.150,1029.574,0.044,1.159
1.570000,760781,1000.00,12,0,1,1225.006,-5.845,6.195,1032.336,2.215,1.175
1.571000,760782,1000.00,12,0,1,1235.479,4.077,6.220,1027.821,-0.747,1.165
1.572000,760783,1000.00,12,0,1,1242.085,11.430,6.427,1028.349,-2.349,1.209
1.573000,760784,1000.00,12,0,1,1238.866,6.962,6.475,1029.142,0.314,1.206
1.574000,760785,1000.00,12,0,1,1236.896,2.726,6.473,1028.974,-0.836,1.194
1.575000,760786,1000.00,12,0,1,1237.857,2.345,6.445,1029.382,0.133,1.175
1.576000,760787,1000.00,12,0,1,1243.022,4.676,6.257,1028.829,-0.454,1.143
1.577000,760788,1000.00,12,0,1,1245.015,5.525,5.978,1027.989,-1.174,1.155
1.578000,760789,1000.00,12,0,1,1243.094,1.065,5.783,1028.925,-0.300,1.135
1.579000,760790,1000.00,12,0,1,1239.563,-3.513,5.794,1027.100,-1.304,1.147
1.580000,760791,1000.00,12,0,1,1234.254,-9.089,5.658,1028.709,-0.559,1.147
1.581000,760792,1000.00,12,0,1,1237.473,-7.358,5.715,1030.919,2.188,1.188
1.582000,760793,1000.00,12,0,1,1238.434,-4.262,5.746,1031.856,2.577,1.241
1.583000,760794,1000.00,12,0,1,1236.704,-6.320,5.770,1029.190,0.351,1.242
1.584000,760795,1000.00,12,0,1,1230.531,-9.561,5.901,1029.646,-0.293,1.243
1.585000,760796,1000.00,12,0,1,1226.592,-12.489,6.159,1030.799,1.346,1.235
1.586000,760797,1000.00,12,0,1,1222.508,-12.363,6.331,1028.709,-0.538,1.237
1.587000,760798,1000.00,12,0,1,1218.304,-13.540,6.529,1029.742,-0.389,1.225
1.588000,760799,1000.00,12,0,1,1217.680,-10.794,6.692,1030.583,1.202,1.236
1.589000,760800,1000.00,12,0,1,1216.311,-8.183,6.661,1030.871,0.721,1.239
1.590000,760801,1000.00,12,0,1,1217.031,-5.536,6.646,1029.646,0.102,1.238
1.591000,760802,1000.00,12,0,1,1226.832,4.748,6.678,1029.502,-0.769,1.239
1.592000,760803,1000.00,12,0,1,1229.474,9.332,6.807,1029.982,0.134,1.159
1.593000,760804,1000.00,12,0,1,1226.231,4.947,6.831,1028.397,-1.224,1.156
1.594000,760805,1000.00,12,0,1,1233.173,9.010,6.893,1028.157,-1.665,1.180
1.595000,760806,1000.00,12,0,1,1237.041,12.740,7.073,1029.454,-0.129,1.176
1.596000,760807,1000.00,12,0,1,1239.058,10.754,7.235,1028.541,-0.612,1.176
1.597000,760808,1000.00,12,0,1,1239.851,9.912,7.337,1029.646,-0.107,1.164
1.598000,760809,1000.00,12,0,1,1241.869,8.206,7.380,1029.790,0.658,1.156
1.599000,760810,1000.00,12,0,1,1242.253,7.143,7.440,1028.974,-0.473,1.157
1.600000,760811,1000.00,12,0,1,1240.379,3.170,7.454,1030.030,0.373,1.157
1.601000,760812,1000.00,12,0,1,1237.545,-0.403,7.448,1029.934,0.611,1.134
1.602000,760813,1000.00,12,0,1,1238.962,-0.239,7.432,1030.151,0.291,1.125
1.603000,760814,1000.00,12,0,1,1237.641,-0.422,7.405,1031.015,1.205,1.131
1.604000,760815,1000.00,12,0,1,1238.122,-0.738,7.335,1031.328,1.208,1.142
1.605000,760816,1000.00,12,0,1,1239.443,1.554,7.282,1029.646,-0.184,1.114
1.606000,760817,1000.00,12,0,1,1235.816,-0.834,7.241,1029.142,-1.141,1.070
1.607000,760818,1000.00,12,0,1,1232.645,-3.605,7.235,1029.790,-0.207,1.070
1.608000,760819,1000.00,12,0,1,1230.219,-4.081,7.255,1028.613,-0.992,1.077
1.609000,760820,1000.00,12,0,1,1231.059,-2.967,7.205,1027.100,-2.335,1.123
1.610000,760821,1000.00,12,0,1,1234.735,1.585,6.909,1028.829,-0.756,1.124
1.611000,760822,1000.00,12,0,1,1233.630,1.195,6.710,1028.229,-0.349,1.123
