# FW/GUI: v9.6.1-multi17-dual (PyQt5)
# StartTime: 2026-04-03 16:27:36
# Slot: 13
# DeviceID: 13
# Label: EMG13
# IP: 192.168.137.206
# TCP: 3333
# DeviceFW: EMG_FW_v9.6_MULTI17_DUALCH_RUNTIMECFG_CHEN
# EMG column notes: EMG_t_s=seconds since this Start; sample_idx=device sample index (ADS frame index); fs=sample rate (SPS); gain=gain; flags=0x01(TEST) 0x02(SHORT) 0x04(RLD); emg_valid=1 valid / 0 invalid (spike-guard decision); ch1_raw_uV=raw uV (after spike guard); ch1_filt_uV=filtered uV; ch1_env_uV=envelope (RMS) uV
EMG_t_s,sample_idx,fs,gain,flags,emg_valid,ch1_raw_uV,ch1_filt_uV,ch1_env_uV,ch2_raw_uV,ch2_filt_uV,ch2_env_uV
0.000000,1110411,1000.00,12,0,1,893.761,1.060,6.286,1104.134,-1.306,1.145
0.001000,1110412,1000.00,12,0,1,888.477,-7.658,6.360,1103.894,-1.912,1.171
0.002000,1110413,1000.00,12,0,1,892.944,-4.007,6.288,1104.543,-0.690,1.165
0.003000,1110414,1000.00,12,0,1,895.923,-1.045,6.260,1104.422,-0.596,1.166
0.004000,1110415,1000.00,12,0,1,896.980,-0.717,6.237,1104.446,-0.538,1.163
0.005000,1110416,1000.00,12,0,1,897.388,-0.083,6.086,1106.200,1.034,1.165
0.006000,1110417,1000.00,12,0,1,894.073,-2.363,6.093,1106.752,1.680,1.186
0.007000,1110418,1000.00,12,0,1,894.194,-2.026,6.092,1105.071,0.053,1.185
0.008000,1110419,1000.00,12,0,1,895.323,0.988,6.051,1104.182,-1.144,1.190
0.009000,1110420,1000.00,12,0,1,894.410,1.358,6.053,1105.720,0.281,1.162
0.010000,1110421,1000.00,12,0,1,892.440,0.854,6.004,1106.104,0.870,1.165
0.011000,1110422,1000.00,12,0,1,885.426,-3.462,5.971,1105.479,0.067,1.155
0.012000,1110423,1000.00,12,0,1,887.732,-1.957,5.960,1106.752,0.849,1.136
0.013000,1110424,1000.00,12,0,1,894.266,6.310,5.962,1105.095,-0.043,1.136
0.014000,1110425,1000.00,12,0,1,888.597,1.973,5.921,1106.176,-0.188,1.075
0.015000,1110426,1000.00,12,0,1,882.568,-5.074,5.944,1104.062,-0.684,1.069
0.016000,1110427,1000.00,12,0,1,882.904,-4.574,5.973,1103.774,-2.159,1.110
0.017000,1110428,1000.00,12,0,1,885.018,-2.768,5.984,1105.696,0.560,1.104
0.018000,1110429,1000.00,12,0,1,889.654,0.477,5.982,1107.233,1.702,1.130
0.019000,1110430,1000.00,12,0,1,899.646,7.486,6.062,1105.888,0.810,1.132
0.020000,1110431,1000.00,12,0,1,901.640,8.460,6.114,1104.687,-0.770,1.134
0.021000,1110432,1000.00,12,0,1,899.118,2.426,6.108,1105.047,-0.361,1.135
0.022000,1110433,1000.00,12,0,1,900.223,1.338,6.108,1104.663,-0.317,1.116
0.023000,1110434,1000.00,12,0,1,899.550,-0.074,6.004,1104.086,-1.007,1.116
0.024000,1110435,1000.00,12,0,1,899.382,-1.538,5.964,1106.416,1.036,1.119
0.025000,1110436,1000.00,12,0,1,896.812,-2.939,5.971,1106.584,1.605,1.109
0.026000,1110437,1000.00,12,0,1,896.043,-3.892,5.926,1104.759,-0.416,1.102
0.027000,1110438,1000.00,12,0,1,895.443,-2.285,5.001,1106.800,0.774,1.107
0.028000,1110439,1000.00,12,0,1,893.233,-2.984,4.946,1103.726,-0.709,1.104
0.029000,1110440,1000.00,12,0,1,892.536,-1.896,4.925,1103.822,-2.276,1.150
0.030000,1110441,1000.00,12,0,1,889.317,-2.344,4.930,1104.326,-0.241,1.145
0.031000,1110442,1000.00,12,0,1,887.756,-2.746,4.808,1104.230,-1.010,1.151
0.032000,1110443,1000.00,12,0,1,890.518,1.402,4.667,1104.807,0.011,1.150
0.033000,1110444,1000.00,12,0,1,895.923,6.650,4.756,1105.984,0.865,1.154
0.034000,1110445,1000.00,12,0,1,899.382,9.688,4.869,1106.632,1.495,1.122
0.035000,1110446,1000.00,12,0,1,891.864,2.518,4.856,1104.062,-0.561,1.033
0.036000,1110447,1000.00,12,0,1,884.273,-6.713,4.945,1104.663,-0.957,1.002
0.037000,1110448,1000.00,12,0,1,882.568,-8.284,5.062,1105.888,1.111,1.012
0.038000,1110449,1000.00,12,0,1,887.083,-4.876,5.107,1107.425,1.742,1.032
0.039000,1110450,1000.00,12,0,1,896.355,2.892,5.110,1105.888,1.072,1.037
0.040000,1110451,1000.00,12,0,1,904.643,8.875,5.086,1106.488,0.330,1.037
0.041000,1110452,1000.00,12,0,1,905.291,7.474,4.962,1107.737,2.086,1.076
0.042000,1110453,1000.00,12,0,1,898.709,-0.693,4.818,1106.969,0.947,1.031
0.043000,1110454,1000.00,12,0,1,894.121,-6.652,4.886,1106.608,0.290,1.022
0.044000,1110455,1000.00,12,0,1,893.521,-6.688,4.976,1107.137,0.676,1.018
0.045000,1110456,1000.00,12,0,1,902.601,1.040,4.930,1105.888,-0.388,1.014
0.046000,1110457,1000.00,12,0,1,896.716,-0.045,4.849,1106.680,-0.199,1.013
0.047000,1110458,1000.00,12,0,1,896.764,-3.209,4.751,1104.927,-1.023,1.022
0.048000,1110459,1000.00,12,0,1,896.235,1.121,4.523,1102.813,-3.354,1.126
0.049000,1110460,1000.00,12,0,1,889.678,-4.572,4.351,1106.536,-0.164,1.126
0.050000,1110461,1000.00,12,0,1,891.912,-1.398,4.353,1105.744,0.558,1.113
0.051000,1110462,1000.00,12,0,1,898.637,6.829,4.326,1105.431,-1.111,1.091
0.052000,1110463,1000.00,12,0,1,899.334,8.073,4.438,1107.425,1.346,1.103
0.053000,1110464,1000.00,12,0,1,897.364,5.750,4.509,1106.056,0.088,1.100
0.054000,1110465,1000.00,12,0,1,896.307,3.604,4.537,1106.272,-0.366,1.099
0.055000,1110466,1000.00,12,0,1,893.641,0.977,4.539,1104.398,-1.210,1.102
0.056000,1110467,1000.00,12,0,1,885.210,-7.156,4.638,1105.407,-1.296,1.092
0.057000,1110468,1000.00,12,0,1,884.153,-9.551,4.823,1106.104,0.511,1.094
0.058000,1110469,1000.00,12,0,1,889.582,-4.104,4.855,1108.194,1.413,1.101
0.059000,1110470,1000.00,12,0,1,898.085,2.519,4.865,1108.410,2.335,1.148
0.060000,1110471,1000.00,12,0,1,901.256,4.825,4.911,1107.305,0.489,1.144
0.061000,1110472,1000.00,12,0,1,905.267,5.143,4.940,1105.984,-0.571,1.147
0.062000,1110473,1000.00,12,0,1,904.234,3.623,4.959,1104.903,-1.606,1.163
0.063000,1110474,1000.00,12,0,1,902.337,-0.756,4.879,1104.807,-1.552,1.183
0.064000,1110475,1000.00,12,0,1,902.385,-0.982,4.873,1105.888,-0.283,1.184
0.065000,1110476,1000.00,12,0,1,901.039,-2.001,4.828,1108.386,1.789,1.206
0.066000,1110477,1000.00,12,0,1,902.000,-1.184,4.788,1106.200,0.609,1.170
0.067000,1110478,1000.00,12,0,1,900.847,-0.290,4.772,1106.104,-0.857,1.174
0.068000,1110479,1000.00,12,0,1,903.033,1.370,4.775,1106.584,0.542,1.152
0.069000,1110480,1000.00,12,0,1,896.716,-0.742,4.658,1106.272,-0.315,1.147
0.070000,1110481,1000.00,12,0,1,886.987,-9.512,4.698,1105.936,-0.347,1.143
0.071000,1110482,1000.00,12,0,1,885.906,-8.132,4.825,1104.783,-1.375,1.158
0.072000,1110483,1000.00,12,0,1,890.590,-1.583,4.826,1103.990,-2.039,1.192
0.073000,1110484,1000.00,12,0,1,891.167,1.167,4.829,1104.831,-1.070,1.194
0.074000,1110485,1000.00,12,0,1,892.872,2.206,4.834,1106.008,0.199,1.185
0.075000,1110486,1000.00,12,0,1,892.848,2.724,4.832,1107.665,1.620,1.185
0.076000,1110487,1000.00,12,0,1,906.372,11.101,5.050,1107.209,1.315,1.198
0.077000,1110488,1000.00,12,0,1,910.600,15.889,5.518,1107.017,0.560,1.196
0.078000,1110489,1000.00,12,0,1,886.867,-7.711,5.609,1107.497,0.982,1.200
0.079000,1110490,1000.00,12,0,1,889.966,-12.114,5.859,1105.984,-0.259,1.156
0.080000,1110491,1000.00,12,0,1,895.323,-1.644,5.854,1105.816,-0.889,1.163
0.081000,1110492,1000.00,12,0,1,899.790,-2.210,5.849,1105.383,-0.638,1.157
0.082000,1110493,1000.00,12,0,1,899.694,0.251,5.846,1104.422,-1.604,1.179
0.083000,1110494,1000.00,12,0,1,898.950,-3.328,5.789,1103.293,-2.073,1.209
0.084000,1110495,1000.00,12,0,1,900.967,-0.529,5.625,1106.704,0.543,1.193
0.085000,1110496,1000.00,12,0,1,904.282,2.268,5.623,1107.161,2.201,1.230
0.086000,1110497,1000.00,12,0,1,901.736,1.170,5.545,1106.632,0.676,1.227
0.087000,1110498,1000.00,12,0,1,899.742,-0.628,5.420,1106.512,0.866,1.223
0.088000,1110499,1000.00,12,0,1,895.995,-2.140,5.385,1105.551,-0.216,1.198
0.089000,1110500,1000.00,12,0,1,896.235,-1.093,5.372,1106.368,0.189,1.189
0.090000,1110501,1000.00,12,0,1,893.305,-0.969,5.225,1106.080,0.411,1.189
0.091000,1110502,1000.00,12,0,1,890.422,-2.691,5.131,1106.296,-0.057,1.152
0.092000,1110503,1000.00,12,0,1,886.627,-3.953,5.160,1107.425,1.200,1.157
0.093000,1110504,1000.00,12,0,1,886.651,-3.199,5.094,1106.969,0.595,1.159
0.094000,1110505,1000.00,12,0,1,892.248,2.571,5.018,1106.056,-0.411,1.157
0.095000,1110506,1000.00,12,0,1,893.473,4.651,5.059,1105.864,-0.705,1.160
0.096000,1110507,1000.00,12,0,1,896.019,4.423,5.098,1107.329,0.499,1.161
0.097000,1110508,1000.00,12,0,1,899.046,6.522,5.161,1107.209,0.725,1.157
0.098000,1110509,1000.00,12,0,1,899.046,3.956,5.188,1107.185,0.180,1.056
0.099000,1110510,1000.00,12,0,1,896.235,-0.171,5.148,1107.065,0.300,1.056
0.100000,1110511,1000.00,12,0,1,902.168,1.721,5.150,1106.440,-0.433,1.055
0.101000,1110512,1000.00,12,0,1,906.516,5.713,5.123,1106.248,-0.560,1.046
0.102000,1110513,1000.00,12,0,1,908.750,4.613,5.036,1105.311,-1.114,1.041
0.103000,1110514,1000.00,12,0,1,908.654,3.660,4.997,1107.545,0.412,1.042
0.104000,1110515,1000.00,12,0,1,901.832,-3.173,4.991,1108.194,1.816,1.072
0.105000,1110516,1000.00,12,0,1,893.449,-10.745,5.216,1107.978,0.815,1.065
0.106000,1110517,1000.00,12,0,1,896.884,-7.078,5.213,1107.881,0.858,1.056
0.107000,1110518,1000.00,12,0,1,900.439,-0.385,5.036,1107.209,-0.040,1.053
0.108000,1110519,1000.00,12,0,1,896.788,-1.948,5.010,1105.984,-1.108,1.046
0.109000,1110520,1000.00,12,0,1,894.194,-3.203,5.018,1104.807,-2.108,1.036
0.110000,1110521,1000.00,12,0,1,891.719,-2.846,4.987,1104.615,-2.141,1.077
0.111000,1110522,1000.00,12,0,1,894.506,0.145,4.934,1106.560,-0.248,1.075
0.112000,1110523,1000.00,12,0,1,895.154,3.353,4.930,1106.921,0.535,1.053
0.113000,1110524,1000.00,12,0,1,892.104,0.279,4.929,1106.392,-0.230,1.031
0.114000,1110525,1000.00,12,0,1,891.311,-0.344,4.927,1106.176,-0.399,1.032
0.115000,1110526,1000.00,12,0,1,889.293,-1.872,4.926,1106.296,-0.300,1.001
0.116000,1110527,1000.00,12,0,1,891.023,-1.577,4.929,1105.095,-1.104,1.009
0.117000,1110528,1000.00,12,0,1,894.482,1.449,4.933,1104.687,-1.590,1.027
0.118000,1110529,1000.00,12,0,1,901.015,5.011,4.980,1106.945,0.518,1.027
0.119000,1110530,1000.00,12,0,1,905.291,7.717,5.097,1106.296,0.655,1.030
0.120000,1110531,1000.00,12,0,1,907.549,6.478,5.001,1106.488,0.021,1.029
0.121000,1110532,1000.00,12,0,1,914.155,9.330,5.042,1106.056,0.362,1.012
0.122000,1110533,1000.00,12,0,1,909.327,4.524,5.078,1104.999,-0.961,0.979
0.123000,1110534,1000.00,12,0,1,900.487,-6.626,5.161,1105.455,-0.337,0.968
0.124000,1110535,1000.00,12,0,1,899.358,-7.502,5.260,1107.785,1.681,0.997
0.125000,1110536,1000.00,12,0,1,900.727,-4.889,5.291,1108.170,2.316,1.024
0.126000,1110537,1000.00,12,0,1,902.264,-2.129,5.062,1107.857,1.437,1.027
0.127000,1110538,1000.00,12,0,1,903.802,0.726,4.537,1105.816,-0.238,1.025
0.128000,1110539,1000.00,12,0,1,902.601,1.138,4.406,1104.302,-1.965,1.053
0.129000,1110540,1000.00,12,0,1,901.256,0.806,4.061,1104.687,-1.369,1.070
0.130000,1110541,1000.00,12,0,1,905.483,4.980,4.115,1106.584,0.475,1.064
0.131000,1110542,1000.00,12,0,1,902.889,4.753,4.158,1106.032,0.411,1.062
0.132000,1110543,1000.00,12,0,1,899.022,-0.091,4.158,1105.263,-0.687,1.042
0.133000,1110544,1000.00,12,0,1,896.932,-1.083,4.134,1104.591,-1.008,1.010
0.134000,1110545,1000.00,12,0,1,898.133,-0.799,4.135,1106.800,0.567,1.010
0.135000,1110546,1000.00,12,0,1,898.757,0.114,4.123,1105.575,0.397,0.963
0.136000,1110547,1000.00,12,0,1,897.244,-2.281,4.132,1105.840,-0.456,0.960
0.137000,1110548,1000.00,12,0,1,898.325,-2.701,4.149,1106.897,1.140,0.966
0.138000,1110549,1000.00,12,0,1,899.334,-2.294,4.150,1106.368,0.417,0.967
0.139000,1110550,1000.00,12,0,1,899.430,-3.659,4.180,1107.689,1.146,0.980
0.140000,1110551,1000.00,12,0,1,904.907,-0.304,4.177,1107.209,1.213,0.994
0.141000,1110552,1000.00,12,0,1,906.636,1.198,4.164,1106.440,-0.243,0.994
0.142000,1110553,1000.00,12,0,1,915.572,5.794,4.206,1105.167,-0.841,0.987
0.143000,1110554,1000.00,12,0,1,913.194,5.479,4.253,1105.599,-0.972,0.993
0.144000,1110555,1000.00,12,0,1,909.279,-1.910,4.246,1106.656,0.602,0.995
0.145000,1110556,1000.00,12,0,1,908.678,-1.112,4.198,1106.656,0.469,0.992
0.146000,1110557,1000.00,12,0,1,903.321,-4.987,4.211,1103.534,-1.846,1.023
0.147000,1110558,1000.00,12,0,1,900.367,-6.847,4.221,1104.615,-1.658,1.045
0.148000,1110559,1000.00,12,0,1,900.847,-3.689,4.216,1105.864,0.640,1.048
0.149000,1110560,1000.00,12,0,1,901.256,-1.520,4.221,1104.567,-0.687,1.052
0.150000,1110561,1000.00,12,0,1,901.424,0.716,4.216,1105.575,-0.062,1.050
0.151000,1110562,1000.00,12,0,1,902.793,2.598,4.154,1106.464,1.214,1.061
0.152000,1110563,1000.00,12,0,1,898.805,0.910,4.104,1105.335,-0.044,1.050
0.153000,1110564,1000.00,12,0,1,895.755,-2.704,4.089,1105.792,0.097,1.048
0.154000,1110565,1000.00,12,0,1,894.170,-2.853,4.085,1105.455,0.071,1.016
0.155000,1110566,1000.00,12,0,1,893.329,-3.926,3.832,1104.663,-0.838,1.016
0.156000,1110567,1000.00,12,0,1,891.912,-4.700,3.758,1106.752,0.755,1.015
0.157000,1110568,1000.00,12,0,1,895.683,-2.569,3.775,1108.050,2.297,1.066
0.158000,1110569,1000.00,12,0,1,898.613,0.402,3.766,1107.449,1.269,1.069
0.159000,1110570,1000.00,12,0,1,897.677,-1.742,3.746,1105.864,-0.227,1.027
0.160000,1110571,1000.00,12,0,1,899.070,-1.987,3.735,1105.047,-1.234,0.997
0.161000,1110572,1000.00,12,0,1,899.718,-1.450,3.741,1104.927,-1.035,1.007
0.162000,1110573,1000.00,12,0,1,906.756,2.730,3.731,1106.152,0.029,1.004
0.163000,1110574,1000.00,12,0,1,911.128,7.632,3.883,1104.470,-0.722,1.009
0.164000,1110575,1000.00,12,0,1,912.017,6.320,3.985,1107.329,0.731,1.013
0.165000,1110576,1000.00,12,0,1,909.254,4.109,4.018,1105.551,0.880,1.019
0.166000,1110577,1000.00,12,0,1,909.110,2.704,4.030,1106.056,-0.497,1.010
0.167000,1110578,1000.00,12,0,1,910.383,4.975,4.086,1105.792,0.725,0.990
0.168000,1110579,1000.00,12,0,1,910.047,5.020,4.086,1103.750,-1.787,1.019
0.169000,1110580,1000.00,12,0,1,908.198,3.934,3.977,1104.543,-1.001,1.024
0.170000,1110581,1000.00,12,0,1,909.038,4.760,3.928,1106.656,1.230,1.039
0.171000,1110582,1000.00,12,0,1,905.844,3.122,3.726,1108.098,2.239,1.085
0.172000,1110583,1000.00,12,0,1,902.961,-0.070,3.671,1106.752,1.213,1.090
0.173000,1110584,1000.00,12,0,1,902.481,-0.078,3.549,1106.056,-0.402,1.091
0.174000,1110585,1000.00,12,0,1,897.268,-3.953,3.433,1105.311,-0.544,1.067
0.175000,1110586,1000.00,12,0,1,906.997,1.597,3.370,1105.527,-0.934,1.024
0.176000,1110587,1000.00,12,0,1,914.179,10.072,3.646,1106.680,0.494,1.006
0.177000,1110588,1000.00,12,0,1,902.889,-2.428,3.661,1106.584,0.322,1.007
0.178000,1110589,1000.00,12,0,1,912.041,-0.101,3.657,1107.545,0.837,0.975
0.179000,1110590,1000.00,12,0,1,924.219,12.183,4.041,1108.338,1.639,0.983
0.180000,1110591,1000.00,12,0,1,901.544,-8.645,4.163,1108.818,1.601,1.007
0.181000,1110592,1000.00,12,0,1,902.649,-15.557,4.660,1106.536,-0.179,1.005
0.182000,1110593,1000.00,12,0,1,912.713,-0.952,4.662,1107.665,-0.236,1.001
0.183000,1110594,1000.00,12,0,1,912.858,-2.719,4.676,1108.866,1.678,1.019
0.184000,1110595,1000.00,12,0,1,908.366,-5.503,4.738,1108.818,0.989,1.025
0.185000,1110596,1000.00,12,0,1,907.477,-6.705,4.832,1106.873,-0.477,1.026
0.186000,1110597,1000.00,12,0,1,906.756,-4.906,4.871,1106.008,-1.757,1.054
0.187000,1110598,1000.00,12,0,1,906.204,-3.871,4.887,1106.224,-1.150,1.054
0.188000,1110599,1000.00,12,0,1,903.153,-4.192,4.912,1104.134,-2.498,1.110
0.189000,1110600,1000.00,12,0,1,901.208,-4.048,4.918,1105.191,-2.047,1.136
0.190000,1110601,1000.00,12,0,1,901.880,-1.530,4.923,1105.768,-0.344,1.124
0.191000,1110602,1000.00,12,0,1,900.151,-0.475,4.920,1106.224,-0.506,1.125
0.192000,1110603,1000.00,12,0,1,897.244,-2.389,4.863,1105.648,-0.358,1.120
0.193000,1110604,1000.00,12,0,1,895.563,-2.347,4.813,1105.191,-1.223,1.125
0.194000,1110605,1000.00,12,0,1,895.875,-1.757,4.812,1106.368,0.011,1.122
0.195000,1110606,1000.00,12,0,1,899.814,2.015,4.817,1106.248,0.144,1.120
0.196000,1110607,1000.00,12,0,1,900.007,2.293,4.777,1105.167,-1.009,1.098
0.197000,1110608,1000.00,12,0,1,901.784,1.812,4.684,1104.903,-1.144,1.085
0.198000,1110609,1000.00,12,0,1,905.964,4.481,4.698,1105.215,-0.734,1.086
0.199000,1110610,1000.00,12,0,1,910.960,6.712,4.788,1104.134,-1.206,1.096
0.200000,1110611,1000.00,12,0,1,921.025,12.612,5.109,1105.599,-0.300,1.096
0.201000,1110612,1000.00,12,0,1,922.322,12.452,5.391,1106.416,1.287,1.098
0.202000,1110613,1000.00,12,0,1,915.788,2.795,5.404,1107.065,1.325,1.114
0.203000,1110614,1000.00,12,0,1,909.399,-4.307,5.425,1107.497,1.954,1.148
0.204000,1110615,1000.00,12,0,1,903.033,-9.809,5.585,1107.137,1.324,1.163
0.205000,1110616,1000.00,12,0,1,899.526,-11.631,5.796,1106.584,0.721,1.161
0.206000,1110617,1000.00,12,0,1,903.946,-5.764,5.815,1105.263,-0.373,1.157
0.207000,1110618,1000.00,12,0,1,906.420,-0.158,5.803,1106.392,0.201,1.111
0.208000,1110619,1000.00,12,0,1,907.045,1.491,5.807,1106.152,0.737,1.102
0.209000,1110620,1000.00,12,0,1,901.856,-0.585,5.802,1106.080,-0.004,1.101
0.210000,1110621,1000.00,12,0,1,898.517,-3.268,5.814,1106.849,0.976,1.096
0.211000,1110622,1000.00,12,0,1,905.147,3.785,5.835,1106.536,0.528,1.089
0.212000,1110623,1000.00,12,0,1,907.813,8.141,5.935,1106.296,0.087,1.089
0.213000,1110624,1000.00,12,0,1,908.942,7.295,5.926,1106.584,0.250,1.084
0.214000,1110625,1000.00,12,0,1,906.012,4.796,5.898,1105.912,-0.340,1.081
0.215000,1110626,1000.00,12,0,1,903.321,-0.198,5.869,1104.446,-1.671,1.099
0.216000,1110627,1000.00,12,0,1,905.075,0.448,5.857,1106.728,-0.109,1.097
0.217000,1110628,1000.00,12,0,1,906.924,0.828,5.816,1105.792,0.148,1.092
0.218000,1110629,1000.00,12,0,1,908.798,0.716,5.773,1106.008,-0.814,1.069
0.219000,1110630,1000.00,12,0,1,910.239,0.521,5.747,1106.248,0.287,1.060
0.220000,1110631,1000.00,12,0,1,910.960,-0.587,5.708,1105.479,-0.806,1.052
0.221000,1110632,1000.00,12,0,1,911.681,-1.112,5.693,1106.584,0.187,1.004
0.222000,1110633,1000.00,12,0,1,910.071,-3.113,5.710,1107.185,1.038,1.000
0.223000,1110634,1000.00,12,0,1,911.849,-2.440,5.720,1108.290,1.528,1.021
0.224000,1110635,1000.00,12,0,1,917.325,2.775,5.706,1106.608,0.592,1.022
0.225000,1110636,1000.00,12,0,1,920.400,5.843,5.762,1105.095,-1.534,1.036
0.226000,1110637,1000.00,12,0,1,917.013,3.055,5.599,1106.344,-0.075,1.034
0.227000,1110638,1000.00,12,0,1,910.287,-2.729,5.602,1107.689,1.235,1.048
0.228000,1110639,1000.00,12,0,1,907.189,-4.723,5.642,1105.431,-0.389,1.042
0.229000,1110640,1000.00,12,0,1,903.610,-5.265,5.424,1105.407,-1.178,1.030
0.230000,1110641,1000.00,12,0,1,902.793,-4.839,5.328,1105.792,-0.066,1.005
0.231000,1110642,1000.00,12,0,1,900.103,-4.226,4.889,1102.981,-2.389,1.060
0.232000,1110643,1000.00,12,0,1,901.832,-2.596,4.901,1104.543,-1.571,1.082
0.233000,1110644,1000.00,12,0,1,906.997,3.593,4.913,1107.065,1.664,1.082
0.234000,1110645,1000.00,12,0,1,907.477,4.034,4.884,1106.104,0.609,1.076
0.235000,1110646,1000.00,12,0,1,906.372,1.598,4.796,1105.648,-0.176,1.074
0.236000,1110647,1000.00,12,0,1,905.916,0.151,4.746,1104.374,-1.035,1.055
0.237000,1110648,1000.00,12,0,1,905.579,-1.588,4.720,1106.464,0.150,1.043
0.238000,1110649,1000.00,12,0,1,912.041,2.088,4.692,1105.864,0.684,0.986
0.239000,1110650,1000.00,12,0,1,919.415,7.555,4.778,1105.768,-0.468,0.945
0.240000,1110651,1000.00,12,0,1,923.739,8.751,4.930,1105.816,0.272,0.944
0.241000,1110652,1000.00,12,0,1,924.820,7.175,5.033,1103.726,-1.653,0.970
0.242000,1110653,1000.00,12,0,1,922.346,2.776,5.037,1103.366,-2.026,1.010
0.243000,1110654,1000.00,12,0,1,917.325,-3.025,5.045,1105.912,0.609,0.999
0.244000,1110655,1000.00,12,0,1,910.600,-8.779,5.189,1105.503,0.876,1.007
0.245000,1110656,1000.00,12,0,1,903.730,-13.483,5.521,1105.191,0.122,1.007
0.246000,1110657,1000.00,12,0,1,901.952,-12.729,5.798,1106.464,1.392,1.016
0.247000,1110658,1000.00,12,0,1,905.243,-6.542,5.866,1106.296,1.419,1.023
0.248000,1110659,1000.00,12,0,1,906.852,-1.748,5.837,1105.912,0.657,1.022
0.249000,1110660,1000.00,12,0,1,908.174,1.020,5.761,1107.041,1.561,1.031
0.250000,1110661,1000.00,12,0,1,912.281,5.924,5.541,1106.104,0.865,1.038
0.251000,1110662,1000.00,12,0,1,915.908,9.677,5.429,1107.425,1.188,1.035
0.252000,1110663,1000.00,12,0,1,908.462,3.745,5.441,1103.918,-0.865,1.026
0.253000,1110664,1000.00,12,0,1,903.994,-2.645,5.420,1103.894,-2.451,1.047
0.254000,1110665,1000.00,12,0,1,906.108,-0.226,5.239,1105.888,0.571,1.033
0.255000,1110666,1000.00,12,0,1,906.780,0.046,4.974,1107.017,1.098,1.040
0.256000,1110667,1000.00,12,0,1,911.609,2.455,4.919,1106.176,0.574,1.041
0.257000,1110668,1000.00,12,0,1,915.884,5.573,4.982,1106.128,-0.075,1.041
0.258000,1110669,1000.00,12,0,1,914.251,1.925,4.985,1106.584,0.404,1.037
0.259000,1110670,1000.00,12,0,1,917.205,1.585,4.989,1106.825,0.516,1.040
0.260000,1110671,1000.00,12,0,1,917.638,1.502,4.972,1106.176,-0.175,1.031
0.261000,1110672,1000.00,12,0,1,916.581,-1.685,4.949,1104.999,-1.144,1.041
0.262000,1110673,1000.00,12,0,1,916.821,-1.870,4.821,1104.879,-1.399,1.060
0.263000,1110674,1000.00,12,0,1,915.740,-2.839,4.726,1104.807,-0.912,1.067
0.264000,1110675,1000.00,12,0,1,916.821,-1.921,4.685,1105.888,-0.159,1.066
0.265000,1110676,1000.00,12,0,1,915.836,-1.137,4.688,1106.008,0.564,1.043
0.266000,1110677,1000.00,12,0,1,912.401,-3.440,4.712,1106.008,0.164,1.043
0.267000,1110678,1000.00,12,0,1,913.002,-1.672,4.717,1106.680,0.935,1.051
0.268000,1110679,1000.00,12,0,1,914.539,1.656,4.722,1108.314,2.052,1.084
0.269000,1110680,1000.00,12,0,1,914.779,2.976,4.740,1105.648,0.201,1.084
0.270000,1110681,1000.00,12,0,1,916.076,4.601,4.784,1104.302,-2.005,1.114
0.271000,1110682,1000.00,12,0,1,916.100,5.116,4.835,1104.951,-0.792,1.120
0.272000,1110683,1000.00,12,0,1,916.124,4.390,4.855,1106.128,0.166,1.110
0.273000,1110684,1000.00,12,0,1,909.206,-1.198,4.846,1107.953,1.767,1.117
0.274000,1110685,1000.00,12,0,1,904.883,-6.945,4.929,1106.825,0.970,1.123
0.275000,1110686,1000.00,12,0,1,906.804,-4.729,4.905,1103.726,-2.260,1.147
0.276000,1110687,1000.00,12,0,1,909.951,-2.198,4.896,1106.344,-0.450,1.149
0.277000,1110688,1000.00,12,0,1,912.281,-0.797,4.882,1105.623,0.203,1.136
0.278000,1110689,1000.00,12,0,1,912.257,-1.712,4.842,1105.263,-1.214,1.147
0.279000,1110690,1000.00,12,0,1,914.179,-1.775,4.791,1105.720,-0.065,1.135
0.280000,1110691,1000.00,12,0,1,915.692,-0.721,4.743,1105.383,-0.550,1.138
0.281000,1110692,1000.00,12,0,1,922.298,2.960,4.724,1107.137,0.823,1.093
0.282000,1110693,1000.00,12,0,1,936.086,14.017,5.110,1108.170,2.097,1.110
0.283000,1110694,1000.00,12,0,1,915.164,-1.462,5.088,1105.407,-0.496,1.087
0.284000,1110695,1000.00,12,0,1,911.681,-12.676,5.365,1103.726,-2.314,1.132
0.285000,1110696,1000.00,12,0,1,927.654,7.094,5.453,1103.726,-1.895,1.163
0.286000,1110697,1000.00,12,0,1,921.817,3.785,5.479,1104.927,-0.533,1.156
0.287000,1110698,1000.00,12,0,1,913.170,-5.493,5.529,1106.248,0.928,1.164
0.288000,1110699,1000.00,12,0,1,911.609,-4.414,5.557,1106.272,1.082,1.170
0.289000,1110700,1000.00,12,0,1,905.171,-7.651,5.559,1105.263,0.031,1.168
0.290000,1110701,1000.00,12,0,1,905.291,-6.348,5.494,1107.569,1.572,1.188
0.291000,1110702,1000.00,12,0,1,904.643,-3.469,5.421,1105.768,0.848,1.171
0.292000,1110703,1000.00,12,0,1,908.222,-0.234,5.407,1106.080,-0.301,1.136
0.293000,1110704,1000.00,12,0,1,908.150,1.921,5.397,1105.023,-0.094,1.133
0.294000,1110705,1000.00,12,0,1,912.593,3.693,5.278,1106.296,-0.169,1.126
0.295000,1110706,1000.00,12,0,1,919.944,10.034,5.122,1106.200,0.794,1.132
0.296000,1110707,1000.00,12,0,1,917.878,6.740,4.889,1105.672,-0.485,1.117
0.297000,1110708,1000.00,12,0,1,910.720,-2.610,4.815,1105.648,-0.233,1.099
0.298000,1110709,1000.00,12,0,1,910.119,-5.069,4.862,1105.744,-0.214,1.096
0.299000,1110710,1000.00,12,0,1,909.014,-5.952,4.932,1106.536,0.342,1.074
0.300000,1110711,1000.00,12,0,1,904.522,-10.019,5.063,1106.536,0.638,1.071
0.301000,1110712,1000.00,12,0,1,909.927,-6.206,4.953,1107.449,0.831,1.064
0.302000,1110713,1000.00,12,0,1,922.106,5.993,4.997,1105.407,-0.215,1.058
0.303000,1110714,1000.00,12,0,1,926.645,10.157,5.186,1103.558,-2.650,1.067
0.304000,1110715,1000.00,12,0,1,928.495,9.965,5.374,1104.735,-1.039,1.074
0.305000,1110716,1000.00,12,0,1,926.333,7.784,5.485,1104.639,-0.630,1.067
0.306000,1110717,1000.00,12,0,1,920.856,2.095,5.482,1105.263,-0.225,1.064
0.307000,1110718,1000.00,12,0,1,916.076,-1.683,5.431,1107.617,2.008,1.101
0.308000,1110719,1000.00,12,0,1,913.722,-2.653,5.437,1104.110,-0.412,1.101
0.309000,1110720,1000.00,12,0,1,915.404,0.107,5.432,1103.822,-1.975,1.134
0.310000,1110721,1000.00,12,0,1,913.866,0.886,5.429,1105.527,0.638,1.137
0.311000,1110722,1000.00,12,0,1,912.041,-0.735,5.425,1104.999,0.044,1.126
0.312000,1110723,1000.00,12,0,1,911.584,-0.138,5.419,1105.047,-0.071,1.108
0.313000,1110724,1000.00,12,0,1,913.818,1.431,5.408,1104.422,-0.309,1.101
0.314000,1110725,1000.00,12,0,1,915.812,3.220,5.420,1104.254,-0.778,1.107
0.315000,1110726,1000.00,12,0,1,917.277,2.985,5.434,1103.894,-0.617,1.107
0.316000,1110727,1000.00,12,0,1,918.502,2.549,5.424,1105.311,0.203,1.107
0.317000,1110728,1000.00,12,0,1,920.376,2.103,5.427,1107.017,2.141,1.140
0.318000,1110729,1000.00,12,0,1,923.283,2.571,5.434,1107.377,2.058,1.141
0.319000,1110730,1000.00,12,0,1,915.884,-4.399,5.454,1106.560,1.151,1.152
0.320000,1110731,1000.00,12,0,1,914.875,-8.871,5.558,1106.800,0.817,1.122
0.321000,1110732,1000.00,12,0,1,920.088,-2.922,5.526,1104.807,-0.529,1.119
0.322000,1110733,1000.00,12,0,1,923.042,-0.722,5.492,1103.942,-1.871,1.150
0.323000,1110734,1000.00,12,0,1,922.226,-1.077,5.492,1104.086,-1.102,1.133
0.324000,1110735,1000.00,12,0,1,918.815,-3.908,5.431,1105.311,-0.063,1.125
0.325000,1110736,1000.00,12,0,1,917.614,-4.366,5.425,1104.903,0.158,1.079
0.326000,1110737,1000.00,12,0,1,918.406,-1.814,5.422,1105.864,0.504,1.079
0.327000,1110738,1000.00,12,0,1,920.808,1.477,5.425,1105.143,0.505,1.081
0.328000,1110739,1000.00,12,0,1,922.754,4.816,5.462,1103.894,-1.039,1.077
0.329000,1110740,1000.00,12,0,1,921.889,4.661,5.496,1104.807,-0.185,1.078
0.330000,1110741,1000.00,12,0,1,919.920,3.275,5.515,1105.047,0.432,1.077
0.331000,1110742,1000.00,12,0,1,917.998,1.738,5.505,1104.807,-0.087,1.070
0.332000,1110743,1000.00,12,0,1,916.245,0.360,5.135,1104.903,0.141,1.029
0.333000,1110744,1000.00,12,0,1,917.782,1.185,5.134,1104.374,-0.405,1.028
0.334000,1110745,1000.00,12,0,1,916.485,0.440,4.811,1106.344,0.987,0.984
0.335000,1110746,1000.00,12,0,1,914.371,-2.881,4.723,1106.416,1.503,0.971
0.336000,1110747,1000.00,12,0,1,916.845,-1.636,4.698,1103.942,-1.108,0.980
0.337000,1110748,1000.00,12,0,1,920.712,1.013,4.636,1104.134,-1.286,0.989
0.338000,1110749,1000.00,12,0,1,923.259,1.784,4.601,1106.800,1.312,0.994
0.339000,1110750,1000.00,12,0,1,925.396,1.920,4.480,1106.104,1.069,1.005
0.340000,1110751,1000.00,12,0,1,927.678,2.154,4.400,1106.680,0.692,0.985
0.341000,1110752,1000.00,12,0,1,929.072,2.018,4.381,1105.527,0.342,0.979
0.342000,1110753,1000.00,12,0,1,927.654,-0.253,4.381,1104.831,-1.010,0.989
0.343000,1110754,1000.00,12,0,1,925.492,-2.858,4.392,1106.128,0.465,0.991
0.344000,1110755,1000.00,12,0,1,926.982,-1.695,4.367,1106.416,0.877,0.998
0.345000,1110756,1000.00,12,0,1,927.630,0.136,4.130,1106.368,0.568,0.995
0.346000,1110757,1000.00,12,0,1,930.008,2.194,4.031,1106.440,0.683,0.998
0.347000,1110758,1000.00,12,0,1,925.709,0.598,4.015,1106.632,0.591,1.001
0.348000,1110759,1000.00,12,0,1,921.193,-3.819,3.987,1107.329,1.142,1.013
0.349000,1110760,1000.00,12,0,1,924.940,0.765,3.898,1107.425,1.047,1.023
0.350000,1110761,1000.00,12,0,1,923.018,1.537,3.638,1107.905,1.102,1.031
0.351000,1110762,1000.00,12,0,1,914.659,-5.707,3.622,1106.272,-0.231,1.024
0.352000,1110763,1000.00,12,0,1,916.749,-4.074,3.568,1104.975,-1.909,1.059
0.353000,1110764,1000.00,12,0,1,913.410,-3.870,3.312,1103.342,-2.835,1.068
0.354000,1110765,1000.00,12,0,1,916.653,-3.348,3.034,1105.359,-1.486,1.079
0.355000,1110766,1000.00,12,0,1,921.505,2.923,2.857,1105.696,-0.036,1.075
0.356000,1110767,1000.00,12,0,1,916.509,-2.478,2.864,1104.951,-1.244,1.089
0.357000,1110768,1000.00,12,0,1,917.902,-3.798,2.904,1105.167,-0.772,1.057
0.358000,1110769,1000.00,12,0,1,921.337,-0.133,2.880,1108.170,1.555,1.078
0.359000,1110770,1000.00,12,0,1,922.778,-0.706,2.881,1106.873,1.169,1.054
0.360000,1110771,1000.00,12,0,1,922.226,-1.464,2.886,1106.464,-0.387,1.052
0.361000,1110772,1000.00,12,0,1,921.289,-3.562,2.928,1107.641,1.059,1.063
0.362000,1110773,1000.00,12,0,1,923.571,-1.640,2.937,1106.921,0.388,1.064
0.363000,1110774,1000.00,12,0,1,925.685,0.654,2.931,1104.446,-1.866,1.095
0.364000,1110775,1000.00,12,0,1,928.111,2.762,2.922,1104.326,-2.046,1.127
0.365000,1110776,1000.00,12,0,1,925.973,2.034,2.906,1105.095,-0.823,1.130
0.366000,1110777,1000.00,12,0,1,923.090,-0.624,2.884,1104.374,-1.000,1.139
0.367000,1110778,1000.00,12,0,1,919.535,-1.882,2.881,1104.302,-1.156,1.110
0.368000,1110779,1000.00,12,0,1,919.223,-1.377,2.865,1104.567,-0.366,1.072
0.369000,1110780,1000.00,12,0,1,918.911,0.804,2.799,1105.575,0.375,1.061
0.370000,1110781,1000.00,12,0,1,917.229,0.331,2.502,1106.632,1.596,1.079
0.371000,1110782,1000.00,12,0,1,914.971,-0.421,2.469,1107.089,1.691,1.102
0.372000,1110783,1000.00,12,0,1,912.065,-2.085,2.484,1105.239,0.161,1.070
0.373000,1110784,1000.00,12,0,1,913.098,-1.117,2.485,1105.960,-0.046,1.059
0.374000,1110785,1000.00,12,0,1,915.092,1.468,2.431,1105.864,0.567,1.062
0.375000,1110786,1000.00,12,0,1,918.214,3.091,2.392,1105.768,-0.184,1.062
0.376000,1110787,1000.00,12,0,1,921.697,5.335,2.495,1107.089,1.073,1.070
0.377000,1110788,1000.00,12,0,1,926.766,7.330,2.694,1105.912,0.223,1.068
0.378000,1110789,1000.00,12,0,1,927.150,6.252,2.752,1106.248,-0.242,1.059
0.379000,1110790,1000.00,12,0,1,925.252,1.428,2.679,1106.248,0.381,1.060
0.380000,1110791,1000.00,12,0,1,929.120,2.521,2.663,1107.617,0.829,1.065
0.381000,1110792,1000.00,12,0,1,931.714,4.098,2.714,1106.080,0.329,1.066
0.382000,1110793,1000.00,12,0,1,926.453,-1.618,2.723,1106.945,-0.140,1.066
0.383000,1110794,1000.00,12,0,1,921.985,-6.604,2.874,1106.056,0.261,1.065
0.384000,1110795,1000.00,12,0,1,925.613,-3.096,2.907,1106.608,-0.320,1.056
0.385000,1110796,1000.00,12,0,1,927.150,0.496,2.879,1107.209,1.005,1.044
0.386000,1110797,1000.00,12,0,1,923.451,-2.037,2.884,1104.567,-1.372,1.051
0.387000,1110798,1000.00,12,0,1,917.397,-5.713,2.992,1104.398,-1.971,1.072
0.388000,1110799,1000.00,12,0,1,918.887,-3.607,3.024,1105.239,-0.371,1.057
0.389000,1110800,1000.00,12,0,1,920.016,0.722,3.014,1105.215,-0.530,1.049
0.390000,1110801,1000.00,12,0,1,917.974,-0.283,2.999,1104.927,-0.429,1.046
0.391000,1110802,1000.00,12,0,1,916.100,-0.817,2.987,1105.287,-0.343,1.046
0.392000,1110803,1000.00,12,0,1,915.860,-0.492,2.988,1106.584,0.962,1.045
0.393000,1110804,1000.00,12,0,1,917.542,1.184,2.965,1107.065,1.291,1.059
0.394000,1110805,1000.00,12,0,1,918.478,2.019,2.969,1105.407,-0.211,1.052
0.395000,1110806,1000.00,12,0,1,920.304,2.215,2.986,1106.464,-0.005,1.049
0.396000,1110807,1000.00,12,0,1,921.721,2.587,2.992,1104.903,-0.486,1.047
0.397000,1110808,1000.00,12,0,1,921.985,0.920,2.994,1106.945,0.014,1.043
0.398000,1110809,1000.00,12,0,1,922.562,-0.104,2.944,1104.254,-0.616,1.034
0.399000,1110810,1000.00,12,0,1,923.883,-0.480,2.943,1104.326,-2.277,1.073
0.400000,1110811,1000.00,12,0,1,923.379,-1.696,2.945,1103.173,-1.406,1.080
0.401000,1110812,1000.00,12,0,1,923.787,-2.514,2.854,1104.903,-0.983,1.089
0.402000,1110813,1000.00,12,0,1,924.484,-1.753,2.807,1104.230,0.083,1.055
0.403000,1110814,1000.00,12,0,1,926.237,-0.391,2.753,1103.606,-1.239,0.991
0.404000,1110815,1000.00,12,0,1,926.309,0.575,2.714,1104.543,0.168,0.969
0.405000,1110816,1000.00,12,0,1,931.426,4.514,2.757,1106.656,2.053,1.011
0.406000,1110817,1000.00,12,0,1,944.205,15.863,3.537,1107.041,2.453,1.055
0.407000,1110818,1000.00,12,0,1,930.176,6.621,3.619,1106.536,1.717,1.077
0.408000,1110819,1000.00,12,0,1,907.213,-16.900,4.337,1105.455,0.405,1.056
0.409000,1110820,1000.00,12,0,1,912.353,-11.406,4.626,1107.329,1.653,1.069
0.410000,1110821,1000.00,12,0,1,916.437,-1.492,4.626,1106.440,1.271,1.082
0.411000,1110822,1000.00,12,0,1,915.980,-2.030,4.608,1106.560,0.425,1.073
0.412000,1110823,1000.00,12,0,1,916.797,0.605,4.603,1107.329,1.299,1.088
0.413000,1110824,1000.00,12,0,1,916.581,0.271,4.602,1107.065,0.761,1.061
0.414000,1110825,1000.00,12,0,1,916.461,0.087,4.585,1106.464,-0.067,1.020
0.415000,1110826,1000.00,12,0,1,919.199,1.457,4.581,1103.990,-1.990,1.052
0.416000,1110827,1000.00,12,0,1,922.442,3.419,4.606,1104.831,-1.933,1.078
0.417000,1110828,1000.00,12,0,1,919.271,-0.263,4.598,1104.302,-1.102,1.077
0.418000,1110829,1000.00,12,0,1,910.888,-9.197,4.775,1104.711,-1.487,1.096
0.419000,1110830,1000.00,12,0,1,918.406,-4.937,4.824,1107.305,1.419,1.113
0.420000,1110831,1000.00,12,0,1,926.141,4.071,4.858,1106.728,1.086,1.100
0.421000,1110832,1000.00,12,0,1,926.597,2.733,4.873,1107.137,0.694,1.079
0.422000,1110833,1000.00,12,0,1,928.015,2.860,4.881,1107.521,1.384,1.096
0.423000,1110834,1000.00,12,0,1,931.906,5.581,4.942,1107.041,0.468,1.098
0.424000,1110835,1000.00,12,0,1,931.113,5.011,4.988,1104.951,-1.101,1.106
0.425000,1110836,1000.00,12,0,1,927.414,1.290,4.972,1104.831,-1.718,1.132
0.426000,1110837,1000.00,12,0,1,925.637,-0.023,4.915,1105.455,-0.480,1.124
0.427000,1110838,1000.00,12,0,1,927.534,2.623,4.818,1105.792,-0.256,1.124
0.428000,1110839,1000.00,12,0,1,924.868,2.045,4.745,1106.416,0.409,1.125
0.429000,1110840,1000.00,12,0,1,920.400,-1.469,4.746,1104.206,-1.150,1.135
0.430000,1110841,1000.00,12,0,1,918.767,-1.824,4.739,1106.176,-0.350,1.130
0.431000,1110842,1000.00,12,0,1,924.508,3.619,4.731,1106.104,0.937,1.137
0.432000,1110843,1000.00,12,0,1,934.476,12.579,5.050,1105.696,-0.514,1.139
0.433000,1110844,1000.00,12,0,1,934.164,11.990,5.244,1106.152,0.425,1.140
0.434000,1110845,1000.00,12,0,1,928.015,3.121,5.244,1104.591,-1.005,1.148
0.435000,1110846,1000.00,12,0,1,927.991,0.610,5.245,1103.245,-2.270,1.184
0.436000,1110847,1000.00,12,0,1,927.294,-0.946,5.238,1105.816,-0.025,1.168
0.437000,1110848,1000.00,12,0,1,921.529,-7.459,5.282,1108.266,2.593,1.192
0.438000,1110849,1000.00,12,0,1,919.487,-10.819,5.476,1107.497,1.793,1.217
0.439000,1110850,1000.00,12,0,1,918.623,-10.854,5.686,1106.608,0.341,1.216
0.440000,1110851,1000.00,12,0,1,917.614,-11.623,5.918,1105.119,-0.728,1.219
0.441000,1110852,1000.00,12,0,1,919.824,-8.911,6.050,1105.071,-1.205,1.230
0.442000,1110853,1000.00,12,0,1,922.970,-4.869,6.089,1103.990,-1.341,1.237
0.443000,1110854,1000.00,12,0,1,922.250,-4.157,6.115,1104.687,-1.188,1.235
0.444000,1110855,1000.00,12,0,1,923.451,-2.707,6.120,1106.152,0.845,1.240
0.445000,1110856,1000.00,12,0,1,921.937,-1.730,6.117,1106.608,1.105,1.250
0.446000,1110857,1000.00,12,0,1,920.808,-2.095,6.113,1106.800,1.190,1.259
0.447000,1110858,1000.00,12,0,1,926.117,3.949,6.137,1105.119,-0.174,1.260
0.448000,1110859,1000.00,12,0,1,930.176,9.285,6.276,1106.344,0.158,1.257
0.449000,1110860,1000.00,12,0,1,927.438,7.206,6.358,1105.431,0.349,1.216
0.450000,1110861,1000.00,12,0,1,925.709,4.981,6.392,1105.407,-0.687,1.203
0.451000,1110862,1000.00,12,0,1,920.736,1.566,6.386,1105.648,0.272,1.196
0.452000,1110863,1000.00,12,0,1,914.107,-4.556,6.414,1107.449,1.145,1.207
0.453000,1110864,1000.00,12,0,1,917.061,-2.205,6.421,1105.239,0.080,1.194
0.454000,1110865,1000.00,12,0,1,920.376,2.327,6.429,1104.182,-1.981,1.226
0.455000,1110866,1000.00,12,0,1,919.703,0.780,6.398,1105.287,-0.361,1.193
0.456000,1110867,1000.00,12,0,1,924.388,3.284,6.010,1106.128,0.394,1.142
0.457000,1110868,1000.00,12,0,1,926.333,4.673,5.973,1106.176,0.443,1.118
0.458000,1110869,1000.00,12,0,1,924.460,0.699,5.475,1105.720,0.044,1.117
0.459000,1110870,1000.00,12,0,1,923.427,-1.669,5.238,1106.776,0.565,1.095
0.460000,1110871,1000.00,12,0,1,924.315,-2.021,5.241,1105.792,0.313,1.081
0.461000,1110872,1000.00,12,0,1,927.390,-0.016,5.233,1105.167,-0.974,1.088
0.462000,1110873,1000.00,12,0,1,927.895,0.468,5.233,1104.663,-0.761,1.078
0.463000,1110874,1000.00,12,0,1,935.701,5.340,5.287,1105.768,-0.219,1.073
0.464000,1110875,1000.00,12,0,1,934.644,6.470,5.366,1106.728,1.219,1.086
0.465000,1110876,1000.00,12,0,1,928.495,-1.291,5.365,1105.960,0.339,1.050
0.466000,1110877,1000.00,12,0,1,926.910,-1.883,5.350,1105.599,-0.150,1.014
0.467000,1110878,1000.00,12,0,1,928.015,-0.012,5.349,1105.575,-0.046,1.002
0.468000,1110879,1000.00,12,0,1,922.346,-2.773,5.204,1106.632,0.653,0.984
0.469000,1110880,1000.00,12,0,1,919.343,-5.331,5.212,1105.023,-0.202,0.964
0.470000,1110881,1000.00,12,0,1,918.550,-3.502,5.203,1105.383,-0.765,0.958
0.471000,1110882,1000.00,12,0,1,919.896,-1.372,5.193,1103.750,-1.081,0.965
0.472000,1110883,1000.00,12,0,1,918.647,-0.786,5.178,1105.648,-0.559,0.948
0.473000,1110884,1000.00,12,0,1,919.319,-0.565,5.118,1105.287,0.617,0.950
0.474000,1110885,1000.00,12,0,1,921.049,1.355,5.072,1105.455,-0.413,0.939
0.475000,1110886,1000.00,12,0,1,920.688,0.596,5.070,1105.696,0.543,0.910
0.476000,1110887,1000.00,12,0,1,922.009,0.257,5.070,1106.632,0.780,0.915
0.477000,1110888,1000.00,12,0,1,928.255,4.505,5.096,1106.608,1.030,0.925
0.478000,1110889,1000.00,12,0,1,930.897,5.719,5.152,1105.215,-0.409,0.925
0.479000,1110890,1000.00,12,0,1,934.500,5.853,5.214,1106.056,-0.138,0.911
0.480000,1110891,1000.00,12,0,1,938.512,7.588,5.317,1106.873,1.132,0.924
0.481000,1110892,1000.00,12,0,1,935.269,3.123,5.311,1105.599,-0.290,0.915
0.482000,1110893,1000.00,12,0,1,929.120,-4.345,5.041,1106.825,0.495,0.915
0.483000,1110894,1000.00,12,0,1,933.035,-2.100,4.757,1107.377,1.317,0.932
0.484000,1110895,1000.00,12,0,1,934.500,1.104,4.739,1107.689,1.135,0.935
0.485000,1110896,1000.00,12,0,1,928.231,-4.275,4.777,1105.071,-0.788,0.885
0.486000,1110897,1000.00,12,0,1,925.877,-6.003,4.850,1104.663,-1.912,0.925
0.487000,1110898,1000.00,12,0,1,923.883,-5.018,4.786,1106.224,0.123,0.850
0.488000,1110899,1000.00,12,0,1,923.427,-4.248,4.575,1107.089,0.894,0.821
0.489000,1110900,1000.00,12,0,1,923.307,-1.751,4.317,1107.065,0.809,0.827
0.490000,1110901,1000.00,12,0,1,923.499,-0.602,3.993,1104.999,-0.906,0.831
0.491000,1110902,1000.00,12,0,1,924.820,1.747,3.797,1104.807,-1.607,0.844
0.492000,1110903,1000.00,12,0,1,925.420,2.644,3.752,1106.008,0.002,0.823
0.493000,1110904,1000.00,12,0,1,922.466,0.158,3.706,1107.713,1.229,0.824
0.494000,1110905,1000.00,12,0,1,921.697,-1.615,3.693,1106.392,0.512,0.818
0.495000,1110906,1000.00,12,0,1,923.235,-0.452,3.686,1105.431,-1.155,0.820
0.496000,1110907,1000.00,12,0,1,924.820,0.077,3.674,1104.975,-1.082,0.817
0.497000,1110908,1000.00,12,0,1,925.949,-0.026,3.631,1103.846,-2.055,0.867
0.498000,1110909,1000.00,12,0,1,930.249,2.016,3.397,1106.344,-0.070,0.866
0.499000,1110910,1000.00,12,0,1,927.822,-0.228,3.241,1107.209,1.566,0.893
0.500000,1110911,1000.00,12,0,1,927.294,-3.384,3.200,1105.335,-0.565,0.891
0.501000,1110912,1000.00,12,0,1,931.882,0.649,3.193,1106.680,0.284,0.891
0.502000,1110913,1000.00,12,0,1,939.040,6.041,3.242,1107.785,1.692,0.909
0.503000,1110914,1000.00,12,0,1,941.154,7.832,3.412,1105.936,-0.066,0.909
0.504000,1110915,1000.00,12,0,1,936.758,2.906,3.421,1104.807,-1.373,0.886
0.505000,1110916,1000.00,12,0,1,935.965,0.992,3.422,1104.975,-0.935,0.894
0.506000,1110917,1000.00,12,0,1,930.753,-1.533,3.397,1105.840,-0.049,0.892
0.507000,1110918,1000.00,12,0,1,931.329,-2.156,3.346,1104.783,-0.502,0.893
0.508000,1110919,1000.00,12,0,1,939.713,7.324,3.501,1104.591,-1.011,0.904
0.509000,1110920,1000.00,12,0,1,953.933,18.783,4.389,1105.672,0.333,0.902
0.510000,1110921,1000.00,12,0,1,934.548,5.442,4.446,1106.897,1.359,0.921
0.511000,1110922,1000.00,12,0,1,921.385,-13.515,4.840,1108.506,2.571,0.981
0.512000,1110923,1000.00,12,0,1,920.424,-9.629,5.027,1106.897,1.266,0.991
0.513000,1110924,1000.00,12,0,1,919.271,-10.338,5.181,1104.567,-1.513,1.014
0.514000,1110925,1000.00,12,0,1,928.255,-2.042,5.108,1107.569,0.745,1.004
0.515000,1110926,1000.00,12,0,1,930.729,2.449,5.116,1106.416,0.801,1.010
0.516000,1110927,1000.00,12,0,1,925.925,-4.361,5.146,1106.128,-0.807,1.016
0.517000,1110928,1000.00,12,0,1,933.732,0.745,5.147,1106.248,0.127,1.016
0.518000,1110929,1000.00,12,0,1,934.356,2.066,5.141,1107.113,0.219,1.012
0.519000,1110930,1000.00,12,0,1,932.026,-3.062,5.103,1105.263,-0.662,1.016
0.520000,1110931,1000.00,12,0,1,930.585,-4.656,5.122,1106.416,-0.650,1.014
0.521000,1110932,1000.00,12,0,1,929.792,-5.997,5.188,1106.032,0.153,1.003
0.522000,1110933,1000.00,12,0,1,929.624,-5.736,5.250,1105.479,-1.017,1.010
0.523000,1110934,1000.00,12,0,1,931.257,-3.628,5.274,1106.728,0.365,1.008
0.524000,1110935,1000.00,12,0,1,931.978,-1.819,5.277,1106.056,0.159,1.006
0.525000,1110936,1000.00,12,0,1,933.732,0.560,5.277,1105.287,-0.958,1.013
0.526000,1110937,1000.00,12,0,1,933.395,1.723,5.282,1106.008,0.014,1.007
0.527000,1110938,1000.00,12,0,1,933.371,2.334,5.254,1105.407,-0.385,0.997
0.528000,1110939,1000.00,12,0,1,929.984,1.069,5.194,1104.807,-0.897,1.004
0.529000,1110940,1000.00,12,0,1,929.672,0.904,5.129,1105.263,-0.463,1.006
0.530000,1110941,1000.00,12,0,1,928.783,2.102,5.024,1103.894,-1.118,1.005
0.531000,1110942,1000.00,12,0,1,930.681,3.450,5.029,1105.239,-0.540,1.008
0.532000,1110943,1000.00,12,0,1,927.510,2.275,5.001,1106.416,1.345,1.023
0.533000,1110944,1000.00,12,0,1,925.949,-0.667,4.993,1106.464,0.871,1.013
0.534000,1110945,1000.00,12,0,1,927.390,1.024,4.993,1105.575,0.235,1.001
0.535000,1110946,1000.00,12,0,1,930.225,2.540,4.969,1106.008,0.115,0.995
0.536000,1110947,1000.00,12,0,1,929.624,1.432,4.900,1107.425,1.481,0.980
0.537000,1110948,1000.00,12,0,1,933.251,2.102,4.858,1105.167,-0.230,0.981
0.538000,1110949,1000.00,12,0,1,936.038,3.896,4.852,1103.942,-2.042,1.014
0.539000,1110950,1000.00,12,0,1,938.560,3.562,4.872,1105.191,-0.413,1.010
0.540000,1110951,1000.00,12,0,1,941.803,4.672,4.916,1106.320,0.676,1.006
0.541000,1110952,1000.00,12,0,1,944.325,5.106,4.962,1104.735,-0.310,0.981
0.542000,1110953,1000.00,12,0,1,938.920,-0.459,4.949,1105.191,-0.538,0.984
0.543000,1110954,1000.00,12,0,1,934.548,-5.972,5.020,1106.416,1.161,0.982
0.544000,1110955,1000.00,12,0,1,937.671,-2.872,5.031,1105.648,0.417,0.981
0.545000,1110956,1000.00,12,0,1,939.424,0.454,5.031,1106.296,0.615,0.972
0.546000,1110957,1000.00,12,0,1,932.555,-4.385,5.069,1104.975,0.030,0.959
0.547000,1110958,1000.00,12,0,1,926.790,-8.690,5.216,1105.551,-0.296,0.915
0.548000,1110959,1000.00,12,0,1,927.222,-6.123,5.280,1105.215,0.307,0.916
0.549000,1110960,1000.00,12,0,1,921.241,-7.512,5.386,1106.008,0.188,0.890
0.550000,1110961,1000.00,12,0,1,920.376,-7.914,5.480,1105.143,0.224,0.886
0.551000,1110962,1000.00,12,0,1,928.375,1.985,5.486,1105.359,-0.413,0.887
0.552000,1110963,1000.00,12,0,1,928.903,4.344,5.454,1104.591,-0.372,0.856
0.553000,1110964,1000.00,12,0,1,925.949,0.742,5.341,1103.510,-1.689,0.889
0.554000,1110965,1000.00,12,0,1,925.132,-0.190,5.326,1104.831,-0.440,0.870
0.555000,1110966,1000.00,12,0,1,929.048,2.068,5.332,1106.128,1.103,0.874
0.556000,1110967,1000.00,12,0,1,929.648,2.696,5.341,1107.449,1.825,0.911
0.557000,1110968,1000.00,12,0,1,929.312,0.071,5.332,1106.056,0.960,0.918
0.558000,1110969,1000.00,12,0,1,930.345,0.058,5.231,1103.582,-1.892,0.946
0.559000,1110970,1000.00,12,0,1,932.266,0.325,4.506,1105.263,-0.488,0.947
0.560000,1110971,1000.00,12,0,1,933.467,0.597,4.441,1106.464,1.167,0.942
0.561000,1110972,1000.00,12,0,1,937.046,2.382,4.023,1104.975,-0.224,0.869
0.562000,1110973,1000.00,12,0,1,940.169,4.797,3.846,1105.239,-0.355,0.852
0.563000,1110974,1000.00,12,0,1,942.691,5.941,3.655,1107.233,1.602,0.856
0.564000,1110975,1000.00,12,0,1,940.121,3.748,3.682,1107.857,2.156,0.902
0.565000,1110976,1000.00,12,0,1,935.197,-1.127,3.669,1106.897,1.012,0.906
0.566000,1110977,1000.00,12,0,1,935.077,-0.922,3.619,1106.128,0.005,0.899
0.567000,1110978,1000.00,12,0,1,934.332,0.442,3.618,1106.825,0.436,0.901
0.568000,1110979,1000.00,12,0,1,929.576,-2.612,3.625,1106.776,0.562,0.904
0.569000,1110980,1000.00,12,0,1,925.468,-4.847,3.664,1106.176,-0.243,0.900
0.570000,1110981,1000.00,12,0,1,923.763,-4.669,3.664,1104.735,-1.345,0.915
0.571000,1110982,1000.00,12,0,1,921.697,-4.465,3.620,1104.446,-1.794,0.949
0.572000,1110983,1000.00,12,0,1,924.003,-1.926,3.538,1104.350,-1.375,0.958
0.573000,1110984,1000.00,12,0,1,924.964,0.586,3.502,1103.894,-1.662,0.985
0.574000,1110985,1000.00,12,0,1,922.754,-1.835,3.502,1105.936,0.057,0.985
0.575000,1110986,1000.00,12,0,1,927.750,1.232,3.506,1106.296,1.005,0.986
0.576000,1110987,1000.00,12,0,1,932.507,5.504,3.583,1104.903,-0.658,0.991
0.577000,1110988,1000.00,12,0,1,933.179,3.868,3.609,1105.095,-0.565,0.992
0.578000,1110989,1000.00,12,0,1,936.470,4.343,3.658,1106.728,0.884,0.992
0.579000,1110990,1000.00,12,0,1,941.394,6.712,3.777,1105.119,-0.089,0.990
0.580000,1110991,1000.00,12,0,1,940.529,4.384,3.816,1104.639,-1.226,0.992
0.581000,1110992,1000.00,12,0,1,941.803,2.501,3.801,1106.008,0.422,0.991
0.582000,1110993,1000.00,12,0,1,944.157,4.052,3.830,1105.888,0.457,0.975
0.583000,1110994,1000.00,12,0,1,941.202,0.792,3.831,1106.536,0.678,0.972
0.584000,1110995,1000.00,12,0,1,944.709,2.221,3.841,1106.368,0.871,0.979
0.585000,1110996,1000.00,12,0,1,941.466,1.840,3.833,1106.464,0.458,0.981
0.586000,1110997,1000.00,12,0,1,936.662,-3.725,3.864,1105.551,0.054,0.959
0.587000,1110998,1000.00,12,0,1,941.202,1.536,3.858,1106.512,0.271,0.959
0.588000,1110999,1000.00,12,0,1,941.298,3.856,3.858,1108.434,2.323,0.972
0.589000,1111000,1000.00,12,0,1,932.603,-3.217,3.852,1107.425,1.327,0.988
0.590000,1111001,1000.00,12,0,1,931.666,-4.347,3.844,1106.969,0.243,0.984
0.591000,1111002,1000.00,12,0,1,931.137,-2.188,3.788,1105.431,-0.724,0.988
0.592000,1111003,1000.00,12,0,1,929.432,-3.681,3.823,1106.128,-0.834,0.992
0.593000,1111004,1000.00,12,0,1,934.380,0.533,3.730,1105.936,-0.146,0.979
0.594000,1111005,1000.00,12,0,1,932.579,0.205,3.707,1105.167,-1.332,0.995
0.595000,1111006,1000.00,12,0,1,933.563,-2.004,3.718,1105.383,-0.849,0.998
0.596000,1111007,1000.00,12,0,1,933.491,-1.313,3.670,1104.470,-1.406,1.018
0.597000,1111008,1000.00,12,0,1,925.541,-9.709,3.721,1104.927,-1.217,1.032
0.598000,1111009,1000.00,12,0,1,932.098,-6.493,3.734,1106.488,0.557,1.034
0.599000,1111010,1000.00,12,0,1,938.440,1.329,3.584,1104.687,-0.735,1.038
0.600000,1111011,1000.00,12,0,1,938.584,-0.659,3.406,1106.800,0.234,1.039
0.601000,1111012,1000.00,12,0,1,935.677,-3.202,3.425,1107.377,1.780,1.067
0.602000,1111013,1000.00,12,0,1,937.070,-3.307,3.401,1105.407,-0.654,1.070
0.603000,1111014,1000.00,12,0,1,933.395,-4.217,3.452,1105.335,-0.798,1.049
0.604000,1111015,1000.00,12,0,1,932.915,-5.309,3.532,1104.831,-0.809,1.053
0.605000,1111016,1000.00,12,0,1,937.118,0.871,3.522,1106.152,-0.022,1.042
0.606000,1111017,1000.00,12,0,1,935.821,1.768,3.511,1106.008,0.664,1.013
0.607000,1111018,1000.00,12,0,1,933.611,0.365,3.511,1106.368,0.263,1.005
0.608000,1111019,1000.00,12,0,1,931.257,0.486,3.512,1106.536,0.954,0.978
0.609000,1111020,1000.00,12,0,1,931.810,1.484,3.518,1108.146,1.674,1.004
0.610000,1111021,1000.00,12,0,1,927.102,0.220,3.517,1105.359,0.091,0.990
0.611000,1111022,1000.00,12,0,1,927.871,-0.297,3.501,1105.527,-1.177,1.004
0.612000,1111023,1000.00,12,0,1,927.582,2.221,3.449,1104.927,-0.373,1.004
0.613000,1111024,1000.00,12,0,1,921.625,-3.556,3.382,1104.374,-1.554,1.002
0.614000,1111025,1000.00,12,0,1,921.361,-4.217,3.393,1104.446,-0.864,0.963
0.615000,1111026,1000.00,12,0,1,927.534,1.415,3.396,1107.377,1.329,0.970
0.616000,1111027,1000.00,12,0,1,931.065,4.201,3.445,1105.768,0.829,0.977
0.617000,1111028,1000.00,12,0,1,931.474,2.905,3.469,1106.897,0.375,0.977
0.618000,1111029,1000.00,12,0,1,932.987,2.089,3.462,1107.569,1.825,1.007
0.619000,1111030,1000.00,12,0,1,940.481,6.550,3.517,1106.368,0.101,1.007
0.620000,1111031,1000.00,12,0,1,943.916,8.576,3.661,1106.296,-0.225,0.989
0.621000,1111032,1000.00,12,0,1,944.805,6.415,3.719,1105.623,-0.500,0.959
0.622000,1111033,1000.00,12,0,1,943.388,3.937,3.750,1105.888,-0.756,0.945
0.623000,1111034,1000.00,12,0,1,941.322,0.705,3.751,1105.479,-0.419,0.917
0.624000,1111035,1000.00,12,0,1,941.154,0.353,3.742,1106.512,-0.153,0.917
0.625000,1111036,1000.00,12,0,1,942.403,1.942,3.748,1106.488,0.640,0.911
0.626000,1111037,1000.00,12,0,1,942.475,2.748,3.687,1107.377,0.625,0.910
0.627000,1111038,1000.00,12,0,1,935.029,-2.130,3.659,1105.455,-0.184,0.907
0.628000,1111039,1000.00,12,0,1,928.015,-7.982,3.779,1106.969,-0.101,0.899
0.629000,1111040,1000.00,12,0,1,926.597,-6.746,3.780,1105.503,0.105,0.899
0.630000,1111041,1000.00,12,0,1,927.558,-3.688,3.766,1105.503,-1.189,0.898
0.631000,1111042,1000.00,12,0,1,927.438,-1.802,3.758,1105.768,0.099,0.896
0.632000,1111043,1000.00,12,0,1,929.912,0.657,3.715,1105.023,-0.859,0.902
0.633000,1111044,1000.00,12,0,1,931.017,2.425,3.729,1104.398,-1.209,0.913
0.634000,1111045,1000.00,12,0,1,930.705,1.040,3.719,1105.215,-0.409,0.906
0.635000,1111046,1000.00,12,0,1,933.611,2.176,3.722,1106.704,0.941,0.914
0.636000,1111047,1000.00,12,0,1,939.472,5.708,3.772,1107.809,1.996,0.956
0.637000,1111048,1000.00,12,0,1,954.197,14.960,4.319,1106.536,0.633,0.960
0.638000,1111049,1000.00,12,0,1,947.808,9.646,4.497,1103.053,-2.417,0.964
0.639000,1111050,1000.00,12,0,1,927.030,-14.183,4.903,1106.728,-0.258,0.946
0.640000,1111051,1000.00,12,0,1,932.675,-12.287,5.165,1106.680,1.618,0.973
0.641000,1111052,1000.00,12,0,1,940.025,-1.597,5.161,1107.233,0.281,0.969
0.642000,1111053,1000.00,12,0,1,940.409,-2.624,5.148,1107.401,1.501,0.984
0.643000,1111054,1000.00,12,0,1,941.058,-1.057,5.149,1104.687,-1.495,1.007
0.644000,1111055,1000.00,12,0,1,935.821,-4.592,5.190,1103.101,-2.839,1.067
0.645000,1111056,1000.00,12,0,1,933.347,-6.298,5.258,1104.615,-1.237,1.075
0.646000,1111057,1000.00,12,0,1,935.437,-1.914,5.262,1106.128,0.611,1.060
0.647000,1111058,1000.00,12,0,1,935.677,0.464,5.080,1105.696,0.510,1.048
0.648000,1111059,1000.00,12,0,1,932.458,-0.474,4.997,1105.864,0.250,1.046
0.649000,1111060,1000.00,12,0,1,928.591,-2.564,5.007,1104.230,-0.518,1.043
0.650000,1111061,1000.00,12,0,1,927.126,-2.325,5.017,1104.158,-1.243,1.058
0.651000,1111062,1000.00,12,0,1,930.993,1.941,5.004,1106.945,1.701,1.055
0.652000,1111063,1000.00,12,0,1,931.954,4.229,5.017,1107.617,2.400,1.104
0.653000,1111064,1000.00,12,0,1,932.290,3.212,5.003,1106.128,0.738,1.103
0.654000,1111065,1000.00,12,0,1,937.287,6.432,5.029,1105.071,-0.533,1.100
0.655000,1111066,1000.00,12,0,1,938.896,6.822,5.119,1105.335,-0.370,1.101
0.656000,1111067,1000.00,12,0,1,932.867,-0.587,5.114,1108.482,2.120,1.138
0.657000,1111068,1000.00,12,0,1,925.829,-8.731,5.260,1107.617,1.927,1.169
0.658000,1111069,1000.00,12,0,1,926.621,-9.218,5.419,1105.527,-0.948,1.169
0.659000,1111070,1000.00,12,0,1,939.593,1.666,5.420,1106.080,-0.476,1.147
0.660000,1111071,1000.00,12,0,1,944.229,7.012,5.510,1105.888,-0.351,1.148
0.661000,1111072,1000.00,12,0,1,942.379,2.579,5.522,1106.849,0.077,1.136
0.662000,1111073,1000.00,12,0,1,942.235,1.642,5.518,1106.080,0.023,1.135
0.663000,1111074,1000.00,12,0,1,939.160,-0.935,5.496,1105.840,-0.846,1.119
0.664000,1111075,1000.00,12,0,1,937.118,-2.888,5.479,1104.951,-0.928,1.120
0.665000,1111076,1000.00,12,0,1,943.964,3.701,5.501,1106.945,0.147,1.105
0.666000,1111077,1000.00,12,0,1,938.368,2.170,5.477,1106.344,0.736,1.103
0.667000,1111078,1000.00,12,0,1,933.299,-3.827,5.488,1106.296,-0.309,1.103
0.668000,1111079,1000.00,12,0,1,933.323,-0.933,5.482,1105.648,-0.126,1.073
0.669000,1111080,1000.00,12,0,1,929.024,-2.858,5.418,1105.575,-0.690,1.077
0.670000,1111081,1000.00,12,0,1,926.261,-4.398,5.317,1105.575,-0.261,1.077
0.671000,1111082,1000.00,12,0,1,924.700,-3.597,5.264,1107.209,0.861,1.082
0.672000,1111083,1000.00,12,0,1,925.324,-2.647,5.248,1106.584,0.767,1.082
0.673000,1111084,1000.00,12,0,1,928.399,1.023,5.249,1106.993,0.376,1.082
0.674000,1111085,1000.00,12,0,1,930.729,2.595,5.261,1103.221,-2.059,1.120
0.675000,1111086,1000.00,12,0,1,931.137,2.128,5.263,1103.582,-2.923,1.190
0.676000,1111087,1000.00,12,0,1,931.233,0.460,5.249,1105.047,-0.234,1.187
0.677000,1111088,1000.00,12,0,1,932.507,0.121,5.240,1106.584,0.692,1.191
0.678000,1111089,1000.00,12,0,1,935.077,0.821,5.118,1106.368,0.954,1.199
0.679000,1111090,1000.00,12,0,1,935.341,0.093,5.029,1105.551,-0.175,1.199
0.680000,1111091,1000.00,12,0,1,936.518,-0.556,5.002,1105.672,-0.169,1.187
0.681000,1111092,1000.00,12,0,1,936.758,-0.464,4.996,1106.656,0.811,1.193
0.682000,1111093,1000.00,12,0,1,936.518,-1.254,4.999,1107.449,1.328,1.201
0.683000,1111094,1000.00,12,0,1,934.812,-2.003,4.995,1103.462,-1.541,1.209
0.684000,1111095,1000.00,12,0,1,935.341,-1.221,4.996,1105.191,-1.496,1.226
0.685000,1111096,1000.00,12,0,1,936.590,1.554,4.991,1106.344,1.393,1.234
0.686000,1111097,1000.00,12,0,1,939.088,4.535,4.967,1106.176,0.207,1.202
0.687000,1111098,1000.00,12,0,1,934.548,2.686,4.510,1105.263,0.092,1.199
0.688000,1111099,1000.00,12,0,1,929.336,-1.945,4.307,1106.704,0.594,1.152
0.689000,1111100,1000.00,12,0,1,928.495,-1.017,3.814,1107.617,2.008,1.186
0.690000,1111101,1000.00,12,0,1,927.534,-0.168,3.396,1105.720,0.073,1.164
0.691000,1111102,1000.00,12,0,1,927.967,0.689,3.390,1106.344,-0.044,1.163
0.692000,1111103,1000.00,12,0,1,929.792,2.965,3.395,1104.927,-0.378,1.145
0.693000,1111104,1000.00,12,0,1,933.852,5.560,3.482,1106.296,-0.371,1.126
0.694000,1111105,1000.00,12,0,1,926.213,-0.300,3.421,1107.857,2.038,1.091
0.695000,1111106,1000.00,12,0,1,924.724,-5.655,3.399,1106.656,0.345,1.078
0.696000,1111107,1000.00,12,0,1,930.513,0.333,3.388,1104.206,-1.716,1.102
0.697000,1111108,1000.00,12,0,1,936.350,3.617,3.426,1105.575,-1.100,1.110
0.698000,1111109,1000.00,12,0,1,941.947,6.857,3.560,1105.792,0.069,1.110
0.699000,1111110,1000.00,12,0,1,945.886,7.927,3.715,1104.422,-1.491,1.127
0.700000,1111111,1000.00,12,0,1,942.931,3.373,3.731,1106.921,0.449,1.115
0.701000,1111112,1000.00,12,0,1,940.025,-1.643,3.728,1105.503,0.304,1.090
0.702000,1111113,1000.00,12,0,1,941.178,-1.360,3.684,1106.128,-0.535,1.038
0.703000,1111114,1000.00,12,0,1,942.115,-0.037,3.656,1108.074,2.122,1.076
0.704000,1111115,1000.00,12,0,1,941.346,-0.524,3.542,1107.593,1.203,1.087
0.705000,1111116,1000.00,12,0,1,940.121,-0.632,3.409,1106.296,-0.040,1.085
0.706000,1111117,1000.00,12,0,1,939.472,-0.336,3.409,1106.704,-0.052,1.043
0.707000,1111118,1000.00,12,0,1,939.857,1.393,3.183,1105.575,-0.555,1.010
0.708000,1111119,1000.00,12,0,1,941.754,3.867,2.955,1105.888,-0.771,1.007
0.709000,1111120,1000.00,12,0,1,937.118,1.570,2.954,1106.176,0.053,1.005
0.710000,1111121,1000.00,12,0,1,929.672,-5.159,2.877,1108.074,1.252,1.019
0.711000,1111122,1000.00,12,0,1,929.216,-4.947,2.938,1105.768,0.035,1.019
0.712000,1111123,1000.00,12,0,1,931.498,-1.523,2.937,1104.687,-1.970,1.056
0.713000,1111124,1000.00,12,0,1,934.356,0.838,2.936,1104.422,-1.352,1.067
0.714000,1111125,1000.00,12,0,1,938.031,3.437,2.948,1107.857,1.056,1.069
0.715000,1111126,1000.00,12,0,1,942.235,5.335,2.998,1107.617,1.936,1.104
0.716000,1111127,1000.00,12,0,1,942.475,3.883,3.032,1106.296,-0.340,1.100
0.717000,1111128,1000.00,12,0,1,941.706,0.217,2.984,1106.704,0.104,1.099
0.718000,1111129,1000.00,12,0,1,940.433,-2.491,3.001,1106.752,0.201,1.099
0.719000,1111130,1000.00,12,0,1,939.881,-4.724,3.048,1105.696,-0.870,1.102
0.720000,1111131,1000.00,12,0,1,947.423,0.283,2.984,1106.969,0.051,1.101
0.721000,1111132,1000.00,12,0,1,951.099,4.164,2.999,1107.689,0.953,1.103
0.722000,1111133,1000.00,12,0,1,944.421,-2.752,3.001,1107.065,0.254,1.098
0.723000,1111134,1000.00,12,0,1,941.827,-6.086,3.119,1105.984,-0.848,1.103
0.724000,1111135,1000.00,12,0,1,941.442,-4.440,3.160,1106.368,-0.560,1.067
0.725000,1111136,1000.00,12,0,1,934.764,-8.172,3.351,1105.047,-1.235,0.999
0.726000,1111137,1000.00,12,0,1,936.350,-6.111,3.460,1105.407,-1.255,1.014
0.727000,1111138,1000.00,12,0,1,949.753,8.172,3.648,1104.975,-0.816,1.016
0.728000,1111139,1000.00,12,0,1,947.736,9.702,3.896,1103.702,-1.983,1.045
0.729000,1111140,1000.00,12,0,1,918.166,-15.187,4.449,1106.104,0.084,1.045
0.730000,1111141,1000.00,12,0,1,919.703,-17.570,5.095,1107.185,1.861,1.077
0.731000,1111142,1000.00,12,0,1,931.137,0.967,5.096,1105.672,0.108,1.071
0.732000,1111143,1000.00,12,0,1,938.151,5.863,5.160,1106.632,0.623,1.058
0.733000,1111144,1000.00,12,0,1,939.857,8.611,5.294,1104.927,-0.250,1.036
0.734000,1111145,1000.00,12,0,1,932.194,0.021,5.292,1106.488,0.042,1.015
0.735000,1111146,1000.00,12,0,1,928.375,-5.759,5.349,1107.305,1.775,1.026
0.736000,1111147,1000.00,12,0,1,932.795,-2.139,5.319,1107.785,1.232,1.041
0.737000,1111148,1000.00,12,0,1,939.280,2.439,5.317,1106.825,0.755,1.046
0.738000,1111149,1000.00,12,0,1,941.154,3.584,5.334,1106.945,0.055,1.043
0.739000,1111150,1000.00,12,0,1,946.679,4.951,5.378,1105.816,-0.432,1.005
0.740000,1111151,1000.00,12,0,1,951.555,8.853,5.522,1105.383,-1.285,1.021
0.741000,1111152,1000.00,12,0,1,949.369,4.637,5.560,1105.960,-0.443,1.023
0.742000,1111153,1000.00,12,0,1,944.757,-0.642,5.545,1105.239,-0.759,1.028
0.743000,1111154,1000.00,12,0,1,940.073,-4.894,5.532,1104.302,-1.672,1.053
0.744000,1111155,1000.00,12,0,1,940.722,-3.822,5.558,1103.221,-2.048,1.053
0.745000,1111156,1000.00,12,0,1,938.079,-3.165,5.519,1103.366,-1.909,1.086
0.746000,1111157,1000.00,12,0,1,933.948,-5.722,5.577,1105.503,0.497,1.061
0.747000,1111158,1000.00,12,0,1,935.125,-2.410,5.564,1106.488,1.634,1.075
0.748000,1111159,1000.00,12,0,1,936.326,1.214,5.482,1106.416,1.404,1.093
0.749000,1111160,1000.00,12,0,1,938.536,4.088,5.397,1105.383,0.414,1.074
0.750000,1111161,1000.00,12,0,1,934.188,2.247,5.385,1105.383,0.086,1.072
0.751000,1111162,1000.00,12,0,1,928.015,-3.836,5.407,1106.464,1.094,1.083
0.752000,1111163,1000.00,12,0,1,929.384,-2.302,5.414,1106.368,1.034,1.090
0.753000,1111164,1000.00,12,0,1,933.419,1.855,5.420,1104.254,-0.903,1.055
0.754000,1111165,1000.00,12,0,1,935.845,3.286,5.440,1106.224,0.154,1.042
0.755000,1111166,1000.00,12,0,1,936.038,2.167,5.447,1106.320,1.206,1.056
0.756000,1111167,1000.00,12,0,1,935.509,-0.223,5.447,1105.912,-0.035,1.056
0.757000,1111168,1000.00,12,0,1,935.917,-1.429,5.448,1105.455,-0.030,1.053
0.758000,1111169,1000.00,12,0,1,944.733,3.809,5.447,1104.326,-1.199,1.061
0.759000,1111170,1000.00,12,0,1,949.177,7.662,5.549,1106.008,0.083,1.061
0.760000,1111171,1000.00,12,0,1,945.958,2.089,5.509,1105.840,0.701,1.051
0.761000,1111172,1000.00,12,0,1,938.512,-5.278,5.515,1105.167,-0.525,1.053
0.762000,1111173,1000.00,12,0,1,938.368,-6.634,5.590,1106.272,0.684,1.020
0.763000,1111174,1000.00,12,0,1,940.241,-2.638,5.601,1106.632,1.021,1.013
0.764000,1111175,1000.00,12,0,1,940.481,-1.455,5.584,1106.248,0.562,1.005
0.765000,1111176,1000.00,12,0,1,937.191,-2.289,5.542,1105.696,-0.026,0.967
0.766000,1111177,1000.00,12,0,1,933.900,-3.789,5.541,1105.816,-0.039,0.966
0.767000,1111178,1000.00,12,0,1,933.107,-2.358,5.551,1105.888,0.151,0.966
0.768000,1111179,1000.00,12,0,1,932.915,-0.176,5.540,1105.768,-0.048,0.965
0.769000,1111180,1000.00,12,0,1,934.452,2.344,5.509,1105.095,-0.528,0.960
0.770000,1111181,1000.00,12,0,1,931.882,2.080,5.517,1107.137,0.810,0.967
0.771000,1111182,1000.00,12,0,1,930.032,-0.196,5.485,1104.951,-0.142,0.958
0.772000,1111183,1000.00,12,0,1,930.008,0.648,5.472,1105.383,-1.141,0.971
0.773000,1111184,1000.00,12,0,1,928.183,-1.250,5.407,1107.065,1.318,0.981
0.774000,1111185,1000.00,12,0,1,932.026,0.768,5.372,1106.152,0.192,0.978
0.775000,1111186,1000.00,12,0,1,935.101,3.447,5.268,1105.527,-0.602,0.966
0.776000,1111187,1000.00,12,0,1,934.692,0.992,5.199,1106.608,0.318,0.951
0.777000,1111188,1000.00,12,0,1,935.005,-0.459,5.069,1108.098,1.540,0.969
0.778000,1111189,1000.00,12,0,1,943.988,4.806,4.927,1107.041,0.797,0.934
0.779000,1111190,1000.00,12,0,1,951.723,10.967,4.698,1107.161,0.043,0.934
0.780000,1111191,1000.00,12,0,1,949.946,6.968,4.107,1106.464,0.021,0.896
0.781000,1111192,1000.00,12,0,1,948.144,2.500,4.120,1106.008,-0.983,0.907
0.782000,1111193,1000.00,12,0,1,946.847,0.874,4.037,1106.536,-0.144,0.903
0.783000,1111194,1000.00,12,0,1,943.844,-2.075,3.861,1107.929,0.868,0.910
0.784000,1111195,1000.00,12,0,1,939.497,-4.842,3.921,1109.058,1.942,0.951
0.785000,1111196,1000.00,12,0,1,940.265,-3.452,3.866,1106.344,-0.338,0.918
0.786000,1111197,1000.00,12,0,1,939.040,-1.383,3.859,1106.632,-1.088,0.915
0.787000,1111198,1000.00,12,0,1,937.455,-1.900,3.853,1108.698,1.413,0.930
0.788000,1111199,1000.00,12,0,1,937.719,0.405,3.820,1107.857,0.532,0.933
0.789000,1111200,1000.00,12,0,1,932.843,-1.920,3.765,1107.473,-0.255,0.932
0.790000,1111201,1000.00,12,0,1,933.491,-1.702,3.559,1106.776,-0.656,0.919
0.791000,1111202,1000.00,12,0,1,935.509,2.153,3.512,1106.849,-0.924,0.926
0.792000,1111203,1000.00,12,0,1,931.810,-1.279,3.515,1106.608,-0.737,0.925
0.793000,1111204,1000.00,12,0,1,930.489,-3.341,3.478,1106.176,-1.281,0.913
0.794000,1111205,1000.00,12,0,1,936.686,1.198,3.440,1104.903,-1.998,0.911
0.795000,1111206,1000.00,12,0,1,938.560,2.819,3.434,1105.167,-1.921,0.911
0.796000,1111207,1000.00,12,0,1,937.599,-0.667,3.339,1104.831,-1.463,0.932
0.797000,1111208,1000.00,12,0,1,937.479,-2.226,3.336,1105.431,-1.118,0.916
0.798000,1111209,1000.00,12,0,1,940.025,-1.734,3.341,1106.416,0.246,0.895
0.799000,1111210,1000.00,12,0,1,944.901,1.467,3.297,1103.870,-1.574,0.921
0.800000,1111211,1000.00,12,0,1,950.522,5.174,3.362,1106.464,-0.249,0.921
0.801000,1111212,1000.00,12,0,1,951.050,4.847,3.388,1107.185,1.926,0.948
0.802000,1111213,1000.00,12,0,1,945.406,-0.990,3.376,1107.521,0.975,0.947
0.803000,1111214,1000.00,12,0,1,940.361,-5.780,3.463,1107.593,1.639,0.966
0.804000,1111215,1000.00,12,0,1,939.232,-5.307,3.513,1106.248,-0.052,0.966
0.805000,1111216,1000.00,12,0,1,936.614,-5.064,3.572,1103.918,-1.881,0.987
0.806000,1111217,1000.00,12,0,1,935.197,-4.419,3.626,1104.567,-1.544,1.011
0.807000,1111218,1000.00,12,0,1,933.587,-2.887,3.644,1105.191,-0.182,1.012
0.808000,1111219,1000.00,12,0,1,935.869,0.507,3.604,1106.416,0.711,1.002
0.809000,1111220,1000.00,12,0,1,940.650,6.629,3.563,1105.263,0.256,1.003
0.810000,1111221,1000.00,12,0,1,933.756,2.359,3.566,1104.591,-0.814,1.005
0.811000,1111222,1000.00,12,0,1,931.738,-1.682,3.496,1104.422,-0.539,1.005
0.812000,1111223,1000.00,12,0,1,937.671,4.617,3.430,1104.182,-0.649,1.004
0.813000,1111224,1000.00,12,0,1,939.545,5.631,3.501,1105.479,0.425,0.996
0.814000,1111225,1000.00,12,0,1,938.031,2.460,3.513,1105.431,0.901,1.001
0.815000,1111226,1000.00,12,0,1,935.821,-1.298,3.503,1107.137,1.579,1.025
0.816000,1111227,1000.00,12,0,1,936.998,-2.355,3.477,1106.032,1.411,1.045
0.817000,1111228,1000.00,12,0,1,941.923,0.722,3.463,1106.248,0.288,1.045
0.818000,1111229,1000.00,12,0,1,946.126,2.954,3.488,1105.503,0.482,1.047
0.819000,1111230,1000.00,12,0,1,951.074,5.155,3.548,1104.278,-1.287,1.060
0.820000,1111231,1000.00,12,0,1,948.937,2.562,3.554,1105.071,-0.363,1.055
0.821000,1111232,1000.00,12,0,1,949.585,0.249,3.554,1106.008,0.670,1.059
0.822000,1111233,1000.00,12,0,1,951.819,2.791,3.575,1103.870,-0.938,1.055
0.823000,1111234,1000.00,12,0,1,944.997,-2.682,3.590,1106.945,0.863,1.046
0.824000,1111235,1000.00,12,0,1,934.188,-11.598,3.946,1107.569,2.651,1.111
0.825000,1111236,1000.00,12,0,1,934.788,-9.684,4.148,1105.167,-0.341,1.109
0.826000,1111237,1000.00,12,0,1,938.920,-1.875,4.154,1105.263,-0.449,1.110
0.827000,1111238,1000.00,12,0,1,944.877,4.831,4.210,1104.831,-0.316,1.089
0.828000,1111239,1000.00,12,0,1,937.791,2.059,4.165,1107.017,0.911,1.091
0.829000,1111240,1000.00,12,0,1,929.912,-6.059,3.959,1109.179,3.447,1.195
0.830000,1111241,1000.00,12,0,1,927.246,-5.980,3.926,1106.897,1.004,1.203
0.831000,1111242,1000.00,12,0,1,926.645,-5.222,3.980,1102.261,-3.243,1.280
0.832000,1111243,1000.00,12,0,1,927.510,-3.344,4.006,1104.615,-1.984,1.310
0.833000,1111244,1000.00,12,0,1,926.333,-3.431,4.024,1106.296,1.083,1.313
0.834000,1111245,1000.00,12,0,1,930.561,-1.170,3.969,1106.584,0.530,1.287
0.835000,1111246,1000.00,12,0,1,938.031,5.512,4.015,1106.056,0.439,1.287
0.836000,1111247,1000.00,12,0,1,941.346,6.470,4.114,1105.551,-0.472,1.280
0.837000,1111248,1000.00,12,0,1,941.778,4.545,4.155,1105.335,-0.537,1.266
0.838000,1111249,1000.00,12,0,1,944.012,3.680,4.187,1105.551,-0.375,1.265
0.839000,1111250,1000.00,12,0,1,946.030,3.995,4.216,1107.737,1.279,1.277
0.840000,1111251,1000.00,12,0,1,944.829,1.438,4.214,1107.617,1.648,1.295
0.841000,1111252,1000.00,12,0,1,957.080,9.095,4.396,1107.497,0.582,1.291
0.842000,1111253,1000.00,12,0,1,956.767,11.428,4.680,1104.975,-0.981,1.295
0.843000,1111254,1000.00,12,0,1,930.801,-12.546,4.982,1106.368,-0.960,1.289
0.844000,1111255,1000.00,12,0,1,930.537,-15.660,5.450,1106.608,0.629,1.261
0.845000,1111256,1000.00,12,0,1,932.819,-5.158,5.484,1105.960,-0.765,1.236
0.846000,1111257,1000.00,12,0,1,935.677,-2.967,5.499,1106.464,0.044,1.218
0.847000,1111258,1000.00,12,0,1,935.365,2.051,5.498,1106.344,-0.004,1.208
0.848000,1111259,1000.00,12,0,1,932.555,-0.375,5.493,1105.696,-0.621,1.211
0.849000,1111260,1000.00,12,0,1,931.570,0.822,5.490,1105.912,-0.359,1.191
0.850000,1111261,1000.00,12,0,1,930.633,0.990,5.443,1107.785,1.109,1.201
0.851000,1111262,1000.00,12,0,1,932.843,2.708,5.413,1105.792,0.075,1.170
0.852000,1111263,1000.00,12,0,1,936.302,6.050,5.478,1105.239,-1.509,1.181
0.853000,1111264,1000.00,12,0,1,939.160,6.583,5.496,1105.335,-0.516,1.160
0.854000,1111265,1000.00,12,0,1,937.431,4.007,5.474,1104.543,-1.472,1.179
0.855000,1111266,1000.00,12,0,1,938.512,1.182,5.430,1106.224,0.027,1.149
0.856000,1111267,1000.00,12,0,1,942.163,3.187,5.413,1106.344,0.660,1.131
0.857000,1111268,1000.00,12,0,1,941.394,0.320,5.397,1106.104,-0.092,1.131
0.858000,1111269,1000.00,12,0,1,943.820,-0.222,5.397,1106.849,0.692,1.131
0.859000,1111270,1000.00,12,0,1,944.565,-0.029,5.315,1105.936,-0.088,1.130
0.860000,1111271,1000.00,12,0,1,943.796,-2.347,5.315,1107.377,0.611,1.128
0.861000,1111272,1000.00,12,0,1,944.084,-2.107,5.318,1107.785,1.490,1.145
0.862000,1111273,1000.00,12,0,1,944.397,-1.549,5.282,1106.512,-0.127,1.141
0.863000,1111274,1000.00,12,0,1,944.757,-0.384,5.222,1106.248,-0.461,1.142
0.864000,1111275,1000.00,12,0,1,944.949,0.936,5.212,1106.728,0.030,1.134
0.865000,1111276,1000.00,12,0,1,945.310,2.383,5.220,1107.425,0.632,1.116
0.866000,1111277,1000.00,12,0,1,939.953,-0.217,5.209,1107.521,0.788,1.104
0.867000,1111278,1000.00,12,0,1,931.906,-6.280,5.283,1106.728,-0.037,1.103
0.868000,1111279,1000.00,12,0,1,930.273,-5.994,5.335,1105.311,-1.207,1.114
0.869000,1111280,1000.00,12,0,1,929.648,-3.596,5.309,1104.855,-1.647,1.123
0.870000,1111281,1000.00,12,0,1,929.048,-2.893,5.313,1108.218,1.245,1.136
0.871000,1111282,1000.00,12,0,1,930.777,-0.379,5.313,1106.512,0.793,1.137
0.872000,1111283,1000.00,12,0,1,936.038,3.983,5.328,1105.095,-1.689,1.155
0.873000,1111284,1000.00,12,0,1,940.289,7.139,5.409,1105.167,-0.873,1.155
0.874000,1111285,1000.00,12,0,1,947.808,10.598,5.368,1106.776,0.166,1.092
0.875000,1111286,1000.00,12,0,1,949.225,10.187,5.387,1106.680,0.683,1.096
0.876000,1111287,1000.00,12,0,1,947.231,3.870,5.408,1106.368,-0.161,1.094
0.877000,1111288,1000.00,12,0,1,939.064,-4.826,5.408,1106.704,0.211,1.094
0.878000,1111289,1000.00,12,0,1,940.505,-7.402,5.501,1106.584,0.092,1.086
0.879000,1111290,1000.00,12,0,1,951.651,2.769,5.448,1107.689,0.666,0.975
0.880000,1111291,1000.00,12,0,1,955.975,6.394,5.457,1107.665,0.998,0.975
0.881000,1111292,1000.00,12,0,1,949.249,-0.627,5.407,1106.296,-0.666,0.865
0.882000,1111293,1000.00,12,0,1,940.457,-8.833,5.530,1105.191,-1.489,0.845
0.883000,1111294,1000.00,12,0,1,941.154,-7.798,5.618,1106.296,-0.692,0.837
0.884000,1111295,1000.00,12,0,1,946.174,-0.170,5.615,1105.023,-0.904,0.843
0.885000,1111296,1000.00,12,0,1,943.604,-0.089,5.561,1105.864,-0.883,0.850
0.886000,1111297,1000.00,12,0,1,942.547,-0.361,5.485,1106.056,0.347,0.849
0.887000,1111298,1000.00,12,0,1,942.523,1.883,5.454,1106.849,0.431,0.848
0.888000,1111299,1000.00,12,0,1,938.896,0.040,5.429,1108.770,2.410,0.912
0.889000,1111300,1000.00,12,0,1,935.989,-1.863,5.406,1106.680,0.769,0.901
0.890000,1111301,1000.00,12,0,1,936.230,-0.779,5.403,1106.080,-0.729,0.876
0.891000,1111302,1000.00,12,0,1,937.551,0.763,5.249,1107.569,1.058,0.885
0.892000,1111303,1000.00,12,0,1,938.752,1.498,4.999,1106.416,0.061,0.874
0.893000,1111304,1000.00,12,0,1,938.632,0.441,4.674,1106.248,-0.514,0.867
0.894000,1111305,1000.00,12,0,1,941.442,0.962,4.118,1106.728,0.139,0.862
0.895000,1111306,1000.00,12,0,1,944.036,2.023,4.063,1106.008,-0.489,0.858
0.896000,1111307,1000.00,12,0,1,945.382,0.895,4.043,1103.942,-2.192,0.913
0.897000,1111308,1000.00,12,0,1,947.087,0.406,4.033,1107.017,-0.077,0.913
0.898000,1111309,1000.00,12,0,1,949.393,0.635,4.034,1107.425,1.543,0.934
0.899000,1111310,1000.00,12,0,1,953.356,2.436,4.047,1106.464,-0.312,0.934
0.900000,1111311,1000.00,12,0,1,953.813,2.290,4.057,1105.455,-0.769,0.927
0.901000,1111312,1000.00,12,0,1,954.341,1.156,4.042,1104.927,-1.472,0.950
0.902000,1111313,1000.00,12,0,1,949.657,-1.845,3.959,1105.407,-0.761,0.932
0.903000,1111314,1000.00,12,0,1,947.039,-4.795,3.908,1107.017,0.755,0.935
0.904000,1111315,1000.00,12,0,1,945.069,-3.767,3.903,1105.575,-0.046,0.912
0.905000,1111316,1000.00,12,0,1,942.595,-4.390,3.949,1106.104,-0.253,0.913
0.906000,1111317,1000.00,12,0,1,941.634,-2.815,3.943,1107.425,1.438,0.930
0.907000,1111318,1000.00,12,0,1,944.349,1.342,3.947,1108.506,2.063,0.975
0.908000,1111319,1000.00,12,0,1,946.270,4.886,4.007,1107.377,1.165,0.984
0.909000,1111320,1000.00,12,0,1,945.550,4.739,4.063,1106.825,0.078,0.984
0.910000,1111321,1000.00,12,0,1,945.958,4.472,4.098,1106.224,-0.234,0.981
0.911000,1111322,1000.00,12,0,1,942.715,1.847,4.096,1108.218,1.030,0.969
0.912000,1111323,1000.00,12,0,1,938.728,-3.351,4.117,1106.176,0.098,0.969
0.913000,1111324,1000.00,12,0,1,942.643,-1.112,4.120,1105.407,-1.675,0.995
0.914000,1111325,1000.00,12,0,1,943.244,-0.475,4.118,1107.401,0.598,0.999
0.915000,1111326,1000.00,12,0,1,945.310,-1.502,4.110,1107.185,0.622,0.998
0.916000,1111327,1000.00,12,0,1,951.074,2.383,4.124,1108.314,0.875,1.000
0.917000,1111328,1000.00,12,0,1,955.879,4.516,4.077,1108.002,1.147,1.013
0.918000,1111329,1000.00,12,0,1,954.173,1.451,3.993,1105.623,-1.568,1.023
0.919000,1111330,1000.00,12,0,1,952.684,-2.439,3.976,1106.008,-1.337,1.014
0.920000,1111331,1000.00,12,0,1,952.444,-2.949,3.977,1106.296,-0.632,1.002
0.921000,1111332,1000.00,12,0,1,956.287,-0.267,3.976,1108.026,0.550,0.999
0.922000,1111333,1000.00,12,0,1,960.419,4.185,3.981,1106.969,0.303,0.971
0.923000,1111334,1000.00,12,0,1,965.463,8.128,4.018,1106.536,-0.917,0.972
0.924000,1111335,1000.00,12,0,1,961.091,5.607,3.812,1106.897,-0.071,0.972
0.925000,1111336,1000.00,12,0,1,948.504,-5.648,3.618,1107.929,0.534,0.970
0.926000,1111337,1000.00,12,0,1,940.433,-11.668,3.939,1107.449,0.480,0.972
0.927000,1111338,1000.00,12,0,1,939.521,-9.378,4.100,1108.050,0.440,0.973
0.928000,1111339,1000.00,12,0,1,942.643,-3.870,4.002,1107.209,0.174,0.974
0.929000,1111340,1000.00,12,0,1,943.844,-0.123,3.982,1106.776,-0.705,0.974
0.930000,1111341,1000.00,12,0,1,942.763,-0.503,3.879,1106.632,-0.492,0.966
0.931000,1111342,1000.00,12,0,1,947.616,3.306,3.906,1106.584,-0.555,0.965
0.932000,1111343,1000.00,12,0,1,949.561,5.378,3.778,1105.527,-1.208,0.957
0.933000,1111344,1000.00,12,0,1,948.937,2.435,3.630,1105.888,-1.011,0.963
0.934000,1111345,1000.00,12,0,1,950.570,1.910,3.640,1106.224,-0.282,0.955
0.935000,1111346,1000.00,12,0,1,948.480,-1.304,3.645,1108.146,1.123,0.960
0.936000,1111347,1000.00,12,0,1,945.045,-6.588,3.762,1106.392,0.250,0.960
0.937000,1111348,1000.00,12,0,1,939.400,-11.674,4.099,1105.984,-1.091,0.970
0.938000,1111349,1000.00,12,0,1,944.229,-9.190,4.300,1107.785,0.935,0.918
0.939000,1111350,1000.00,12,0,1,954.269,1.451,4.297,1107.017,0.434,0.913
0.940000,1111351,1000.00,12,0,1,957.344,4.123,4.335,1107.497,0.159,0.908
0.941000,1111352,1000.00,12,0,1,958.209,3.867,4.368,1108.026,1.077,0.908
0.942000,1111353,1000.00,12,0,1,956.335,2.615,4.379,1108.026,0.550,0.911
0.943000,1111354,1000.00,12,0,1,950.258,-2.357,4.391,1108.098,0.701,0.914
0.944000,1111355,1000.00,12,0,1,947.712,-3.681,4.420,1106.728,-0.591,0.918
0.945000,1111356,1000.00,12,0,1,939.472,-7.253,4.528,1106.704,-0.863,0.923
0.946000,1111357,1000.00,12,0,1,940.601,-5.870,4.602,1106.320,-0.713,0.875
0.947000,1111358,1000.00,12,0,1,941.754,0.355,4.602,1107.185,-0.244,0.876
0.948000,1111359,1000.00,12,0,1,942.139,1.204,4.604,1106.704,0.000,0.848
0.949000,1111360,1000.00,12,0,1,942.691,3.784,4.622,1107.881,0.390,0.849
0.950000,1111361,1000.00,12,0,1,944.589,5.221,4.670,1106.560,0.123,0.842
0.951000,1111362,1000.00,12,0,1,946.559,6.794,4.765,1106.969,-0.496,0.819
0.952000,1111363,1000.00,12,0,1,944.637,4.270,4.796,1107.185,0.525,0.815
0.953000,1111364,1000.00,12,0,1,943.724,1.049,4.750,1107.641,0.353,0.810
0.954000,1111365,1000.00,12,0,1,945.646,1.556,4.725,1106.416,-0.255,0.810
0.955000,1111366,1000.00,12,0,1,949.633,2.754,4.700,1106.488,-0.762,0.817
0.956000,1111367,1000.00,12,0,1,953.525,4.547,4.727,1106.921,0.024,0.791
0.957000,1111368,1000.00,12,0,1,959.193,6.418,4.810,1107.497,0.356,0.737
0.958000,1111369,1000.00,12,0,1,958.209,4.444,4.801,1106.320,-0.474,0.722
0.959000,1111370,1000.00,12,0,1,950.402,-4.903,4.804,1107.065,-0.298,0.723
0.960000,1111371,1000.00,12,0,1,946.559,-9.210,4.938,1107.497,0.516,0.726
0.961000,1111372,1000.00,12,0,1,951.339,-4.412,4.970,1107.473,0.223,0.711
0.962000,1111373,1000.00,12,0,1,951.723,-1.449,4.952,1105.623,-1.150,0.730
0.963000,1111374,1000.00,12,0,1,951.795,-1.243,4.952,1107.065,-0.456,0.693
0.964000,1111375,1000.00,12,0,1,950.546,0.076,4.952,1108.506,1.524,0.721
0.965000,1111376,1000.00,12,0,1,949.321,-0.058,4.947,1107.425,0.397,0.718
0.966000,1111377,1000.00,12,0,1,945.958,-0.659,4.937,1107.065,-0.267,0.708
0.967000,1111378,1000.00,12,0,1,943.652,-1.606,4.900,1105.263,-1.286,0.713
0.968000,1111379,1000.00,12,0,1,942.571,-0.662,4.897,1105.071,-1.924,0.730
0.969000,1111380,1000.00,12,0,1,942.811,0.580,4.885,1104.927,-1.064,0.721
0.970000,1111381,1000.00,12,0,1,941.202,0.138,4.868,1107.041,0.313,0.717
0.971000,1111382,1000.00,12,0,1,944.133,1.880,4.875,1108.530,2.418,0.790
0.972000,1111383,1000.00,12,0,1,944.757,2.891,4.856,1107.497,1.059,0.803
0.973000,1111384,1000.00,12,0,1,946.703,2.220,4.728,1103.053,-2.579,0.873
0.974000,1111385,1000.00,12,0,1,948.672,2.936,4.680,1105.527,-1.502,0.898
0.975000,1111386,1000.00,12,0,1,952.588,3.598,4.639,1106.392,1.074,0.908
0.976000,1111387,1000.00,12,0,1,954.533,3.709,4.367,1106.584,0.166,0.905
0.977000,1111388,1000.00,12,0,1,953.092,0.059,4.161,1107.569,1.456,0.926
0.978000,1111389,1000.00,12,0,1,952.011,-2.837,4.145,1107.833,1.365,0.946
0.979000,1111390,1000.00,12,0,1,956.839,0.078,4.145,1106.849,0.339,0.942
0.980000,1111391,1000.00,12,0,1,955.831,-0.028,4.144,1105.407,-1.008,0.950
0.981000,1111392,1000.00,12,0,1,949.873,-5.896,4.201,1105.335,-1.297,0.965
0.982000,1111393,1000.00,12,0,1,949.441,-5.830,4.213,1104.014,-1.676,0.978
0.983000,1111394,1000.00,12,0,1,948.288,-3.971,4.236,1106.704,-0.091,0.968
0.984000,1111395,1000.00,12,0,1,947.471,-3.461,4.256,1107.809,2.228,1.017
0.985000,1111396,1000.00,12,0,1,948.744,0.256,4.252,1108.050,1.369,1.023
0.986000,1111397,1000.00,12,0,1,946.463,0.393,4.149,1105.359,-0.238,1.023
0.987000,1111398,1000.00,12,0,1,946.511,1.272,3.811,1106.032,-0.860,1.019
0.988000,1111399,1000.00,12,0,1,950.282,5.890,3.678,1106.368,0.640,1.014
0.989000,1111400,1000.00,12,0,1,952.828,8.488,3.863,1105.383,-0.697,1.017
0.990000,1111401,1000.00,12,0,1,949.513,5.260,3.891,1105.383,-0.523,1.020
0.991000,1111402,1000.00,12,0,1,944.301,-0.840,3.854,1105.239,-0.358,1.009
0.992000,1111403,1000.00,12,0,1,950.306,2.267,3.850,1108.026,1.561,1.030
0.993000,1111404,1000.00,12,0,1,949.321,2.551,3.852,1107.953,2.387,1.080
0.994000,1111405,1000.00,12,0,1,942.307,-6.752,3.934,1106.897,0.255,1.077
0.995000,1111406,1000.00,12,0,1,939.352,-10.087,4.057,1107.665,1.066,1.081
0.996000,1111407,1000.00,12,0,1,938.920,-10.580,4.244,1107.137,0.437,1.078
0.997000,1111408,1000.00,12,0,1,941.682,-8.119,4.396,1104.422,-1.918,1.111
0.998000,1111409,1000.00,12,0,1,946.438,-3.342,4.418,1104.783,-2.064,1.148
0.999000,1111410,1000.00,12,0,1,951.891,1.276,4.390,1106.680,0.258,1.148
1.000000,1111411,1000.00,12,0,1,952.972,2.792,4.345,1103.726,-1.769,1.175
1.001000,1111412,1000.00,12,0,1,948.624,-1.299,4.242,1105.215,-1.503,1.192
1.002000,1111413,1000.00,12,0,1,945.742,-3.462,4.227,1105.479,0.348,1.190
1.003000,1111414,1000.00,12,0,1,950.522,1.586,4.230,1104.374,-1.383,1.205
1.004000,1111415,1000.00,12,0,1,954.389,7.315,4.349,1104.759,-0.517,1.207
1.005000,1111416,1000.00,12,0,1,951.387,5.483,4.401,1104.999,-0.168,1.202
1.006000,1111417,1000.00,12,0,1,947.423,2.307,4.366,1103.438,-1.169,1.214
1.007000,1111418,1000.00,12,0,1,946.270,2.173,4.281,1104.446,-0.565,1.215
1.008000,1111419,1000.00,12,0,1,943.868,1.400,4.239,1106.825,2.001,1.246
1.009000,1111420,1000.00,12,0,1,944.781,2.122,4.193,1106.897,2.162,1.282
1.010000,1111421,1000.00,12,0,1,944.853,3.235,4.012,1105.575,0.573,1.283
1.011000,1111422,1000.00,12,0,1,950.162,6.079,4.055,1106.825,1.275,1.295
1.012000,1111423,1000.00,12,0,1,951.507,7.589,4.190,1107.929,2.371,1.328
1.013000,1111424,1000.00,12,0,1,955.302,6.988,4.301,1107.065,1.326,1.339
1.014000,1111425,1000.00,12,0,1,960.467,9.920,4.524,1105.575,-0.349,1.323
1.015000,1111426,1000.00,12,0,1,968.826,12.834,4.875,1108.290,1.446,1.337
1.016000,1111427,1000.00,12,0,1,948.648,-4.036,4.907,1106.776,1.050,1.345
1.017000,1111428,1000.00,12,0,1,938.992,-20.384,5.687,1107.089,-0.190,1.333
1.018000,1111429,1000.00,12,0,1,952.444,-5.940,5.748,1105.023,-0.766,1.309
1.019000,1111430,1000.00,12,0,1,960.491,2.566,5.759,1106.536,-0.872,1.306
1.020000,1111431,1000.00,12,0,1,960.130,1.211,5.761,1106.128,0.298,1.306
1.021000,1111432,1000.00,12,0,1,952.780,-4.643,5.792,1104.543,-1.954,1.291
1.022000,1111433,1000.00,12,0,1,949.297,-8.821,5.911,1106.272,-0.263,1.283
1.023000,1111434,1000.00,12,0,1,948.720,-6.020,5.964,1104.783,-0.675,1.233
1.024000,1111435,1000.00,12,0,1,947.736,-5.561,6.001,1104.254,-2.015,1.248
1.025000,1111436,1000.00,12,0,1,949.201,-1.704,5.984,1104.903,-0.453,1.240
1.026000,1111437,1000.00,12,0,1,949.273,0.324,5.961,1106.632,0.558,1.243
1.027000,1111438,1000.00,12,0,1,942.163,-3.628,5.983,1106.584,1.262,1.238
1.028000,1111439,1000.00,12,0,1,940.169,-5.323,6.017,1105.047,-0.703,1.227
1.029000,1111440,1000.00,12,0,1,940.073,-2.488,6.027,1106.897,0.692,1.230
1.030000,1111441,1000.00,12,0,1,941.226,-1.188,6.030,1107.497,1.687,1.245
1.031000,1111442,1000.00,12,0,1,944.060,2.093,5.979,1107.209,0.784,1.236
1.032000,1111443,1000.00,12,0,1,943.484,1.543,5.926,1106.008,-0.090,1.214
1.033000,1111444,1000.00,12,0,1,945.502,1.479,5.903,1104.615,-1.647,1.236
1.034000,1111445,1000.00,12,0,1,950.786,5.286,5.930,1107.401,0.587,1.198
1.035000,1111446,1000.00,12,0,1,952.444,5.100,5.974,1106.224,0.591,1.185
1.036000,1111447,1000.00,12,0,1,951.074,1.788,5.979,1106.512,-0.428,1.186
1.037000,1111448,1000.00,12,0,1,954.293,2.075,5.983,1106.032,0.205,1.180
1.038000,1111449,1000.00,12,0,1,956.047,3.218,5.942,1105.648,-0.882,1.183
1.039000,1111450,1000.00,12,0,1,959.073,3.566,5.842,1106.248,0.111,1.179
1.040000,1111451,1000.00,12,0,1,961.908,5.786,5.852,1105.816,-0.212,1.177
1.041000,1111452,1000.00,12,0,1,956.215,0.542,5.851,1105.239,-0.792,1.181
1.042000,1111453,1000.00,12,0,1,949.777,-5.842,5.900,1105.527,-0.377,1.162
1.043000,1111454,1000.00,12,0,1,947.111,-6.523,5.961,1106.152,0.178,1.112
1.044000,1111455,1000.00,12,0,1,944.349,-6.611,5.958,1105.335,-0.208,1.112
1.045000,1111456,1000.00,12,0,1,944.373,-4.492,5.819,1106.945,0.544,1.104
1.046000,1111457,1000.00,12,0,1,946.102,-0.408,5.624,1106.849,1.246,1.116
1.047000,1111458,1000.00,12,0,1,946.847,1.982,5.513,1108.074,1.205,1.096
1.048000,1111459,1000.00,12,0,1,947.447,3.352,5.513,1107.377,1.300,1.073
1.049000,1111460,1000.00,12,0,1,948.072,4.261,5.543,1105.455,-1.225,1.086
1.050000,1111461,1000.00,12,0,1,948.552,4.277,5.562,1107.905,0.644,1.061
1.051000,1111462,1000.00,12,0,1,946.078,1.685,5.564,1106.608,0.448,1.041
1.052000,1111463,1000.00,12,0,1,944.661,-1.165,5.545,1105.888,-1.376,1.058
1.053000,1111464,1000.00,12,0,1,948.841,1.277,5.543,1105.696,-0.648,1.044
1.054000,1111465,1000.00,12,0,1,954.894,5.364,5.498,1106.825,-0.252,1.042
1.055000,1111466,1000.00,12,0,1,952.396,2.053,5.451,1105.720,-0.293,1.042
1.056000,1111467,1000.00,12,0,1,952.876,-1.137,5.444,1105.047,-1.556,1.052
1.057000,1111468,1000.00,12,0,1,953.188,-0.916,5.436,1104.495,-1.307,1.066
1.058000,1111469,1000.00,12,0,1,954.533,-1.803,5.439,1104.062,-1.689,1.055
1.059000,1111470,1000.00,12,0,1,958.545,1.497,5.435,1106.560,0.549,1.012
1.060000,1111471,1000.00,12,0,1,954.990,-1.096,5.418,1106.849,1.570,1.033
1.061000,1111472,1000.00,12,0,1,953.332,-3.882,5.377,1107.497,1.208,1.032
1.062000,1111473,1000.00,12,0,1,955.759,-0.064,5.269,1106.488,0.941,0.985
1.063000,1111474,1000.00,12,0,1,955.350,0.671,5.176,1105.191,-1.009,0.977
1.064000,1111475,1000.00,12,0,1,957.128,2.761,4.998,1103.510,-1.898,1.012
1.065000,1111476,1000.00,12,0,1,955.158,2.911,4.675,1103.942,-1.863,1.026
1.066000,1111477,1000.00,12,0,1,944.877,-5.035,4.694,1103.630,-1.175,1.028
1.067000,1111478,1000.00,12,0,1,943.724,-6.191,3.807,1104.302,-0.885,1.036
1.068000,1111479,1000.00,12,0,1,946.487,-0.561,3.714,1104.302,-0.175,1.030
1.069000,1111480,1000.00,12,0,1,947.375,0.731,3.697,1104.927,0.084,1.023
1.070000,1111481,1000.00,12,0,1,949.105,2.499,3.710,1106.849,1.890,1.056
1.071000,1111482,1000.00,12,0,1,944.637,-1.023,3.654,1105.167,0.813,1.026
1.072000,1111483,1000.00,12,0,1,943.820,-3.842,3.478,1103.894,-1.133,1.038
1.073000,1111484,1000.00,12,0,1,944.661,-2.420,3.389,1103.005,-1.197,1.047
1.074000,1111485,1000.00,12,0,1,945.838,-2.872,3.322,1103.486,-1.068,1.019
1.075000,1111486,1000.00,12,0,1,949.825,-0.084,3.313,1103.894,0.071,1.017
1.076000,1111487,1000.00,12,0,1,954.173,2.560,3.332,1105.551,1.149,1.027
1.077000,1111488,1000.00,12,0,1,955.662,2.642,3.314,1104.927,1.281,1.027
1.078000,1111489,1000.00,12,0,1,955.638,1.081,3.231,1105.648,1.017,1.033
1.079000,1111490,1000.00,12,0,1,949.129,-4.626,3.277,1106.200,1.989,1.066
1.080000,1111491,1000.00,12,0,1,949.537,-5.771,3.373,1104.687,0.334,1.040
1.081000,1111492,1000.00,12,0,1,953.429,-0.040,3.360,1103.726,-0.760,1.039
1.082000,1111493,1000.00,12,0,1,950.330,-1.378,3.359,1104.495,0.016,1.039
1.083000,1111494,1000.00,12,0,1,950.738,-0.927,3.355,1105.696,1.098,1.025
1.084000,1111495,1000.00,12,0,1,948.937,0.527,3.271,1104.374,0.257,1.022
1.085000,1111496,1000.00,12,0,1,947.519,-0.467,3.192,1105.840,0.611,1.022
1.086000,1111497,1000.00,12,0,1,947.519,1.888,3.193,1105.383,1.158,1.033
1.087000,1111498,1000.00,12,0,1,950.858,5.060,3.259,1104.543,-0.557,1.036
1.088000,1111499,1000.00,12,0,1,948.937,5.269,3.312,1104.038,-0.506,1.031
1.089000,1111500,1000.00,12,0,1,948.793,3.462,3.310,1106.536,1.033,1.041
1.090000,1111501,1000.00,12,0,1,946.150,2.198,3.222,1106.128,1.533,1.063
1.091000,1111502,1000.00,12,0,1,945.742,-0.137,3.221,1104.254,-0.958,1.066
1.092000,1111503,1000.00,12,0,1,943.916,-1.266,3.118,1103.462,-1.478,1.085
1.093000,1111504,1000.00,12,0,1,944.157,-2.871,3.006,1101.756,-2.566,1.144
1.094000,1111505,1000.00,12,0,1,947.543,-0.442,2.858,1103.125,-1.631,1.166
1.095000,1111506,1000.00,12,0,1,948.336,-0.401,2.787,1104.567,0.681,1.168
1.096000,1111507,1000.00,12,0,1,948.192,-2.277,2.805,1105.407,0.985,1.163
1.097000,1111508,1000.00,12,0,1,950.042,-1.373,2.798,1104.855,0.911,1.157
1.098000,1111509,1000.00,12,0,1,952.372,-0.194,2.757,1103.245,-0.896,1.150
1.099000,1111510,1000.00,12,0,1,954.726,1.535,2.699,1104.927,0.360,1.138
1.100000,1111511,1000.00,12,0,1,957.776,3.480,2.676,1103.462,-0.043,1.134
1.101000,1111512,1000.00,12,0,1,956.767,3.073,2.701,1104.446,-0.297,1.133
1.102000,1111513,1000.00,12,0,1,949.201,-3.414,2.739,1105.263,1.444,1.135
1.103000,1111514,1000.00,12,0,1,943.004,-8.150,2.966,1103.942,-0.251,1.132
1.104000,1111515,1000.00,12,0,1,944.829,-4.744,2.945,1105.095,0.521,1.133
1.105000,1111516,1000.00,12,0,1,956.095,6.941,3.090,1104.831,0.772,1.138
1.106000,1111517,1000.00,12,0,1,952.011,7.039,3.243,1102.813,-1.370,1.133
1.107000,1111518,1000.00,12,0,1,942.067,-3.583,3.280,1105.263,0.442,1.120
1.108000,1111519,1000.00,12,0,1,942.931,-1.961,3.281,1104.374,0.677,1.098
1.109000,1111520,1000.00,12,0,1,945.862,2.245,3.290,1104.038,-0.661,1.099
1.110000,1111521,1000.00,12,0,1,944.781,1.512,3.293,1106.536,1.869,1.109
1.111000,1111522,1000.00,12,0,1,945.261,1.108,3.251,1104.615,0.569,1.098
1.112000,1111523,1000.00,12,0,1,948.961,3.426,3.287,1103.702,-1.221,1.104
1.113000,1111524,1000.00,12,0,1,950.066,3.623,3.325,1104.062,-0.240,1.095
1.114000,1111525,1000.00,12,0,1,949.681,0.997,3.305,1102.333,-1.712,1.089
1.115000,1111526,1000.00,12,0,1,951.675,1.009,3.283,1102.981,-1.282,1.072
1.116000,1111527,1000.00,12,0,1,954.606,1.955,3.216,1105.479,1.317,1.075
1.117000,1111528,1000.00,12,0,1,954.533,0.715,3.096,1105.383,1.468,1.088
1.118000,1111529,1000.00,12,0,1,957.896,1.404,3.102,1104.326,0.091,1.088
1.119000,1111530,1000.00,12,0,1,961.427,4.272,3.158,1104.831,0.363,1.089
1.120000,1111531,1000.00,12,0,1,957.800,0.483,3.139,1103.053,-0.775,1.061
1.121000,1111532,1000.00,12,0,1,955.278,-2.841,3.162,1101.972,-2.183,1.099
1.122000,1111533,1000.00,12,0,1,953.981,-2.708,3.138,1104.110,-0.007,1.088
1.123000,1111534,1000.00,12,0,1,949.465,-5.332,3.209,1103.678,0.258,1.075
1.124000,1111535,1000.00,12,0,1,951.531,-2.812,3.208,1103.438,-0.515,1.067
1.125000,1111536,1000.00,12,0,1,953.260,1.694,3.217,1105.023,1.115,1.078
1.126000,1111537,1000.00,12,0,1,956.407,4.472,3.259,1104.446,0.775,1.072
1.127000,1111538,1000.00,12,0,1,954.053,4.410,3.297,1103.870,-0.176,1.056
1.128000,1111539,1000.00,12,0,1,951.387,0.806,3.295,1106.584,1.968,1.083
1.129000,1111540,1000.00,12,0,1,946.222,-2.380,3.247,1107.233,2.866,1.122
1.130000,1111541,1000.00,12,0,1,944.469,-4.936,3.219,1105.720,0.838,1.127
1.131000,1111542,1000.00,12,0,1,949.249,-0.297,3.219,1104.086,-0.777,1.127
1.132000,1111543,1000.00,12,0,1,949.633,0.552,3.215,1103.630,-1.342,1.143
1.133000,1111544,1000.00,12,0,1,947.447,-3.159,3.243,1102.717,-1.705,1.158
1.134000,1111545,1000.00,12,0,1,952.588,-0.086,3.242,1103.582,-1.092,1.167
1.135000,1111546,1000.00,12,0,1,960.971,6.143,3.356,1103.654,-0.317,1.165
1.136000,1111547,1000.00,12,0,1,963.733,7.102,3.493,1106.152,1.275,1.168
1.137000,1111548,1000.00,12,0,1,957.464,-0.571,3.419,1106.560,2.358,1.212
1.138000,1111549,1000.00,12,0,1,949.753,-9.111,3.577,1106.008,0.949,1.217
1.139000,1111550,1000.00,12,0,1,949.609,-9.601,3.795,1106.128,0.990,1.216
1.140000,1111551,1000.00,12,0,1,954.125,-4.010,3.824,1107.185,1.495,1.215
1.141000,1111552,1000.00,12,0,1,956.695,-0.393,3.825,1105.455,0.153,1.208
1.142000,1111553,1000.00,12,0,1,959.722,2.765,3.841,1105.071,-0.972,1.198
1.143000,1111554,1000.00,12,0,1,959.698,4.055,3.862,1106.368,0.392,1.143
1.144000,1111555,1000.00,12,0,1,951.483,-2.074,3.872,1106.320,0.413,1.121
1.145000,1111556,1000.00,12,0,1,946.463,-6.242,3.971,1107.113,0.566,1.119
1.146000,1111557,1000.00,12,0,1,950.042,-1.055,3.961,1107.329,1.005,1.120
1.147000,1111558,1000.00,12,0,1,950.282,1.758,3.964,1104.783,-1.466,1.131
1.148000,1111559,1000.00,12,0,1,946.078,-1.360,3.969,1105.551,-1.307,1.139
1.149000,1111560,1000.00,12,0,1,942.715,-3.612,3.996,1104.759,-1.054,1.148
1.150000,1111561,1000.00,12,0,1,946.318,-0.469,3.966,1105.023,-1.459,1.166
1.151000,1111562,1000.00,12,0,1,948.168,2.417,3.957,1103.894,-1.454,1.184
1.152000,1111563,1000.00,12,0,1,950.810,2.923,3.949,1105.696,-0.641,1.169
1.153000,1111564,1000.00,12,0,1,952.996,4.285,3.825,1106.080,0.828,1.175
1.154000,1111565,1000.00,12,0,1,954.317,3.214,3.793,1105.599,-0.274,1.173
1.155000,1111566,1000.00,12,0,1,957.056,3.670,3.701,1107.425,1.279,1.182
1.156000,1111567,1000.00,12,0,1,953.044,-0.651,3.565,1106.993,1.245,1.179
1.157000,1111568,1000.00,12,0,1,949.657,-6.144,3.635,1104.374,-1.575,1.198
1.158000,1111569,1000.00,12,0,1,947.880,-6.965,3.755,1104.326,-1.700,1.218
1.159000,1111570,1000.00,12,0,1,950.114,-5.402,3.819,1105.215,-0.587,1.218
1.160000,1111571,1000.00,12,0,1,955.951,1.074,3.816,1105.167,-0.367,1.190
1.161000,1111572,1000.00,12,0,1,960.995,5.959,3.905,1105.575,-0.188,1.187
1.162000,1111573,1000.00,12,0,1,957.464,3.884,3.914,1106.584,0.851,1.181
1.163000,1111574,1000.00,12,0,1,952.516,-1.084,3.883,1106.272,0.567,1.183
1.164000,1111575,1000.00,12,0,1,949.753,-2.043,3.891,1106.488,0.426,1.160
1.165000,1111576,1000.00,12,0,1,950.810,-0.003,3.888,1106.608,0.619,1.149
1.166000,1111577,1000.00,12,0,1,950.714,1.968,3.889,1107.065,0.719,1.138
1.167000,1111578,1000.00,12,0,1,950.738,2.465,3.903,1105.696,-0.221,1.119
1.168000,1111579,1000.00,12,0,1,947.327,0.755,3.899,1104.687,-1.514,1.140
1.169000,1111580,1000.00,12,0,1,947.567,0.217,3.852,1105.696,-0.417,1.140
1.170000,1111581,1000.00,12,0,1,950.882,3.688,3.887,1105.503,-0.172,1.135
1.171000,1111582,1000.00,12,0,1,953.188,4.972,3.929,1105.455,-0.462,1.094
1.172000,1111583,1000.00,12,0,1,954.365,4.495,3.962,1104.927,-0.508,1.097
1.173000,1111584,1000.00,12,0,1,951.627,0.861,3.892,1105.311,-0.452,1.098
1.174000,1111585,1000.00,12,0,1,952.035,-1.506,3.877,1104.615,-0.478,1.097
1.175000,1111586,1000.00,12,0,1,956.287,1.414,3.875,1103.990,-1.305,1.102
1.176000,1111587,1000.00,12,0,1,956.599,0.517,3.824,1105.335,0.074,1.096
1.177000,1111588,1000.00,12,0,1,959.169,0.580,3.773,1107.569,2.085,1.135
1.178000,1111589,1000.00,12,0,1,958.929,0.311,3.772,1108.146,2.542,1.158
1.179000,1111590,1000.00,12,0,1,955.062,-4.226,3.804,1106.560,0.793,1.090
1.180000,1111591,1000.00,12,0,1,955.398,-4.180,3.786,1106.488,0.078,1.084
1.181000,1111592,1000.00,12,0,1,954.606,-3.252,3.813,1106.584,0.413,1.080
1.182000,1111593,1000.00,12,0,1,955.855,-1.948,3.823,1103.894,-1.912,1.097
1.183000,1111594,1000.00,12,0,1,955.951,0.354,3.797,1103.798,-2.374,1.121
1.184000,1111595,1000.00,12,0,1,959.145,3.101,3.822,1105.023,-0.549,1.113
1.185000,1111596,1000.00,12,0,1,954.005,1.494,3.728,1104.206,-0.979,1.121
1.186000,1111597,1000.00,12,0,1,947.712,-4.862,3.655,1104.855,-0.588,1.109
1.187000,1111598,1000.00,12,0,1,939.785,-8.831,3.862,1104.903,0.082,1.058
1.188000,1111599,1000.00,12,0,1,940.529,-8.061,3.815,1106.368,0.877,1.057
1.189000,1111600,1000.00,12,0,1,941.442,-3.454,3.598,1103.750,-0.416,1.049
1.190000,1111601,1000.00,12,0,1,942.787,-2.319,3.569,1104.446,-1.118,1.040
1.191000,1111602,1000.00,12,0,1,944.205,-0.002,3.568,1104.975,0.717,1.045
1.192000,1111603,1000.00,12,0,1,949.441,3.474,3.581,1105.215,0.192,1.036
1.193000,1111604,1000.00,12,0,1,954.894,7.572,3.693,1105.744,1.036,1.045
1.194000,1111605,1000.00,12,0,1,958.185,8.392,3.868,1106.248,1.191,1.057
1.195000,1111606,1000.00,12,0,1,962.268,8.874,3.969,1106.464,1.246,1.068
1.196000,1111607,1000.00,12,0,1,953.453,0.725,3.968,1105.575,0.437,1.061
1.197000,1111608,1000.00,12,0,1,954.413,-3.799,3.996,1104.254,-1.045,1.051
1.198000,1111609,1000.00,12,0,1,956.960,0.998,3.994,1106.104,0.411,1.036
1.199000,1111610,1000.00,12,0,1,955.855,-2.020,3.972,1104.567,-0.192,1.025
1.200000,1111611,1000.00,12,0,1,955.206,-1.694,3.978,1105.407,-0.466,1.007
1.201000,1111612,1000.00,12,0,1,953.597,-2.669,3.982,1107.905,2.344,1.040
1.202000,1111613,1000.00,12,0,1,954.197,-1.383,3.965,1106.152,0.832,1.042
1.203000,1111614,1000.00,12,0,1,953.717,0.239,3.919,1108.002,1.218,1.050
1.204000,1111615,1000.00,12,0,1,952.876,0.145,3.892,1107.785,2.050,1.089
1.205000,1111616,1000.00,12,0,1,950.474,0.120,3.857,1106.176,-0.557,1.076
1.206000,1111617,1000.00,12,0,1,953.837,2.812,3.877,1104.182,-1.745,1.090
1.207000,1111618,1000.00,12,0,1,958.881,9.019,3.988,1104.999,-1.619,1.091
1.208000,1111619,1000.00,12,0,1,967.409,14.606,4.381,1106.488,0.520,1.067
1.209000,1111620,1000.00,12,0,1,941.274,-4.355,4.358,1104.879,-0.779,1.070
1.210000,1111621,1000.00,12,0,1,937.935,-16.405,4.935,1106.224,-0.238,1.069
1.211000,1111622,1000.00,12,0,1,947.952,-0.301,4.863,1105.335,0.069,1.069
1.212000,1111623,1000.00,12,0,1,949.729,-0.765,4.833,1103.750,-2.122,1.103
1.213000,1111624,1000.00,12,0,1,952.972,1.480,4.835,1104.903,-0.678,1.105
1.214000,1111625,1000.00,12,0,1,955.470,2.723,4.841,1104.326,-0.754,1.108
1.215000,1111626,1000.00,12,0,1,956.575,1.289,4.845,1104.182,-1.119,1.116
1.216000,1111627,1000.00,12,0,1,957.416,1.223,4.840,1104.374,-0.510,1.114
1.217000,1111628,1000.00,12,0,1,957.344,-0.988,4.829,1104.687,-0.326,1.114
1.218000,1111629,1000.00,12,0,1,960.034,0.843,4.830,1106.728,1.434,1.112
1.219000,1111630,1000.00,12,0,1,965.199,4.080,4.864,1104.975,0.415,1.112
1.220000,1111631,1000.00,12,0,1,963.805,3.636,4.863,1105.383,-0.319,1.113
1.221000,1111632,1000.00,12,0,1,960.298,-1.131,4.815,1103.293,-0.942,1.119
1.222000,1111633,1000.00,12,0,1,954.341,-4.659,4.818,1105.143,-0.648,1.120
1.223000,1111634,1000.00,12,0,1,947.640,-9.809,5.012,1105.359,1.149,1.130
1.224000,1111635,1000.00,12,0,1,949.033,-6.598,5.094,1105.263,0.007,1.128
1.225000,1111636,1000.00,12,0,1,948.961,-2.981,5.107,1106.656,1.630,1.136
1.226000,1111637,1000.00,12,0,1,947.159,-3.250,5.127,1106.032,1.124,1.147
1.227000,1111638,1000.00,12,0,1,946.559,-1.728,5.132,1104.831,-0.355,1.110
1.228000,1111639,1000.00,12,0,1,947.543,0.065,5.132,1106.176,0.790,1.056
1.229000,1111640,1000.00,12,0,1,946.607,0.498,5.098,1107.137,1.725,1.078
1.230000,1111641,1000.00,12,0,1,945.454,-0.845,5.065,1103.654,-0.986,1.087
1.231000,1111642,1000.00,12,0,1,949.033,1.774,5.050,1105.167,-0.946,1.094
1.232000,1111643,1000.00,12,0,1,950.978,3.421,5.066,1107.425,2.338,1.110
1.233000,1111644,1000.00,12,0,1,954.461,4.120,5.099,1107.281,1.458,1.078
1.234000,1111645,1000.00,12,0,1,962.316,9.214,5.245,1104.927,-0.414,1.077
1.235000,1111646,1000.00,12,0,1,954.726,2.196,5.249,1105.095,-1.097,1.079
1.236000,1111647,1000.00,12,0,1,951.963,-5.236,5.257,1104.687,-0.661,1.080
1.237000,1111648,1000.00,12,0,1,954.798,-1.587,5.111,1105.768,-0.325,1.081
1.238000,1111649,1000.00,12,0,1,953.212,-3.571,5.008,1104.206,-0.816,1.080
1.239000,1111650,1000.00,12,0,1,955.734,-1.910,4.991,1104.687,-1.271,1.093
1.240000,1111651,1000.00,12,0,1,960.755,3.460,5.004,1107.329,1.585,1.105
1.241000,1111652,1000.00,12,0,1,960.058,3.377,5.027,1108.074,2.210,1.144
1.242000,1111653,1000.00,12,0,1,956.191,0.183,5.003,1108.362,1.803,1.171
1.243000,1111654,1000.00,12,0,1,949.609,-4.406,4.927,1107.785,1.277,1.176
1.244000,1111655,1000.00,12,0,1,949.970,-3.445,4.807,1107.017,-0.050,1.164
1.245000,1111656,1000.00,12,0,1,951.002,0.505,4.640,1105.599,-1.019,1.160
1.246000,1111657,1000.00,12,0,1,951.099,1.419,4.644,1102.693,-3.568,1.263
1.247000,1111658,1000.00,12,0,1,952.107,3.342,4.637,1103.606,-2.771,1.314
1.248000,1111659,1000.00,12,0,1,947.688,0.552,4.635,1103.630,-1.525,1.331
1.249000,1111660,1000.00,12,0,1,947.447,-0.966,4.628,1104.326,-1.155,1.340
1.250000,1111661,1000.00,12,0,1,947.087,0.148,4.622,1105.551,0.600,1.341
1.251000,1111662,1000.00,12,0,1,946.655,-1.629,4.612,1104.206,-0.392,1.301
1.252000,1111663,1000.00,12,0,1,948.240,-0.400,4.609,1103.702,-1.116,1.305
1.253000,1111664,1000.00,12,0,1,950.162,0.158,4.609,1104.158,-0.281,1.294
1.254000,1111665,1000.00,12,0,1,954.341,2.343,4.620,1105.407,0.675,1.265
1.255000,1111666,1000.00,12,0,1,956.191,3.015,4.640,1106.945,2.148,1.299
1.256000,1111667,1000.00,12,0,1,956.695,1.267,4.626,1105.047,0.532,1.277
1.257000,1111668,1000.00,12,0,1,959.362,2.229,4.458,1107.978,1.803,1.282
1.258000,1111669,1000.00,12,0,1,963.205,4.352,3.999,1107.281,2.413,1.325
1.259000,1111670,1000.00,12,0,1,965.823,5.766,4.034,1105.287,-0.857,1.326
1.260000,1111671,1000.00,12,0,1,965.271,4.411,3.359,1107.425,1.055,1.334
1.261000,1111672,1000.00,12,0,1,961.043,0.369,3.359,1105.672,0.117,1.334
1.262000,1111673,1000.00,12,0,1,964.262,2.135,3.371,1103.462,-2.635,1.352
1.263000,1111674,1000.00,12,0,1,958.016,-0.120,3.364,1104.543,-1.219,1.359
1.264000,1111675,1000.00,12,0,1,948.048,-9.663,3.611,1104.759,-0.566,1.358
1.265000,1111676,1000.00,12,0,1,959.001,0.427,3.607,1104.783,-0.466,1.350
1.266000,1111677,1000.00,12,0,1,954.221,2.310,3.617,1104.903,-0.130,1.348
1.267000,1111678,1000.00,12,0,1,943.748,-9.642,3.863,1103.702,-0.889,1.353
1.268000,1111679,1000.00,12,0,1,944.517,-6.488,3.969,1104.615,-0.357,1.339
1.269000,1111680,1000.00,12,0,1,942.259,-6.300,4.026,1104.519,0.324,1.338
1.270000,1111681,1000.00,12,0,1,940.818,-7.309,4.125,1104.519,-0.123,1.338
1.271000,1111682,1000.00,12,0,1,942.811,-4.387,4.168,1103.702,-0.320,1.332
1.272000,1111683,1000.00,12,0,1,941.610,-4.930,4.175,1103.870,-0.568,1.331
1.273000,1111684,1000.00,12,0,1,943.508,-4.083,3.980,1104.639,0.476,1.323
1.274000,1111685,1000.00,12,0,1,952.276,2.909,3.890,1104.783,0.528,1.325
1.275000,1111686,1000.00,12,0,1,960.659,9.509,4.095,1103.654,-0.429,1.306
1.276000,1111687,1000.00,12,0,1,965.343,11.057,4.359,1105.287,0.516,1.299
1.277000,1111688,1000.00,12,0,1,964.118,7.805,4.490,1105.696,1.415,1.313
1.278000,1111689,1000.00,12,0,1,966.736,6.447,4.581,1104.735,0.070,1.308
1.279000,1111690,1000.00,12,0,1,962.292,3.026,4.601,1105.744,0.678,1.289
1.280000,1111691,1000.00,12,0,1,958.040,-3.296,4.623,1108.098,2.709,1.337
1.281000,1111692,1000.00,12,0,1,956.695,-2.890,4.634,1106.104,1.136,1.340
1.282000,1111693,1000.00,12,0,1,957.392,-1.625,4.614,1105.575,-0.367,1.300
1.283000,1111694,1000.00,12,0,1,957.896,0.799,4.579,1106.272,0.680,1.287
1.284000,1111695,1000.00,12,0,1,958.809,2.671,4.406,1105.167,-0.298,1.286
1.285000,1111696,1000.00,12,0,1,954.533,0.812,4.396,1104.687,-0.919,1.284
1.286000,1111697,1000.00,12,0,1,953.477,-0.164,4.334,1104.903,-0.380,1.281
1.287000,1111698,1000.00,12,0,1,952.396,0.854,4.330,1107.953,1.888,1.308
1.288000,1111699,1000.00,12,0,1,952.924,1.167,4.303,1105.696,0.999,1.311
1.289000,1111700,1000.00,12,0,1,952.083,1.215,4.298,1105.744,-0.667,1.302
1.290000,1111701,1000.00,12,0,1,952.804,0.759,4.271,1104.735,-0.185,1.282
1.291000,1111702,1000.00,12,0,1,955.110,2.122,4.255,1105.191,-0.948,1.251
1.292000,1111703,1000.00,12,0,1,953.933,0.178,4.255,1106.272,0.808,1.230
1.293000,1111704,1000.00,12,0,1,948.889,-5.896,4.291,1105.047,-0.492,1.219
1.294000,1111705,1000.00,12,0,1,952.203,-5.040,4.323,1105.960,-0.229,1.219
1.295000,1111706,1000.00,12,0,1,959.169,0.958,4.324,1105.768,0.237,1.211
1.296000,1111707,1000.00,12,0,1,960.154,0.946,4.322,1105.311,-0.907,1.108
1.297000,1111708,1000.00,12,0,1,960.491,-0.892,4.298,1105.792,-0.145,1.037
1.298000,1111709,1000.00,12,0,1,965.583,2.533,4.312,1105.095,-0.862,1.022
1.299000,1111710,1000.00,12,0,1,968.225,4.601,4.358,1104.495,-1.358,1.026
1.300000,1111711,1000.00,12,0,1,963.013,-0.206,4.358,1106.296,0.068,1.023
1.301000,1111712,1000.00,12,0,1,959.049,-4.432,4.397,1105.263,-0.070,1.022
1.302000,1111713,1000.00,12,0,1,960.226,-1.971,4.406,1104.446,-1.441,1.030
1.303000,1111714,1000.00,12,0,1,959.073,-0.876,4.407,1103.726,-1.351,1.046
1.304000,1111715,1000.00,12,0,1,961.235,1.605,4.401,1104.446,-0.908,1.050
1.305000,1111716,1000.00,12,0,1,960.202,3.271,4.404,1105.215,0.421,1.007
1.306000,1111717,1000.00,12,0,1,951.675,-3.363,4.426,1105.455,0.584,1.007
1.307000,1111718,1000.00,12,0,1,952.059,-3.212,4.438,1105.407,0.625,0.979
1.308000,1111719,1000.00,12,0,1,956.936,3.373,4.421,1103.654,-0.676,0.922
1.309000,1111720,1000.00,12,0,1,953.813,1.246,4.349,1103.630,-1.083,0.927
1.310000,1111721,1000.00,12,0,1,948.408,-4.360,4.348,1105.191,0.802,0.922
1.311000,1111722,1000.00,12,0,1,947.616,-5.478,4.416,1106.344,1.697,0.952
1.312000,1111723,1000.00,12,0,1,948.408,-4.575,4.453,1105.335,0.934,0.886
1.313000,1111724,1000.00,12,0,1,952.107,-2.269,4.465,1104.254,-0.557,0.873
1.314000,1111725,1000.00,12,0,1,957.008,1.432,4.255,1103.366,-1.119,0.884
1.315000,1111726,1000.00,12,0,1,958.977,1.840,4.263,1105.672,0.446,0.883
1.316000,1111727,1000.00,12,0,1,958.329,-0.375,4.251,1106.200,1.636,0.913
1.317000,1111728,1000.00,12,0,1,957.992,-2.015,4.036,1105.119,0.013,0.904
1.318000,1111729,1000.00,12,0,1,961.019,-0.272,3.931,1106.440,0.885,0.912
1.319000,1111730,1000.00,12,0,1,963.661,2.251,3.841,1107.809,2.185,0.961
1.320000,1111731,1000.00,12,0,1,960.130,-0.532,3.701,1107.161,1.284,0.978
1.321000,1111732,1000.00,12,0,1,959.698,-1.429,3.654,1106.296,0.176,0.977
1.322000,1111733,1000.00,12,0,1,959.169,0.262,3.587,1106.464,0.080,0.974
1.323000,1111734,1000.00,12,0,1,959.482,1.111,3.543,1106.008,-0.095,0.972
1.324000,1111735,1000.00,12,0,1,961.403,4.516,3.577,1105.359,-0.844,0.976
1.325000,1111736,1000.00,12,0,1,957.080,2.459,3.333,1104.687,-1.141,0.988
1.326000,1111737,1000.00,12,0,1,949.249,-3.795,2.992,1104.663,-1.131,0.998
1.327000,1111738,1000.00,12,0,1,951.363,-1.478,2.789,1105.984,0.243,0.978
1.328000,1111739,1000.00,12,0,1,950.570,0.835,2.638,1107.233,1.482,1.001
1.329000,1111740,1000.00,12,0,1,949.201,-1.147,2.608,1107.017,1.219,1.011
1.330000,1111741,1000.00,12,0,1,949.345,-0.213,2.566,1106.776,0.622,0.939
1.331000,1111742,1000.00,12,0,1,952.852,1.741,2.545,1108.026,1.400,0.946
1.332000,1111743,1000.00,12,0,1,954.053,2.628,2.562,1107.209,0.821,0.952
1.333000,1111744,1000.00,12,0,1,955.951,1.873,2.573,1106.008,-0.898,0.956
1.334000,1111745,1000.00,12,0,1,957.920,2.228,2.565,1105.696,-1.102,0.967
1.335000,1111746,1000.00,12,0,1,960.587,2.280,2.582,1105.984,-0.940,0.968
1.336000,1111747,1000.00,12,0,1,963.661,3.125,2.620,1106.176,-0.626,0.970
1.337000,1111748,1000.00,12,0,1,965.847,3.351,2.660,1107.857,0.563,0.936
1.338000,1111749,1000.00,12,0,1,965.583,1.595,2.664,1108.242,1.169,0.940
1.339000,1111750,1000.00,12,0,1,963.565,-0.994,2.662,1105.167,-1.650,0.964
1.340000,1111751,1000.00,12,0,1,964.862,-0.657,2.662,1105.888,-1.734,0.995
1.341000,1111752,1000.00,12,0,1,967.048,2.283,2.664,1107.978,0.943,0.994
1.342000,1111753,1000.00,12,0,1,965.655,1.635,2.674,1107.353,0.327,0.989
1.343000,1111754,1000.00,12,0,1,960.995,-1.421,2.549,1105.311,-1.458,1.008
1.344000,1111755,1000.00,12,0,1,958.137,-3.048,2.485,1105.335,-1.606,1.033
1.345000,1111756,1000.00,12,0,1,958.329,-0.981,2.485,1106.104,-0.367,1.033
1.346000,1111757,1000.00,12,0,1,955.446,-1.364,2.489,1106.969,0.424,1.027
1.347000,1111758,1000.00,12,0,1,959.842,2.208,2.505,1106.248,0.118,1.027
1.348000,1111759,1000.00,12,0,1,962.364,6.663,2.653,1105.455,-0.809,1.026
1.349000,1111760,1000.00,12,0,1,970.459,10.833,2.993,1105.191,-0.821,1.015
1.350000,1111761,1000.00,12,0,1,962.893,6.117,3.116,1104.302,-1.342,1.032
1.351000,1111762,1000.00,12,0,1,943.556,-14.682,3.691,1103.342,-2.057,1.072
1.352000,1111763,1000.00,12,0,1,951.819,-10.315,3.959,1104.350,-1.004,1.062
1.353000,1111764,1000.00,12,0,1,962.556,2.980,3.980,1105.984,0.761,1.051
1.354000,1111765,1000.00,12,0,1,964.958,1.967,3.983,1105.383,0.458,1.045
1.355000,1111766,1000.00,12,0,1,961.836,-1.354,3.961,1103.654,-1.301,1.059
1.356000,1111767,1000.00,12,0,1,965.199,-2.186,3.944,1106.464,0.735,1.061
1.357000,1111768,1000.00,12,0,1,965.727,-0.589,3.919,1108.050,2.847,1.131
1.358000,1111769,1000.00,12,0,1,961.860,-5.852,3.977,1106.752,1.084,1.138
1.359000,1111770,1000.00,12,0,1,959.386,-7.596,4.115,1108.002,1.547,1.148
1.360000,1111771,1000.00,12,0,1,957.488,-7.984,4.223,1107.425,1.451,1.161
1.361000,1111772,1000.00,12,0,1,961.259,-3.748,4.185,1105.623,-0.796,1.142
1.362000,1111773,1000.00,12,0,1,958.689,-2.141,4.145,1104.879,-1.255,1.148
1.363000,1111774,1000.00,12,0,1,950.186,-8.672,4.311,1104.446,-1.441,1.163
1.364000,1111775,1000.00,12,0,1,948.072,-7.961,4.451,1105.047,-0.678,1.156
1.365000,1111776,1000.00,12,0,1,952.131,-1.432,4.448,1106.897,1.157,1.166
1.366000,1111777,1000.00,12,0,1,957.416,5.765,4.522,1104.903,0.024,1.143
1.367000,1111778,1000.00,12,0,1,960.346,9.370,4.703,1105.287,-0.529,1.145
1.368000,1111779,1000.00,12,0,1,955.374,5.529,4.768,1104.855,0.146,1.139
1.369000,1111780,1000.00,12,0,1,952.828,1.541,4.762,1103.101,-1.779,1.124
1.370000,1111781,1000.00,12,0,1,954.533,3.132,4.782,1105.287,0.078,1.110
1.371000,1111782,1000.00,12,0,1,953.116,1.413,4.782,1105.720,1.270,1.124
1.372000,1111783,1000.00,12,0,1,958.689,3.700,4.810,1105.888,0.603,1.127
1.373000,1111784,1000.00,12,0,1,961.764,6.480,4.894,1105.287,0.497,1.129
1.374000,1111785,1000.00,12,0,1,964.142,4.826,4.900,1104.855,-0.529,1.125
1.375000,1111786,1000.00,12,0,1,966.135,5.143,4.942,1105.960,0.542,1.116
1.376000,1111787,1000.00,12,0,1,969.066,4.584,4.955,1106.080,0.654,1.109
1.377000,1111788,1000.00,12,0,1,968.177,2.768,4.966,1107.497,1.344,1.124
1.378000,1111789,1000.00,12,0,1,967.360,-0.316,4.965,1106.560,0.933,1.112
1.379000,1111790,1000.00,12,0,1,970.099,1.434,4.967,1106.200,-0.309,1.100
1.380000,1111791,1000.00,12,0,1,969.907,1.631,4.972,1104.254,-1.273,1.111
1.381000,1111792,1000.00,12,0,1,969.042,0.251,4.966,1105.023,-1.387,1.111
1.382000,1111793,1000.00,12,0,1,967.649,0.197,4.952,1104.206,-0.787,1.110
1.383000,1111794,1000.00,12,0,1,964.790,-1.670,4.951,1105.503,-0.454,1.105
1.384000,1111795,1000.00,12,0,1,967.961,1.747,4.947,1106.560,1.495,1.114
1.385000,1111796,1000.00,12,0,1,972.285,7.085,5.037,1105.768,0.485,1.108
1.386000,1111797,1000.00,12,0,1,970.892,6.237,5.094,1103.846,-1.048,1.114
1.387000,1111798,1000.00,12,0,1,962.004,-1.489,5.077,1105.191,-0.187,1.112
1.388000,1111799,1000.00,12,0,1,944.060,-16.245,5.568,1104.759,0.270,1.100
1.389000,1111800,1000.00,12,0,1,950.858,-12.470,5.839,1105.359,0.165,1.075
1.390000,1111801,1000.00,12,0,1,957.680,-0.262,5.838,1105.239,0.585,1.050
1.391000,1111802,1000.00,12,0,1,960.010,-0.834,5.830,1105.167,0.076,1.042
1.392000,1111803,1000.00,12,0,1,959.818,-0.165,5.826,1104.134,-0.603,1.044
1.393000,1111804,1000.00,12,0,1,963.902,0.339,5.822,1104.855,-0.388,1.025
1.394000,1111805,1000.00,12,0,1,960.923,-1.640,5.811,1106.488,1.214,1.014
1.395000,1111806,1000.00,12,0,1,958.737,-6.669,5.885,1106.128,0.928,1.022
1.396000,1111807,1000.00,12,0,1,964.574,-2.123,5.890,1105.167,-0.437,1.022
1.397000,1111808,1000.00,12,0,1,966.760,0.403,5.882,1102.789,-2.144,1.066
1.398000,1111809,1000.00,12,0,1,970.003,1.050,5.808,1104.422,-1.432,1.079
1.399000,1111810,1000.00,12,0,1,970.051,2.342,5.612,1105.984,1.121,1.084
1.400000,1111811,1000.00,12,0,1,965.895,-2.447,5.556,1105.575,0.314,1.068
1.401000,1111812,1000.00,12,0,1,964.766,-2.505,5.165,1105.287,0.185,1.028
1.402000,1111813,1000.00,12,0,1,961.331,-3.662,4.982,1104.759,-0.255,1.019
1.403000,1111814,1000.00,12,0,1,963.133,-1.284,4.967,1104.783,-0.227,1.014
1.404000,1111815,1000.00,12,0,1,964.286,2.794,4.975,1105.912,0.906,1.020
1.405000,1111816,1000.00,12,0,1,962.869,2.341,4.983,1106.296,1.367,1.021
1.406000,1111817,1000.00,12,0,1,958.305,0.102,4.973,1106.248,1.160,1.029
1.407000,1111818,1000.00,12,0,1,957.416,-0.616,4.973,1104.615,-0.187,0.948
1.408000,1111819,1000.00,12,0,1,956.815,0.669,4.905,1106.728,0.939,0.945
1.409000,1111820,1000.00,12,0,1,958.809,1.906,4.793,1106.536,1.671,0.949
1.410000,1111821,1000.00,12,0,1,958.641,2.428,4.671,1106.849,0.769,0.933
1.411000,1111822,1000.00,12,0,1,957.848,0.216,4.641,1104.278,-0.685,0.931
1.412000,1111823,1000.00,12,0,1,959.338,0.459,4.632,1104.903,-1.430,0.936
1.413000,1111824,1000.00,12,0,1,964.550,3.380,4.492,1104.999,-0.182,0.914
1.414000,1111825,1000.00,12,0,1,965.847,3.422,4.375,1105.335,-0.637,0.913
1.415000,1111826,1000.00,12,0,1,966.352,1.150,4.374,1105.119,-0.338,0.900
1.416000,1111827,1000.00,12,0,1,969.258,1.904,4.305,1105.527,-0.364,0.901
1.417000,1111828,1000.00,12,0,1,971.876,2.895,4.117,1107.017,0.927,0.908
1.418000,1111829,1000.00,12,0,1,973.149,2.522,4.057,1106.296,0.568,0.911
1.419000,1111830,1000.00,12,0,1,971.180,0.361,4.052,1105.167,-1.051,0.888
1.420000,1111831,1000.00,12,0,1,970.795,-0.993,4.030,1106.488,0.227,0.889
1.421000,1111832,1000.00,12,0,1,972.189,1.150,4.028,1107.689,1.326,0.890
1.422000,1111833,1000.00,12,0,1,973.053,2.400,4.009,1106.921,0.735,0.892
1.423000,1111834,1000.00,12,0,1,970.363,1.333,3.907,1104.446,-1.607,0.918
1.424000,1111835,1000.00,12,0,1,966.232,-1.665,3.854,1105.527,-0.962,0.925
1.425000,1111836,1000.00,12,0,1,961.572,-4.044,3.828,1105.720,0.112,0.922
1.426000,1111837,1000.00,12,0,1,961.427,-3.167,3.799,1105.455,-0.474,0.920
1.427000,1111838,1000.00,12,0,1,965.991,2.451,3.795,1107.521,1.393,0.921
1.428000,1111839,1000.00,12,0,1,965.655,3.466,3.826,1107.617,1.799,0.947
1.429000,1111840,1000.00,12,0,1,963.325,0.400,3.821,1107.209,0.757,0.952
1.430000,1111841,1000.00,12,0,1,961.596,-1.307,3.819,1104.927,-0.896,0.943
1.431000,1111842,1000.00,12,0,1,958.905,-4.359,3.868,1105.023,-1.612,0.950
1.432000,1111843,1000.00,12,0,1,962.364,-2.740,3.887,1106.224,0.150,0.944
1.433000,1111844,1000.00,12,0,1,961.115,-3.127,3.905,1106.680,0.288,0.943
1.434000,1111845,1000.00,12,0,1,962.292,-4.847,3.957,1104.903,-1.008,0.930
1.435000,1111846,1000.00,12,0,1,964.238,-2.711,3.847,1104.639,-1.768,0.960
1.436000,1111847,1000.00,12,0,1,969.618,-0.134,3.745,1104.663,-1.171,0.963
1.437000,1111848,1000.00,12,0,1,977.785,6.529,3.851,1105.143,-0.868,0.970
1.438000,1111849,1000.00,12,0,1,976.993,5.225,3.178,1105.287,-0.398,0.971
1.439000,1111850,1000.00,12,0,1,970.435,-2.408,2.666,1105.768,-0.065,0.971
1.440000,1111851,1000.00,12,0,1,963.205,-8.271,2.911,1103.702,-1.379,0.987
1.441000,1111852,1000.00,12,0,1,965.487,-6.202,3.038,1104.422,-1.294,1.004
1.442000,1111853,1000.00,12,0,1,966.736,-1.138,3.042,1104.975,0.169,1.000
1.443000,1111854,1000.00,12,0,1,962.821,-3.389,3.079,1106.224,0.856,1.006
1.444000,1111855,1000.00,12,0,1,959.482,-4.076,3.124,1106.152,1.333,1.009
1.445000,1111856,1000.00,12,0,1,959.314,-2.248,2.995,1105.888,0.650,1.005
1.446000,1111857,1000.00,12,0,1,958.281,-0.574,2.981,1105.167,0.228,1.003
1.447000,1111858,1000.00,12,0,1,957.008,-0.403,2.981,1105.095,-0.009,0.957
1.448000,1111859,1000.00,12,0,1,956.479,0.284,2.978,1105.335,0.347,0.936
1.449000,1111860,1000.00,12,0,1,955.855,0.417,2.960,1106.656,1.390,0.943
1.450000,1111861,1000.00,12,0,1,960.899,3.928,2.991,1106.224,1.186,0.957
1.451000,1111862,1000.00,12,0,1,961.860,5.401,3.067,1106.296,0.695,0.962
1.452000,1111863,1000.00,12,0,1,964.310,4.273,3.083,1106.224,0.717,0.966
1.453000,1111864,1000.00,12,0,1,968.249,6.691,3.220,1104.903,-0.575,0.969
1.454000,1111865,1000.00,12,0,1,969.594,5.135,3.277,1106.104,-0.026,0.961
1.455000,1111866,1000.00,12,0,1,968.610,2.074,3.273,1105.912,0.462,0.943
1.456000,1111867,1000.00,12,0,1,969.066,0.117,3.273,1106.825,0.364,0.931
1.457000,1111868,1000.00,12,0,1,970.387,0.137,3.272,1107.209,1.230,0.946
1.458000,1111869,1000.00,12,0,1,973.894,2.015,3.283,1105.455,-0.756,0.943
1.459000,1111870,1000.00,12,0,1,974.831,2.779,3.296,1105.143,-1.235,0.929
1.460000,1111871,1000.00,12,0,1,973.005,0.674,3.279,1105.936,-0.304,0.924
1.461000,1111872,1000.00,12,0,1,967.288,-3.562,3.317,1105.167,-0.738,0.925
1.462000,1111873,1000.00,12,0,1,966.808,-3.796,3.360,1104.567,-1.333,0.922
1.463000,1111874,1000.00,12,0,1,967.745,-0.273,3.326,1105.696,-0.227,0.922
1.464000,1111875,1000.00,12,0,1,965.535,-0.627,3.292,1104.831,-0.381,0.919
1.465000,1111876,1000.00,12,0,1,965.775,0.555,3.289,1105.143,-0.598,0.922
1.466000,1111877,1000.00,12,0,1,967.072,3.366,3.312,1106.776,1.308,0.939
1.467000,1111878,1000.00,12,0,1,965.295,2.412,3.304,1107.017,1.452,0.952
1.468000,1111879,1000.00,12,0,1,967.288,3.550,3.323,1105.744,0.238,0.949
1.469000,1111880,1000.00,12,0,1,966.208,3.188,3.353,1106.560,0.456,0.940
1.470000,1111881,1000.00,12,0,1,967.409,1.985,3.362,1105.335,-0.026,0.939
1.471000,1111882,1000.00,12,0,1,968.057,2.239,3.373,1103.894,-1.838,0.956
1.472000,1111883,1000.00,12,0,1,968.610,0.303,3.356,1105.191,-0.532,0.954
1.473000,1111884,1000.00,12,0,1,976.440,4.716,3.416,1106.656,1.043,0.938
1.474000,1111885,1000.00,12,0,1,980.836,7.422,3.566,1105.407,0.019,0.928
1.475000,1111886,1000.00,12,0,1,968.177,-5.508,3.605,1105.696,-0.273,0.929
1.476000,1111887,1000.00,12,0,1,962.628,-14.196,4.102,1107.209,1.242,0.943
1.477000,1111888,1000.00,12,0,1,965.943,-9.620,4.308,1105.383,-0.145,0.922
1.478000,1111889,1000.00,12,0,1,967.385,-7.287,4.402,1105.455,-0.901,0.896
1.479000,1111890,1000.00,12,0,1,971.420,-3.293,4.427,1103.918,-1.256,0.907
1.480000,1111891,1000.00,12,0,1,980.452,5.514,4.491,1104.759,-1.377,0.919
1.481000,1111892,1000.00,12,0,1,983.262,9.052,4.629,1105.359,0.298,0.891
1.482000,1111893,1000.00,12,0,1,954.245,-13.188,4.975,1106.728,0.828,0.898
1.483000,1111894,1000.00,12,0,1,946.294,-24.405,6.039,1105.095,0.253,0.898
1.484000,1111895,1000.00,12,0,1,952.516,-9.537,6.150,1104.302,-1.291,0.905
1.485000,1111896,1000.00,12,0,1,956.143,-4.182,6.166,1103.245,-1.380,0.892
1.486000,1111897,1000.00,12,0,1,957.368,0.854,6.168,1105.335,-0.044,0.876
1.487000,1111898,1000.00,12,0,1,955.278,0.343,6.098,1106.704,2.013,0.913
1.488000,1111899,1000.00,12,0,1,953.645,-0.381,6.054,1105.575,0.719,0.917
1.489000,1111900,1000.00,12,0,1,954.245,1.069,6.046,1104.615,-0.412,0.919
1.490000,1111901,1000.00,12,0,1,958.137,3.781,5.956,1105.912,0.674,0.903
1.491000,1111902,1000.00,12,0,1,961.475,6.812,5.969,1106.128,1.038,0.896
1.492000,1111903,1000.00,12,0,1,960.875,4.284,5.997,1106.536,1.026,0.908
1.493000,1111904,1000.00,12,0,1,962.725,3.829,6.003,1107.065,1.351,0.920
1.494000,1111905,1000.00,12,0,1,966.472,5.258,6.021,1106.032,0.398,0.902
1.495000,1111906,1000.00,12,0,1,967.024,4.305,6.043,1107.809,1.102,0.911
1.496000,1111907,1000.00,12,0,1,967.433,2.285,6.052,1106.680,0.940,0.920
1.497000,1111908,1000.00,12,0,1,969.210,2.831,6.065,1107.497,0.210,0.920
1.498000,1111909,1000.00,12,0,1,970.027,2.709,6.076,1106.176,0.161,0.919
1.499000,1111910,1000.00,12,0,1,968.922,1.485,6.080,1107.233,-0.313,0.899
1.500000,1111911,1000.00,12,0,1,968.369,0.874,6.056,1106.296,0.107,0.883
1.501000,1111912,1000.00,12,0,1,969.450,2.485,6.018,1105.263,-1.736,0.911
1.502000,1111913,1000.00,12,0,1,963.853,-0.533,5.988,1105.864,-0.705,0.911
1.503000,1111914,1000.00,12,0,1,963.733,-1.112,5.914,1105.287,-0.908,0.917
1.504000,1111915,1000.00,12,0,1,965.487,3.404,5.889,1104.711,-1.531,0.942
1.505000,1111916,1000.00,12,0,1,965.943,4.134,5.911,1105.960,-0.136,0.940
1.506000,1111917,1000.00,12,0,1,964.742,4.152,5.940,1105.936,0.093,0.938
1.507000,1111918,1000.00,12,0,1,960.130,0.303,5.940,1105.239,-0.525,0.925
1.508000,1111919,1000.00,12,0,1,958.377,-1.767,5.939,1106.344,0.191,0.919
1.509000,1111920,1000.00,12,0,1,960.779,0.611,5.926,1107.257,1.346,0.923
1.510000,1111921,1000.00,12,0,1,963.205,2.181,5.934,1107.185,0.888,0.930
1.511000,1111922,1000.00,12,0,1,966.039,3.317,5.931,1107.785,1.184,0.939
1.512000,1111923,1000.00,12,0,1,967.649,3.022,5.922,1106.344,-0.024,0.920
1.513000,1111924,1000.00,12,0,1,968.802,1.758,5.927,1106.897,-0.273,0.920
1.514000,1111925,1000.00,12,0,1,968.297,-0.507,5.927,1107.929,1.042,0.930
1.515000,1111926,1000.00,12,0,1,967.024,-3.453,5.946,1106.416,-0.422,0.929
1.516000,1111927,1000.00,12,0,1,967.577,-4.169,5.956,1105.936,-1.221,0.926
1.517000,1111928,1000.00,12,0,1,972.093,-0.957,5.948,1106.584,-0.362,0.905
1.518000,1111929,1000.00,12,0,1,968.345,-3.063,5.943,1107.569,0.435,0.906
1.519000,1111930,1000.00,12,0,1,968.658,-4.577,5.961,1108.506,1.321,0.923
1.520000,1111931,1000.00,12,0,1,978.626,5.410,6.003,1106.945,0.013,0.923
1.521000,1111932,1000.00,12,0,1,975.600,5.063,6.037,1104.927,-2.042,0.931
1.522000,1111933,1000.00,12,0,1,970.147,-1.499,6.041,1106.344,-0.859,0.936
1.523000,1111934,1000.00,12,0,1,963.397,-4.662,6.040,1107.857,1.058,0.937
1.524000,1111935,1000.00,12,0,1,958.497,-8.365,6.065,1105.720,-0.665,0.941
1.525000,1111936,1000.00,12,0,1,957.296,-6.239,6.079,1103.942,-2.540,1.007
1.526000,1111937,1000.00,12,0,1,956.263,-4.898,5.780,1105.335,-1.082,1.003
1.527000,1111938,1000.00,12,0,1,957.176,-2.470,5.628,1107.449,1.165,1.016
1.528000,1111939,1000.00,12,0,1,959.410,0.821,5.534,1106.560,0.629,1.012
1.529000,1111940,1000.00,12,0,1,955.134,-1.960,5.521,1105.527,-0.776,1.002
1.530000,1111941,1000.00,12,0,1,955.807,-2.882,5.481,1106.128,-0.172,0.984
1.531000,1111942,1000.00,12,0,1,955.230,-2.139,5.338,1105.840,-0.208,0.983
1.532000,1111943,1000.00,12,0,1,954.846,-4.076,5.035,1104.422,-1.471,0.998
1.533000,1111944,1000.00,12,0,1,959.506,-0.558,3.667,1105.119,-0.981,1.007
1.534000,1111945,1000.00,12,0,1,966.448,4.577,3.470,1106.368,0.536,0.993
1.535000,1111946,1000.00,12,0,1,972.549,8.199,3.611,1107.401,1.309,0.991
1.536000,1111947,1000.00,12,0,1,978.002,10.722,3.915,1104.807,-0.557,0.995
1.537000,1111948,1000.00,12,0,1,972.621,4.798,3.973,1105.984,-0.563,0.956
1.538000,1111949,1000.00,12,0,1,967.649,-2.560,3.989,1107.978,2.142,0.998
1.539000,1111950,1000.00,12,0,1,969.066,-1.094,3.989,1107.833,1.583,1.021
1.540000,1111951,1000.00,12,0,1,966.664,-1.667,3.960,1105.912,-0.086,1.017
1.541000,1111952,1000.00,12,0,1,966.496,-1.823,3.850,1105.864,-0.589,1.009
1.542000,1111953,1000.00,12,0,1,965.463,0.037,3.802,1106.776,0.562,1.002
1.543000,1111954,1000.00,12,0,1,964.742,0.040,3.763,1107.137,0.896,0.992
1.544000,1111955,1000.00,12,0,1,962.965,0.943,3.691,1105.047,-0.773,0.996
1.545000,1111956,1000.00,12,0,1,962.965,1.462,3.646,1105.864,-0.603,0.988
1.546000,1111957,1000.00,12,0,1,961.692,2.244,3.646,1106.536,0.700,0.984
1.547000,1111958,1000.00,12,0,1,958.473,-0.312,3.624,1104.302,-1.270,1.000
1.548000,1111959,1000.00,12,0,1,959.842,0.722,3.605,1105.720,-0.610,1.003
1.549000,1111960,1000.00,12,0,1,960.803,2.235,3.613,1105.792,0.515,1.005
1.550000,1111961,1000.00,12,0,1,959.578,-0.021,3.611,1104.663,-1.138,1.017
1.551000,1111962,1000.00,12,0,1,960.130,-0.642,3.595,1107.065,0.958,0.997
1.552000,1111963,1000.00,12,0,1,962.604,0.135,3.594,1105.984,0.642,0.996
1.553000,1111964,1000.00,12,0,1,964.718,0.709,3.592,1106.608,0.053,0.987
1.554000,1111965,1000.00,12,0,1,966.832,0.636,3.561,1106.128,0.500,0.966
1.555000,1111966,1000.00,12,0,1,967.096,-0.386,3.513,1106.464,-0.155,0.966
1.556000,1111967,1000.00,12,0,1,970.411,0.402,3.464,1107.281,1.059,0.977
1.557000,1111968,1000.00,12,0,1,975.335,4.128,3.512,1107.713,1.023,0.985
1.558000,1111969,1000.00,12,0,1,975.335,3.417,3.537,1106.512,0.109,0.985
1.559000,1111970,1000.00,12,0,1,975.479,2.155,3.549,1106.368,-0.463,0.969
1.560000,1111971,1000.00,12,0,1,978.866,5.001,3.605,1106.200,-0.266,0.961
1.561000,1111972,1000.00,12,0,1,978.458,5.196,3.649,1104.831,-1.335,0.965
1.562000,1111973,1000.00,12,0,1,975.504,2.418,3.640,1105.119,-1.211,0.980
1.563000,1111974,1000.00,12,0,1,970.892,-0.666,3.633,1106.296,0.373,0.981
1.564000,1111975,1000.00,12,0,1,956.887,-10.588,3.929,1105.527,-0.149,0.970
1.565000,1111976,1000.00,12,0,1,955.134,-12.352,4.272,1105.143,-0.591,0.972
1.566000,1111977,1000.00,12,0,1,954.678,-7.002,4.345,1104.855,-0.585,0.960
1.567000,1111978,1000.00,12,0,1,952.612,-7.937,4.486,1104.495,-0.818,0.966
1.568000,1111979,1000.00,12,0,1,953.308,-4.869,4.518,1106.488,0.768,0.970
1.569000,1111980,1000.00,12,0,1,954.533,-2.828,4.489,1105.095,0.309,0.953
1.570000,1111981,1000.00,12,0,1,955.110,-1.962,4.432,1105.816,-0.211,0.953
1.571000,1111982,1000.00,12,0,1,957.776,-0.224,4.374,1105.672,0.625,0.912
1.572000,1111983,1000.00,12,0,1,960.322,1.183,4.372,1104.807,-0.865,0.913
1.573000,1111984,1000.00,12,0,1,964.046,2.742,4.339,1105.720,0.088,0.900
1.574000,1111985,1000.00,12,0,1,960.419,-1.132,4.178,1105.575,0.173,0.896
1.575000,1111986,1000.00,12,0,1,959.458,-4.757,4.139,1105.143,-0.488,0.823
1.576000,1111987,1000.00,12,0,1,959.890,-3.887,4.117,1105.095,-0.308,0.810
1.577000,1111988,1000.00,12,0,1,961.019,-3.473,4.132,1105.696,0.070,0.793
1.578000,1111989,1000.00,12,0,1,965.030,0.422,4.131,1106.704,1.161,0.805
1.579000,1111990,1000.00,12,0,1,968.826,4.501,4.170,1105.383,0.127,0.798
1.580000,1111991,1000.00,12,0,1,973.270,8.172,4.308,1105.143,-0.478,0.801
1.581000,1111992,1000.00,12,0,1,967.240,4.812,4.351,1105.936,0.553,0.804
1.582000,1111993,1000.00,12,0,1,964.094,0.354,4.313,1106.849,1.281,0.797
1.583000,1111994,1000.00,12,0,1,960.611,0.731,4.314,1107.809,2.057,0.837
1.584000,1111995,1000.00,12,0,1,957.176,-1.850,4.273,1106.464,0.923,0.844
1.585000,1111996,1000.00,12,0,1,959.578,2.305,4.125,1106.272,0.069,0.823
1.586000,1111997,1000.00,12,0,1,955.638,1.462,3.842,1105.383,-0.215,0.820
1.587000,1111998,1000.00,12,0,1,954.846,-0.096,3.782,1106.728,0.234,0.817
1.588000,1111999,1000.00,12,0,1,958.137,4.389,3.815,1106.032,0.471,0.762
1.589000,1112000,1000.00,12,0,1,957.992,3.779,3.849,1106.728,0.032,0.728
1.590000,1112001,1000.00,12,0,1,955.302,0.578,3.843,1106.728,0.705,0.735
1.591000,1112002,1000.00,12,0,1,956.407,-0.379,3.835,1106.056,-0.510,0.734
1.592000,1112003,1000.00,12,0,1,961.788,3.128,3.860,1106.680,-0.011,0.729
1.593000,1112004,1000.00,12,0,1,962.845,2.817,3.881,1107.137,0.444,0.721
1.594000,1112005,1000.00,12,0,1,963.998,0.801,3.880,1105.047,-1.375,0.739
1.595000,1112006,1000.00,12,0,1,966.159,1.273,3.879,1105.143,-1.699,0.772
1.596000,1112007,1000.00,12,0,1,966.256,-0.323,3.866,1105.575,-0.747,0.773
1.597000,1112008,1000.00,12,0,1,968.297,-0.036,3.866,1104.374,-1.622,0.786
1.598000,1112009,1000.00,12,0,1,967.889,-0.287,3.864,1104.254,-1.771,0.820
1.599000,1112010,1000.00,12,0,1,967.505,-1.368,3.856,1104.567,-0.901,0.827
1.600000,1112011,1000.00,12,0,1,965.175,-2.039,3.867,1106.464,0.593,0.816
1.601000,1112012,1000.00,12,0,1,963.325,-3.098,3.891,1105.215,0.388,0.806
1.602000,1112013,1000.00,12,0,1,961.692,-2.264,3.904,1104.855,-0.793,0.809
1.603000,1112014,1000.00,12,0,1,963.853,0.838,3.904,1106.849,1.463,0.835
1.604000,1112015,1000.00,12,0,1,967.385,6.065,3.997,1106.993,1.658,0.864
1.605000,1112016,1000.00,12,0,1,966.616,6.484,4.100,1104.903,-0.314,0.865
1.606000,1112017,1000.00,12,0,1,970.219,8.612,4.277,1107.137,0.933,0.862
1.607000,1112018,1000.00,12,0,1,970.483,9.785,4.457,1105.599,0.712,0.856
1.608000,1112019,1000.00,12,0,1,961.956,0.844,4.432,1104.422,-1.507,0.882
1.609000,1112020,1000.00,12,0,1,954.077,-7.285,4.540,1105.431,-0.031,0.880
1.610000,1112021,1000.00,12,0,1,951.050,-10.072,4.706,1107.185,1.310,0.898
1.611000,1112022,1000.00,12,0,1,952.035,-8.894,4.815,1107.713,1.859,0.916
