Frame_Index,System_Time_s,Human_Readable
0,1775226460.250424,16:27:40.250
1,1775226460.2655356,16:27:40.265
2,1775226460.2694862,16:27:40.269
3,1775226460.280752,16:27:40.280
4,1775226460.285884,16:27:40.285
5,1775226460.3199422,16:27:40.319
6,1775226460.3269727,16:27:40.326
7,1775226460.3447652,16:27:40.344
8,1775226460.3543558,16:27:40.354
9,1775226460.3604763,16:27:40.360
10,1775226460.3624768,16:27:40.362
11,1775226460.3768349,16:27:40.376
12,1775226460.3798807,16:27:40.379
13,1775226460.3952801,16:27:40.395
14,1775226460.4208019,16:27:40.420
15,1775226460.4257514,16:27:40.425
16,1775226460.429792,16:27:40.429
17,1775226460.4400551,16:27:40.440
18,1775226460.4440587,16:27:40.444
19,1775226460.4566085,16:27:40.456
20,1775226460.4726052,16:27:40.472
21,1775226460.4756062,16:27:40.475
22,1775226460.4884357,16:27:40.488
23,1775226460.4913833,16:27:40.491
24,1775226460.5052068,16:27:40.505
25,1775226460.5333686,16:27:40.533
26,1775226460.53738,16:27:40.537
27,1775226460.540483,16:27:40.540
28,1775226460.5534728,16:27:40.553
29,1775226460.557055,16:27:40.557
30,1775226460.5688434,16:27:40.568
31,1775226460.571908,16:27:40.571
32,1775226460.585461,16:27:40.585
33,1775226460.6006021,16:27:40.600
34,1775226460.6036701,16:27:40.603
35,1775226460.6256802,16:27:40.625
36,1775226460.6472,16:27:40.647
37,1775226460.6491988,16:27:40.649
38,1775226460.6531968,16:27:40.653
39,1775226460.680224,16:27:40.680
40,1775226460.6842253,16:27:40.684
41,1775226460.6973364,16:27:40.697
42,1775226460.7013392,16:27:40.701
43,1775226460.7133877,16:27:40.713
44,1775226460.716323,16:27:40.716
45,1775226460.734539,16:27:40.734
46,1775226460.7532828,16:27:40.753
47,1775226460.7618802,16:27:40.761
48,1775226460.7649164,16:27:40.764
49,1775226460.7771516,16:27:40.777
50,1775226460.780201,16:27:40.780
51,1775226460.7923954,16:27:40.792
52,1775226460.7964156,16:27:40.796
53,1775226460.8094447,16:27:40.809
54,1775226460.8124177,16:27:40.812
55,1775226460.8258798,16:27:40.825
56,1775226460.8308585,16:27:40.830
57,1775226460.8471308,16:27:40.847
58,1775226460.864701,16:27:40.864
59,1775226460.8726463,16:27:40.872
60,1775226460.8756132,16:27:40.875
61,1775226460.8889863,16:27:40.888
62,1775226460.8929892,16:27:40.892
63,1775226460.9046922,16:27:40.904
64,1775226460.9076252,16:27:40.907
65,1775226460.9210367,16:27:40.921
66,1775226460.9243197,16:27:40.924
67,1775226460.9405067,16:27:40.940
68,1775226460.9591882,16:27:40.959
69,1775226460.9691856,16:27:40.969
70,1775226460.9731817,16:27:40.973
71,1775226460.9862478,16:27:40.986
72,1775226460.9892938,16:27:40.989
73,1775226461.0020106,16:27:41.002
74,1775226461.018279,16:27:41.018
75,1775226461.021325,16:27:41.021
76,1775226461.0323782,16:27:41.032
77,1775226461.0363781,16:27:41.036
78,1775226461.0490024,16:27:41.049
79,1775226461.0622354,16:27:41.062
80,1775226461.0802467,16:27:41.080
81,1775226461.08624,16:27:41.086
82,1775226461.0962458,16:27:41.096
83,1775226461.0992944,16:27:41.099
84,1775226461.1124187,16:27:41.112
85,1775226461.1154706,16:27:41.115
86,1775226461.128708,16:27:41.128
87,1775226461.1444845,16:27:41.144
88,1775226461.147475,16:27:41.147
89,1775226461.163605,16:27:41.163
90,1775226461.194603,16:27:41.194
91,1775226461.1986501,16:27:41.198
92,1775226461.2082036,16:27:41.208
93,1775226461.21125,16:27:41.211
94,1775226461.22456,16:27:41.224
95,1775226461.2285557,16:27:41.228
96,1775226461.2408664,16:27:41.240
97,1775226461.2439265,16:27:41.243
98,1775226461.256042,16:27:41.256
99,1775226461.2775285,16:27:41.277
100,1775226461.2847795,16:27:41.284
101,1775226461.2910953,16:27:41.291
102,1775226461.2934566,16:27:41.293
103,1775226461.3040245,16:27:41.304
104,1775226461.3060436,16:27:41.306
105,1775226461.3200455,16:27:41.320
106,1775226461.3230429,16:27:41.323
107,1775226461.3360245,16:27:41.336
108,1775226461.3390644,16:27:41.339
109,1775226461.3528101,16:27:41.352
110,1775226461.3564274,16:27:41.356
111,1775226461.3689816,16:27:41.368
112,1775226461.3720238,16:27:41.372
113,1775226461.3901842,16:27:41.390
114,1775226461.4071918,16:27:41.407
115,1775226461.4165008,16:27:41.416
116,1775226461.420556,16:27:41.420
117,1775226461.4325027,16:27:41.432
118,1775226461.4365478,16:27:41.436
119,1775226461.4620311,16:27:41.462
120,1775226461.4651082,16:27:41.465
121,1775226461.4814425,16:27:41.481
122,1775226461.4863942,16:27:41.486
123,1775226461.5093799,16:27:41.509
124,1775226461.5192404,16:27:41.519
125,1775226461.5283413,16:27:41.528
126,1775226461.5451887,16:27:41.545
127,1775226461.5481865,16:27:41.548
128,1775226461.5619786,16:27:41.561
129,1775226461.5650282,16:27:41.565
130,1775226461.5765576,16:27:41.576
131,1775226461.579556,16:27:41.579
132,1775226461.593754,16:27:41.593
133,1775226461.5978017,16:27:41.597
134,1775226461.6231503,16:27:41.623
135,1775226461.6305187,16:27:41.630
136,1775226461.6408358,16:27:41.640
137,1775226461.6439867,16:27:41.643
138,1775226461.6560104,16:27:41.656
139,1775226461.6598938,16:27:41.659
140,1775226461.6722026,16:27:41.672
141,1775226461.6881535,16:27:41.688
142,1775226461.692162,16:27:41.692
143,1775226461.7109985,16:27:41.710
144,1775226461.7284877,16:27:41.728
145,1775226461.7365515,16:27:41.736
146,1775226461.7395494,16:27:41.739
147,1775226461.7523365,16:27:41.752
148,1775226461.7553794,16:27:41.755
149,1775226461.7697906,16:27:41.769
150,1775226461.772834,16:27:41.772
151,1775226461.7859979,16:27:41.785
152,1775226461.7889862,16:27:41.788
153,1775226461.8004363,16:27:41.800
154,1775226461.8223279,16:27:41.822
155,1775226461.8378835,16:27:41.837
156,1775226461.8477855,16:27:41.847
157,1775226461.849849,16:27:41.849
158,1775226461.8647325,16:27:41.864
159,1775226461.8677323,16:27:41.867
160,1775226461.8813274,16:27:41.881
161,1775226461.885685,16:27:41.885
162,1775226461.8965492,16:27:41.896
163,1775226461.8999374,16:27:41.899
164,1775226461.9122345,16:27:41.912
165,1775226461.9145563,16:27:41.914
166,1775226461.9282475,16:27:41.928
167,1775226461.949606,16:27:41.949
168,1775226461.9591534,16:27:41.959
169,1775226461.9621458,16:27:41.962
170,1775226461.9763818,16:27:41.976
171,1775226461.9787874,16:27:41.978
172,1775226461.990944,16:27:41.990
173,1775226461.9939597,16:27:41.993
174,1775226462.0081868,16:27:42.008
175,1775226462.011244,16:27:42.011
176,1775226462.0242827,16:27:42.024
177,1775226462.0284238,16:27:42.028
178,1775226462.0463424,16:27:42.046
179,1775226462.0493958,16:27:42.049
180,1775226462.0560265,16:27:42.056
181,1775226462.0580194,16:27:42.058
182,1775226462.0709481,16:27:42.070
183,1775226462.0878413,16:27:42.087
184,1775226462.0898526,16:27:42.089
185,1775226462.1033118,16:27:42.103
186,1775226462.1063297,16:27:42.106
187,1775226462.1193764,16:27:42.119
188,1775226462.1223896,16:27:42.122
189,1775226462.136807,16:27:42.136
190,1775226462.1391635,16:27:42.139
191,1775226462.158483,16:27:42.158
192,1775226462.164301,16:27:42.164
193,1775226462.1676977,16:27:42.167
194,1775226462.1707172,16:27:42.170
195,1775226462.183182,16:27:42.183
196,1775226462.186556,16:27:42.186
197,1775226462.1994467,16:27:42.199
198,1775226462.2157571,16:27:42.215
199,1775226462.2188056,16:27:42.218
200,1775226462.2320287,16:27:42.232
201,1775226462.2339842,16:27:42.233
202,1775226462.2522547,16:27:42.252
203,1775226462.2662969,16:27:42.266
204,1775226462.2798586,16:27:42.279
205,1775226462.2808628,16:27:42.280
206,1775226462.2957416,16:27:42.295
207,1775226462.2977324,16:27:42.297
208,1775226462.3114974,16:27:42.311
209,1775226462.3135126,16:27:42.313
210,1775226462.3278635,16:27:42.327
211,1775226462.3298736,16:27:42.329
212,1775226462.3435915,16:27:42.343
213,1775226462.361794,16:27:42.361
214,1775226462.386047,16:27:42.386
215,1775226462.39103,16:27:42.391
216,1775226462.3934968,16:27:42.393
217,1775226462.4085524,16:27:42.408
218,1775226462.4115412,16:27:42.411
219,1775226462.4242756,16:27:42.424
220,1775226462.4282749,16:27:42.428
221,1775226462.440445,16:27:42.440
222,1775226462.4438117,16:27:42.443
223,1775226462.4568012,16:27:42.456
224,1775226462.4591494,16:27:42.459
225,1775226462.4734917,16:27:42.473
226,1775226462.501769,16:27:42.501
227,1775226462.5057878,16:27:42.505
228,1775226462.5205505,16:27:42.520
229,1775226462.5239837,16:27:42.523
230,1775226462.5369546,16:27:42.536
231,1775226462.5399022,16:27:42.539
232,1775226462.5533116,16:27:42.553
233,1775226462.5563316,16:27:42.556
234,1775226462.5687613,16:27:42.568
235,1775226462.5718093,16:27:42.571
236,1775226462.5847688,16:27:42.584
237,1775226462.6021745,16:27:42.602
238,1775226462.6111724,16:27:42.611
239,1775226462.6175025,16:27:42.617
240,1775226462.6208994,16:27:42.620
241,1775226462.6321723,16:27:42.632
242,1775226462.6351697,16:27:42.635
243,1775226462.6492379,16:27:42.649
244,1775226462.652232,16:27:42.652
245,1775226462.6651354,16:27:42.665
246,1775226462.6680818,16:27:42.668
247,1775226462.6807156,16:27:42.680
248,1775226462.684672,16:27:42.684
249,1775226462.7032034,16:27:42.703
250,1775226462.72069,16:27:42.720
251,1775226462.7256446,16:27:42.725
252,1775226462.7296414,16:27:42.729
253,1775226462.7458534,16:27:42.745
254,1775226462.7620318,16:27:42.762
255,1775226462.7650502,16:27:42.765
256,1775226462.777505,16:27:42.777
257,1775226462.7805426,16:27:42.780
258,1775226462.793554,16:27:42.793
259,1775226462.7965715,16:27:42.796
260,1775226462.8344162,16:27:42.834
261,1775226462.8405747,16:27:42.840
262,1775226462.8446422,16:27:42.844
263,1775226462.856862,16:27:42.856
264,1775226462.8593874,16:27:42.859
265,1775226462.8733244,16:27:42.873
266,1775226462.8887386,16:27:42.888
267,1775226462.8931892,16:27:42.893
268,1775226462.9041119,16:27:42.904
269,1775226462.911462,16:27:42.911
270,1775226462.924011,16:27:42.924
271,1775226462.943825,16:27:42.943
272,1775226462.9531898,16:27:42.953
273,1775226462.956167,16:27:42.956
274,1775226462.9855065,16:27:42.985
275,1775226462.9889746,16:27:42.988
276,1775226463.0008674,16:27:43.000
277,1775226463.0170631,16:27:43.017
278,1775226463.0315485,16:27:43.031
279,1775226463.0492492,16:27:43.049
280,1775226463.0640867,16:27:43.064
281,1775226463.0680873,16:27:43.068
282,1775226463.0806396,16:27:43.080
283,1775226463.0836372,16:27:43.083
284,1775226463.09638,16:27:43.096
285,1775226463.0994222,16:27:43.099
286,1775226463.1125069,16:27:43.112
287,1775226463.1155524,16:27:43.115
288,1775226463.1435254,16:27:43.143
289,1775226463.1545706,16:27:43.154
290,1775226463.161008,16:27:43.161
291,1775226463.163679,16:27:43.163
292,1775226463.1767654,16:27:43.176
293,1775226463.1799078,16:27:43.179
294,1775226463.1924317,16:27:43.192
295,1775226463.19546,16:27:43.195
296,1775226463.2081242,16:27:43.208
297,1775226463.2121909,16:27:43.212
298,1775226463.2256153,16:27:43.225
299,1775226463.228645,16:27:43.228
300,1775226463.2406023,16:27:43.240
301,1775226463.2596884,16:27:43.259
302,1775226463.2691514,16:27:43.269
303,1775226463.2731144,16:27:43.273
304,1775226463.2893994,16:27:43.289
305,1775226463.2923453,16:27:43.292
306,1775226463.3046582,16:27:43.304
307,1775226463.307651,16:27:43.307
308,1775226463.3204548,16:27:43.320
309,1775226463.32345,16:27:43.323
310,1775226463.336402,16:27:43.336
311,1775226463.3394501,16:27:43.339
312,1775226463.354255,16:27:43.354
313,1775226463.3775651,16:27:43.377
314,1775226463.381514,16:27:43.381
315,1775226463.3872743,16:27:43.387
316,1775226463.3903284,16:27:43.390
317,1775226463.4014995,16:27:43.401
318,1775226463.4045272,16:27:43.404
319,1775226463.4165282,16:27:43.416
320,1775226463.4341774,16:27:43.434
321,1775226463.4371982,16:27:43.437
322,1775226463.4518843,16:27:43.451
323,1775226463.454895,16:27:43.454
324,1775226463.4750364,16:27:43.475
325,1775226463.48706,16:27:43.487
326,1775226463.4970741,16:27:43.497
327,1775226463.4990695,16:27:43.499
328,1775226463.5121274,16:27:43.512
329,1775226463.5151694,16:27:43.515
330,1775226463.5292265,16:27:43.529
331,1775226463.5322163,16:27:43.532
332,1775226463.5451567,16:27:43.545
333,1775226463.5633693,16:27:43.563
334,1775226463.5968587,16:27:43.596
335,1775226463.600879,16:27:43.600
336,1775226463.6086252,16:27:43.608
337,1775226463.6126144,16:27:43.612
338,1775226463.624214,16:27:43.624
339,1775226463.6282108,16:27:43.628
340,1775226463.6402128,16:27:43.640
341,1775226463.6442783,16:27:43.644
342,1775226463.656594,16:27:43.656
343,1775226463.6602259,16:27:43.660
344,1775226463.6734903,16:27:43.673
345,1775226463.6958337,16:27:43.695
346,1775226463.7078464,16:27:43.707
347,1775226463.7203445,16:27:43.720
348,1775226463.722366,16:27:43.722
349,1775226463.7356477,16:27:43.735
350,1775226463.7386467,16:27:43.738
351,1775226463.7537687,16:27:43.753
352,1775226463.7558897,16:27:43.755
353,1775226463.7685359,16:27:43.768
354,1775226463.7715464,16:27:43.771
355,1775226463.784548,16:27:43.784
356,1775226463.794548,16:27:43.794
357,1775226463.8085504,16:27:43.808
