# FW/GUI: v9.6.1-multi17-dual (PyQt5)
# StartTime: 2026-04-03 16:27:36
# Slot: 13
# DeviceID: 13
# Label: EMG13
# IP: 192.168.137.206
# TCP: 3333
# DeviceFW: EMG_FW_v9.6_MULTI17_DUALCH_RUNTIMECFG_CHEN
# IMU1_RefTime = format(imu_ms) = relative since power-on Time (IMU acquisition time)
IMU1_RefTime,ax_g,ay_g,az_g,gx_dps,gy_dps,gz_dps,mx_uT,my_uT,mz_uT,temp_C,qw,qx,qy,qz
'00:19:30.324,0.060059,0.029297,1.003906,0.304878,1.280488,-0.548781,-4.825000,17.512501,19.362501,31.431,0.56874327,-0.00977241,-0.02885044,-0.82195088
'00:19:30.334,0.060547,0.029297,1.003418,0.304878,1.280488,-0.609756,-4.825000,17.512501,19.362501,31.371,0.56874106,-0.00978476,-0.02885412,-0.82195213
'00:19:30.344,0.059082,0.029785,1.003906,0.304878,1.341463,-0.548781,-5.093750,17.868750,19.643751,31.431,0.56873226,-0.00977224,-0.02883898,-0.82195890
'00:19:30.356,0.060059,0.029297,1.003418,0.365854,1.341463,-0.548781,-5.093750,17.868750,19.643751,31.431,0.56872196,-0.00976266,-0.02882785,-0.82196653
'00:19:30.364,0.059570,0.029785,1.004883,0.304878,1.341463,-0.548781,-4.981250,17.787500,19.550001,31.431,0.56871986,-0.00975914,-0.02882273,-0.82196820
'00:19:30.374,0.060547,0.028809,1.003418,0.304878,1.341463,-0.609756,-4.981250,17.787500,19.550001,31.431,0.56871306,-0.00976412,-0.02881534,-0.82197311
'00:19:30.384,0.059082,0.029785,1.003418,0.365854,1.341463,-0.609756,-4.756250,17.550001,19.362501,31.446,0.56871688,-0.00976408,-0.02882448,-0.82197014
'00:19:30.396,0.060059,0.029297,1.003906,0.365854,1.341463,-0.548781,-4.756250,17.550001,19.362501,31.401,0.56872676,-0.00977290,-0.02883616,-0.82196280
'00:19:30.404,0.060059,0.029297,1.004395,0.304878,1.341463,-0.548781,-4.856250,17.700001,19.468750,31.386,0.56873016,-0.00977788,-0.02883652,-0.82196037
'00:19:30.414,0.059082,0.030273,1.004395,0.365854,1.341463,-0.548781,-4.856250,17.700001,19.468750,31.416,0.56873427,-0.00977178,-0.02884306,-0.82195737
'00:19:30.424,0.058594,0.029785,1.002930,0.365854,1.341463,-0.548781,-4.818750,17.468750,19.293751,31.371,0.56873632,-0.00976386,-0.02884318,-0.82195604
'00:19:30.436,0.059082,0.028809,1.005371,0.304878,1.280488,-0.548781,-4.818750,17.468750,19.293751,31.461,0.56873879,-0.00977063,-0.02883620,-0.82195450
'00:19:30.444,0.060059,0.029297,1.004395,0.304878,1.341463,-0.548781,-5.287500,18.256250,19.831251,31.446,0.56872831,-0.00976231,-0.02882077,-0.82196239
'00:19:30.454,0.060059,0.028809,1.003418,0.365854,1.341463,-0.548781,-5.287500,18.256250,19.831251,31.446,0.56871543,-0.00975111,-0.02880386,-0.82197203
'00:19:30.464,0.058594,0.029297,1.003906,0.365854,1.341463,-0.609756,-5.156250,17.987501,19.681250,31.401,0.56870113,-0.00973347,-0.02878771,-0.82198269
'00:19:30.476,0.058594,0.028320,1.003906,0.365854,1.280488,-0.548781,-5.156250,17.987501,19.681250,31.431,0.56868941,-0.00972260,-0.02876582,-0.82199170
'00:19:30.484,0.059082,0.029785,1.004395,0.304878,1.341463,-0.548781,-4.818750,17.512501,19.318750,31.446,0.56869206,-0.00972197,-0.02876549,-0.82198989
'00:19:30.494,0.059082,0.029297,1.004883,0.304878,1.341463,-0.548781,-4.818750,17.512501,19.318750,31.401,0.56869547,-0.00972300,-0.02876210,-0.82198763
'00:19:30.504,0.059570,0.028320,1.003418,0.365854,1.341463,-0.609756,-4.793750,17.481251,19.375000,31.431,0.56869549,-0.00972901,-0.02876114,-0.82198758
'00:19:30.518,0.059082,0.030273,1.003418,0.304878,1.341463,-0.548781,-4.812500,17.518751,19.356251,31.401,0.56870053,-0.00972614,-0.02876580,-0.82198396
'00:19:30.524,0.059570,0.029785,1.004395,0.365854,1.341463,-0.548781,-4.812500,17.518751,19.356251,31.431,0.56870277,-0.00972577,-0.02876961,-0.82198229
'00:19:30.534,0.060059,0.029297,1.004883,0.304878,1.341463,-0.548781,-4.812500,17.518751,19.356251,31.401,0.56870652,-0.00973270,-0.02877044,-0.82197958
'00:19:30.544,0.060059,0.029297,1.004395,0.365854,1.341463,-0.548781,-4.981250,17.862501,19.550001,31.371,0.56870600,-0.00973156,-0.02877059,-0.82197995
'00:19:30.557,0.060547,0.029297,1.003906,0.304878,1.341463,-0.609756,-5.131250,18.062500,19.700001,31.446,0.56869177,-0.00973004,-0.02875898,-0.82199022
'00:19:30.564,0.060059,0.029297,1.003906,0.304878,1.341463,-0.548781,-5.131250,18.062500,19.700001,31.461,0.56868722,-0.00972754,-0.02875156,-0.82199365
'00:19:30.574,0.060059,0.029297,1.003418,0.365854,1.280488,-0.609756,-4.943750,17.700001,19.487501,31.386,0.56868127,-0.00973085,-0.02875465,-0.82199763
'00:19:30.584,0.061035,0.029297,1.003906,0.365854,1.280488,-0.609756,-4.943750,17.700001,19.487501,31.386,0.56867529,-0.00973938,-0.02876125,-0.82200143
'00:19:30.595,0.059570,0.029785,1.003418,0.304878,1.341463,-0.548781,-4.781250,17.450001,19.287500,31.371,0.56868031,-0.00974299,-0.02876506,-0.82199778
'00:19:30.604,0.060059,0.029785,1.002930,0.304878,1.341463,-0.609756,-4.781250,17.450001,19.287500,31.356,0.56868044,-0.00974827,-0.02877002,-0.82199745
'00:19:30.614,0.059082,0.029297,1.003906,0.304878,1.341463,-0.548781,-4.837500,17.506250,19.375000,31.401,0.56868213,-0.00974805,-0.02876517,-0.82199646
'00:19:30.624,0.058594,0.030273,1.004883,0.365854,1.341463,-0.548781,-4.837500,17.506250,19.375000,31.461,0.56868370,-0.00973804,-0.02876803,-0.82199539
'00:19:30.634,0.060059,0.028320,1.003906,0.304878,1.341463,-0.548781,-4.812500,17.512501,19.287500,31.461,0.56868783,-0.00974858,-0.02876381,-0.82199256
'00:19:30.644,0.059082,0.030273,1.003906,0.365854,1.341463,-0.548781,-4.812500,17.512501,19.287500,31.461,0.56869161,-0.00974286,-0.02877127,-0.82198975
'00:19:30.654,0.060059,0.029785,1.002930,0.365854,1.341463,-0.548781,-5.031250,17.912500,19.593750,31.401,0.56868862,-0.00973787,-0.02877205,-0.82199185
'00:19:30.664,0.060059,0.028809,1.004395,0.304878,1.341463,-0.548781,-5.031250,17.912500,19.593750,31.431,0.56868580,-0.00973946,-0.02876245,-0.82199411
'00:19:30.676,0.060547,0.029785,1.004395,0.304878,1.341463,-0.609756,-5.106250,17.931250,19.643751,31.386,0.56867123,-0.00973505,-0.02875360,-0.82200456
'00:19:30.684,0.060547,0.028320,1.004395,0.365854,1.280488,-0.609756,-5.106250,17.931250,19.643751,31.431,0.56866173,-0.00973779,-0.02874727,-0.82201132
'00:19:30.694,0.061035,0.029297,1.003418,0.304878,1.280488,-0.609756,-4.837500,17.606251,19.418751,31.431,0.56866113,-0.00975444,-0.02875602,-0.82201123
'00:19:30.704,0.061035,0.029297,1.003418,0.304878,1.280488,-0.609756,-4.837500,17.606251,19.418751,31.431,0.56866048,-0.00977083,-0.02876459,-0.82201118
'00:19:30.716,0.059570,0.029297,1.003418,0.365854,1.341463,-0.609756,-4.793750,17.506250,19.343750,31.416,0.56866116,-0.00977294,-0.02877094,-0.82201046
'00:19:30.724,0.060059,0.029297,1.004883,0.304878,1.341463,-0.548781,-4.793750,17.506250,19.343750,31.416,0.56866505,-0.00977877,-0.02877259,-0.82200765
'00:19:30.734,0.059082,0.029297,1.004883,0.304878,1.341463,-0.609756,-4.806250,17.500000,19.393751,31.371,0.56866432,-0.00977966,-0.02876961,-0.82200825
'00:19:30.744,0.059570,0.029297,1.004883,0.304878,1.341463,-0.548781,-4.806250,17.500000,19.393751,31.401,0.56866794,-0.00978341,-0.02876853,-0.82200573
'00:19:30.756,0.060059,0.030273,1.004883,0.304878,1.341463,-0.609756,-5.062500,17.831251,19.612501,31.371,0.56865407,-0.00977400,-0.02876147,-0.82201569
'00:19:30.764,0.059570,0.030273,1.003906,0.304878,1.280488,-0.609756,-5.062500,17.831251,19.612501,31.371,0.56864476,-0.00976940,-0.02875814,-0.82202230
'00:19:30.774,0.059570,0.029297,1.004883,0.304878,1.341463,-0.548781,-5.056250,17.800001,19.606251,31.401,0.56863761,-0.00976304,-0.02874488,-0.82202779
'00:19:30.784,0.059570,0.028809,1.004395,0.365854,1.341463,-0.548781,-5.056250,17.800001,19.606251,31.431,0.56863066,-0.00975578,-0.02873371,-0.82203307
'00:19:30.794,0.060547,0.028809,1.004883,0.365854,1.341463,-0.548781,-4.781250,17.462500,19.381250,31.416,0.56863553,-0.00976540,-0.02873985,-0.82202938
'00:19:30.804,0.059082,0.029785,1.003906,0.304878,1.341463,-0.548781,-4.781250,17.462500,19.381250,31.401,0.56864014,-0.00976605,-0.02874174,-0.82202611
'00:19:30.814,0.059570,0.029785,1.002930,0.365854,1.341463,-0.548781,-4.737500,17.487501,19.350000,31.371,0.56864856,-0.00976959,-0.02875441,-0.82201980
'00:19:30.824,0.059570,0.029785,1.003418,0.304878,1.341463,-0.548781,-4.737500,17.487501,19.350000,31.416,0.56865688,-0.00977594,-0.02876227,-0.82201370
'00:19:30.834,0.060059,0.029297,1.004395,0.304878,1.341463,-0.548781,-4.762500,17.487501,19.331251,31.401,0.56866356,-0.00978498,-0.02876673,-0.82200881
'00:19:30.844,0.060547,0.027832,1.004395,0.304878,1.280488,-0.548781,-4.975000,17.762501,19.487501,31.431,0.56866150,-0.00979776,-0.02875755,-0.82201040
'00:19:30.854,0.059570,0.028809,1.004883,0.365854,1.341463,-0.548781,-4.975000,17.762501,19.487501,31.386,0.56865948,-0.00979376,-0.02875140,-0.82201206
'00:19:30.864,0.058594,0.029297,1.004395,0.304878,1.341463,-0.548781,-5.018750,17.806250,19.568750,31.431,0.56865509,-0.00978394,-0.02873770,-0.82201570
'00:19:30.874,0.059570,0.029297,1.004395,0.365854,1.341463,-0.548781,-5.018750,17.806250,19.568750,31.401,0.56865079,-0.00977664,-0.02873236,-0.82201895
'00:19:30.884,0.060059,0.029785,1.002930,0.304878,1.341463,-0.548781,-4.843750,17.587500,19.412500,31.416,0.56865378,-0.00978068,-0.02873651,-0.82201668
'00:19:30.894,0.059082,0.029785,1.003418,0.365854,1.341463,-0.548781,-4.843750,17.587500,19.412500,31.356,0.56865685,-0.00977610,-0.02874098,-0.82201446
'00:19:30.904,0.059570,0.030273,1.004395,0.365854,1.341463,-0.548781,-4.793750,17.493750,19.343750,31.461,0.56866133,-0.00977375,-0.02875148,-0.82201102
'00:19:30.914,0.059570,0.028809,1.002441,0.365854,1.280488,-0.548781,-4.793750,17.493750,19.343750,31.416,0.56866593,-0.00978197,-0.02875725,-0.82200754
'00:19:30.924,0.060059,0.030273,1.003906,0.365854,1.280488,-0.548781,-4.831250,17.462500,19.381250,31.371,0.56866665,-0.00978401,-0.02876873,-0.82200662
'00:19:30.934,0.061035,0.029297,1.003418,0.304878,1.341463,-0.548781,-4.831250,17.462500,19.381250,31.416,0.56866761,-0.00979402,-0.02877106,-0.82200575
'00:19:30.944,0.060547,0.029785,1.004883,0.365854,1.280488,-0.548781,-4.837500,17.543751,19.356251,31.371,0.56866997,-0.00980092,-0.02878255,-0.82200363
'00:19:30.954,0.061035,0.029297,1.003418,0.365854,1.280488,-0.548781,-4.837500,17.543751,19.356251,31.401,0.56867237,-0.00981262,-0.02879354,-0.82200145
'00:19:30.964,0.059570,0.029785,1.004883,0.304878,1.341463,-0.548781,-4.931250,17.600000,19.468750,31.416,0.56866919,-0.00980784,-0.02878726,-0.82200392
'00:19:30.974,0.060547,0.030273,1.004883,0.304878,1.341463,-0.548781,-4.931250,17.600000,19.468750,31.416,0.56866591,-0.00980662,-0.02878761,-0.82200620
'00:19:30.984,0.059082,0.029785,1.004395,0.365854,1.280488,-0.609756,-4.918750,17.681250,19.568750,31.446,0.56866068,-0.00980269,-0.02878990,-0.82200978
'00:19:30.994,0.058105,0.029297,1.004395,0.365854,1.341463,-0.548781,-4.918750,17.681250,19.568750,31.431,0.56866012,-0.00979112,-0.02878254,-0.82201056
'00:19:31.004,0.058105,0.029297,1.004883,0.304878,1.341463,-0.548781,-4.825000,17.500000,19.362501,31.401,0.56866259,-0.00978530,-0.02877416,-0.82200922
'00:19:31.014,0.058594,0.030762,1.003418,0.365854,1.341463,-0.609756,-4.825000,17.500000,19.362501,31.431,0.56866042,-0.00977362,-0.02878115,-0.82201061
'00:19:31.024,0.059570,0.030273,1.003418,0.304878,1.280488,-0.609756,-4.768750,17.493750,19.356251,31.431,0.56866194,-0.00978026,-0.02879203,-0.82200910
'00:19:31.034,0.060547,0.030762,1.003906,0.365854,1.280488,-0.548781,-4.768750,17.493750,19.356251,31.431,0.56866770,-0.00978728,-0.02881340,-0.82200429
'00:19:31.044,0.061035,0.029785,1.003906,0.304878,1.341463,-0.548781,-4.762500,17.431250,19.325001,31.386,0.56867276,-0.00979883,-0.02882238,-0.82200033
'00:19:31.054,0.062500,0.028320,1.002930,0.243902,1.341463,-0.609756,-4.762500,17.431250,19.325001,31.401,0.56867357,-0.00982715,-0.02882458,-0.82199935
'00:19:31.064,0.061035,0.029297,1.003418,0.365854,1.341463,-0.609756,-5.137500,17.925001,19.606251,31.401,0.56865927,-0.00982183,-0.02881763,-0.82200956
'00:19:31.074,0.060059,0.029785,1.003418,0.365854,1.341463,-0.609756,-5.137500,17.925001,19.606251,31.401,0.56864495,-0.00980948,-0.02880986,-0.82201988
'00:19:31.084,0.060059,0.028809,1.003418,0.365854,1.280488,-0.548781,-5.087500,17.931250,19.618750,31.401,0.56863854,-0.00980865,-0.02880365,-0.82202454
'00:19:31.094,0.059570,0.029297,1.004883,0.304878,1.341463,-0.548781,-5.087500,17.931250,19.618750,31.401,0.56863219,-0.00980166,-0.02879045,-0.82202948
'00:19:31.104,0.058594,0.029297,1.004395,0.365854,1.341463,-0.548781,-4.806250,17.506250,19.375000,31.416,0.56863615,-0.00979682,-0.02879006,-0.82202681
'00:19:31.114,0.058594,0.030273,1.004883,0.304878,1.341463,-0.609756,-4.793750,17.468750,19.281250,31.431,0.56863586,-0.00979095,-0.02879103,-0.82202705
'00:19:31.124,0.058594,0.029785,1.004883,0.304878,1.280488,-0.548781,-4.793750,17.468750,19.281250,31.371,0.56863990,-0.00979161,-0.02879219,-0.82202421
'00:19:31.134,0.059082,0.029785,1.004395,0.304878,1.341463,-0.548781,-4.812500,17.543751,19.356251,31.416,0.56864422,-0.00979079,-0.02879254,-0.82202122
'00:19:31.144,0.060059,0.029785,1.003418,0.365854,1.280488,-0.548781,-4.812500,17.543751,19.356251,31.386,0.56864837,-0.00979694,-0.02880443,-0.82201786
'00:19:31.154,0.060059,0.029297,1.003906,0.365854,1.341463,-0.548781,-5.006250,17.837500,19.531250,31.401,0.56864565,-0.00979318,-0.02880187,-0.82201987
'00:19:31.164,0.059570,0.028809,1.002930,0.365854,1.341463,-0.548781,-5.006250,17.837500,19.531250,31.431,0.56864306,-0.00978893,-0.02879515,-0.82202195
'00:19:31.174,0.061035,0.029297,1.002930,0.304878,1.280488,-0.609756,-5.143750,17.981251,19.675001,31.431,0.56862938,-0.00979239,-0.02878839,-0.82203161
'00:19:31.184,0.061035,0.029297,1.003906,0.365854,1.341463,-0.609756,-5.143750,17.981251,19.675001,31.446,0.56861597,-0.00978825,-0.02878275,-0.82204113
'00:19:31.194,0.059570,0.029297,1.003906,0.304878,1.341463,-0.609756,-4.931250,17.662500,19.425001,31.416,0.56861042,-0.00978673,-0.02877622,-0.82204522
'00:19:31.204,0.059082,0.028809,1.003906,0.365854,1.341463,-0.609756,-4.931250,17.662500,19.425001,31.401,0.56860506,-0.00978147,-0.02876956,-0.82204922
'00:19:31.214,0.059082,0.029785,1.004883,0.365854,1.341463,-0.609756,-4.825000,17.562500,19.393751,31.431,0.56860465,-0.00977726,-0.02877403,-0.82204940
'00:19:31.224,0.059082,0.030273,1.003906,0.365854,1.341463,-0.548781,-4.825000,17.562500,19.393751,31.446,0.56860850,-0.00977153,-0.02878155,-0.82204654
'00:19:31.234,0.057617,0.029297,1.003906,0.304878,1.280488,-0.609756,-4.787500,17.518751,19.387501,31.386,0.56860962,-0.00977049,-0.02877827,-0.82204589
'00:19:31.244,0.059570,0.029297,1.003906,0.304878,1.341463,-0.609756,-4.787500,17.518751,19.387501,31.431,0.56861083,-0.00977599,-0.02877963,-0.82204494
'00:19:31.254,0.059082,0.029785,1.002441,0.365854,1.341463,-0.548781,-4.800000,17.506250,19.293751,31.416,0.56861557,-0.00977298,-0.02878568,-0.82204149
'00:19:31.264,0.059082,0.028809,1.003906,0.365854,1.341463,-0.548781,-4.800000,17.506250,19.293751,31.401,0.56862050,-0.00977353,-0.02878550,-0.82203807
'00:19:31.274,0.060059,0.030273,1.003418,0.304878,1.280488,-0.548781,-5.231250,18.162500,19.762501,31.461,0.56860925,-0.00976607,-0.02877816,-0.82204620
'00:19:31.284,0.060059,0.029297,1.003418,0.365854,1.341463,-0.548781,-5.231250,18.162500,19.762501,31.371,0.56859847,-0.00975508,-0.02876697,-0.82205419
'00:19:31.294,0.060547,0.029785,1.002930,0.304878,1.341463,-0.548781,-4.981250,17.750000,19.531250,31.386,0.56859551,-0.00975645,-0.02876565,-0.82205626
'00:19:31.304,0.061035,0.028809,1.003906,0.365854,1.341463,-0.548781,-4.981250,17.750000,19.531250,31.431,0.56859281,-0.00976105,-0.02876474,-0.82205811
'00:19:31.314,0.058594,0.029785,1.003418,0.304878,1.341463,-0.548781,-4.762500,17.518751,19.325001,31.401,0.56860043,-0.00976103,-0.02876766,-0.82205273
'00:19:31.324,0.059082,0.030273,1.004395,0.304878,1.280488,-0.548781,-4.762500,17.518751,19.325001,31.416,0.56860776,-0.00976594,-0.02877781,-0.82204725
'00:19:31.334,0.059570,0.029785,1.004395,0.365854,1.280488,-0.609756,-4.806250,17.500000,19.393751,31.431,0.56860699,-0.00976942,-0.02878723,-0.82204741
'00:19:31.344,0.058594,0.028809,1.003906,0.365854,1.341463,-0.548781,-4.806250,17.500000,19.393751,31.416,0.56861097,-0.00976714,-0.02878423,-0.82204479
'00:19:31.354,0.059570,0.028320,1.004395,0.365854,1.341463,-0.609756,-4.781250,17.437500,19.350000,31.461,0.56861109,-0.00977258,-0.02878270,-0.82204470
'00:19:31.364,0.059570,0.030273,1.003418,0.365854,1.341463,-0.548781,-5.087500,17.925001,19.593750,31.431,0.56860472,-0.00975962,-0.02878027,-0.82204934
'00:19:31.374,0.059082,0.030762,1.004395,0.304878,1.280488,-0.548781,-5.087500,17.925001,19.593750,31.386,0.56859811,-0.00974953,-0.02877705,-0.82205415
'00:19:31.384,0.059082,0.029297,1.004395,0.304878,1.341463,-0.548781,-5.143750,17.900000,19.637501,31.431,0.56858750,-0.00973741,-0.02875788,-0.82206229
'00:19:31.394,0.059570,0.030273,1.003906,0.365854,1.341463,-0.548781,-5.143750,17.900000,19.637501,31.431,0.56857683,-0.00972151,-0.02875089,-0.82207011
'00:19:31.404,0.059570,0.029785,1.003906,0.365854,1.341463,-0.548781,-4.831250,17.543751,19.356251,31.446,0.56858027,-0.00972064,-0.02875724,-0.82206752
'00:19:31.414,0.060547,0.030273,1.003418,0.304878,1.341463,-0.609756,-4.831250,17.543751,19.356251,31.386,0.56857912,-0.00972622,-0.02876588,-0.82206795
'00:19:31.424,0.059570,0.030762,1.003906,0.365854,1.341463,-0.548781,-4.793750,17.525000,19.393751,31.386,0.56858432,-0.00972355,-0.02877994,-0.82206389
'00:19:31.434,0.060547,0.030273,1.004395,0.365854,1.341463,-0.548781,-4.793750,17.525000,19.393751,31.416,0.56858955,-0.00972813,-0.02879455,-0.82205971
'00:19:31.444,0.059570,0.029297,1.004395,0.304878,1.280488,-0.609756,-4.812500,17.550001,19.393751,31.401,0.56858969,-0.00973747,-0.02879740,-0.82205940
'00:19:31.454,0.059570,0.029297,1.004395,0.304878,1.280488,-0.609756,-4.812500,17.550001,19.393751,31.401,0.56858980,-0.00974666,-0.02880017,-0.82205912
'00:19:31.464,0.058594,0.029297,1.004395,0.304878,1.341463,-0.548781,-4.793750,17.518751,19.281250,31.431,0.56859550,-0.00974648,-0.02879703,-0.82205529
'00:19:31.474,0.058105,0.029785,1.004883,0.304878,1.341463,-0.609756,-4.793750,17.518751,19.281250,31.446,0.56859673,-0.00974140,-0.02879466,-0.82205458
'00:19:31.485,0.059082,0.029785,1.003906,0.365854,1.341463,-0.548781,-5.200000,18.093750,19.750000,31.401,0.56858539,-0.00972263,-0.02878156,-0.82206310
'00:19:31.494,0.059570,0.028809,1.003906,0.365854,1.280488,-0.609756,-5.200000,18.093750,19.750000,31.386,0.56857229,-0.00971709,-0.02877067,-0.82207261
'00:19:31.504,0.059570,0.029297,1.003418,0.426829,1.341463,-0.548781,-4.843750,17.518751,19.375000,31.416,0.56857433,-0.00971422,-0.02877688,-0.82207102
'00:19:31.514,0.060059,0.029785,1.003418,0.365854,1.341463,-0.548781,-4.843750,17.518751,19.375000,31.416,0.56857618,-0.00971517,-0.02878327,-0.82206951
'00:19:31.524,0.060059,0.029297,1.004395,0.304878,1.341463,-0.548781,-4.775000,17.500000,19.393751,31.401,0.56858234,-0.00972492,-0.02878693,-0.82206500
'00:19:31.534,0.059570,0.028320,1.003418,0.365854,1.341463,-0.548781,-4.775000,17.500000,19.393751,31.371,0.56858872,-0.00973283,-0.02878777,-0.82206046
'00:19:31.545,0.060059,0.029297,1.004395,0.304878,1.341463,-0.609756,-4.756250,17.462500,19.275000,31.401,0.56859162,-0.00974336,-0.02879263,-0.82205816
'00:19:31.554,0.059570,0.029297,1.004395,0.365854,1.280488,-0.548781,-4.756250,17.462500,19.275000,31.431,0.56859782,-0.00975072,-0.02880142,-0.82205348
'00:19:31.564,0.059570,0.029297,1.004883,0.304878,1.341463,-0.548781,-4.768750,17.531250,19.325001,31.446,0.56860532,-0.00975762,-0.02880396,-0.82204812
'00:19:31.574,0.060059,0.029297,1.004883,0.365854,1.341463,-0.609756,-4.768750,17.531250,19.325001,31.446,0.56860843,-0.00976391,-0.02881274,-0.82204559
'00:19:31.584,0.060059,0.028809,1.003418,0.304878,1.341463,-0.609756,-5.225000,18.175001,19.806250,31.431,0.56859378,-0.00975825,-0.02879463,-0.82205642
'00:19:31.594,0.060059,0.029785,1.003418,0.365854,1.341463,-0.609756,-5.225000,18.175001,19.806250,31.431,0.56857908,-0.00974600,-0.02878660,-0.82206701
'00:19:31.604,0.058594,0.029785,1.004395,0.304878,1.280488,-0.548781,-4.912500,17.525000,19.425001,31.446,0.56857588,-0.00974154,-0.02878002,-0.82206951
'00:19:31.614,0.059570,0.029297,1.003906,0.304878,1.341463,-0.609756,-4.912500,17.525000,19.425001,31.461,0.56856856,-0.00974007,-0.02877180,-0.82207488
'00:19:31.624,0.059570,0.029785,1.003906,0.304878,1.341463,-0.548781,-4.787500,17.456251,19.356251,31.476,0.56857287,-0.00974343,-0.02877476,-0.82207175
'00:19:31.634,0.060059,0.030273,1.004883,0.365854,1.341463,-0.548781,-4.731250,17.487501,19.350000,31.416,0.56858182,-0.00974821,-0.02879155,-0.82206492
'00:19:31.644,0.059570,0.029785,1.004395,0.304878,1.341463,-0.548781,-4.731250,17.487501,19.350000,31.401,0.56859077,-0.00975521,-0.02879917,-0.82205838
'00:19:31.654,0.059570,0.029785,1.004883,0.365854,1.341463,-0.609756,-4.812500,17.600000,19.381250,31.416,0.56859219,-0.00975535,-0.02880704,-0.82205712
'00:19:31.664,0.059570,0.029297,1.005859,0.365854,1.341463,-0.609756,-4.812500,17.600000,19.381250,31.431,0.56859371,-0.00975719,-0.02881163,-0.82205589
'00:19:31.674,0.060059,0.029297,1.002930,0.365854,1.341463,-0.548781,-5.237500,18.087500,19.687500,31.416,0.56858108,-0.00974487,-0.02879813,-0.82206524
'00:19:31.684,0.058594,0.029785,1.003418,0.365854,1.280488,-0.548781,-5.237500,18.087500,19.687500,31.461,0.56856831,-0.00972732,-0.02878491,-0.82207474
'00:19:31.694,0.060059,0.029297,1.002930,0.365854,1.280488,-0.548781,-5.106250,17.900000,19.606251,31.386,0.56856030,-0.00972464,-0.02878029,-0.82208048
'00:19:31.704,0.059082,0.028809,1.004395,0.304878,1.341463,-0.609756,-5.106250,17.900000,19.606251,31.431,0.56854820,-0.00971679,-0.02876144,-0.82208960
'00:19:31.714,0.059570,0.029785,1.003906,0.304878,1.341463,-0.548781,-4.837500,17.500000,19.381250,31.431,0.56855008,-0.00971817,-0.02876173,-0.82208827
'00:19:31.724,0.058594,0.029297,1.004883,0.304878,1.341463,-0.548781,-4.837500,17.500000,19.381250,31.431,0.56855210,-0.00971581,-0.02875506,-0.82208713
'00:19:31.734,0.059570,0.028809,1.005371,0.304878,1.341463,-0.609756,-4.906250,17.631250,19.387501,31.492,0.56854818,-0.00971818,-0.02874726,-0.82209009
'00:19:31.744,0.059082,0.029297,1.004883,0.304878,1.280488,-0.548781,-4.906250,17.631250,19.387501,31.431,0.56854840,-0.00972059,-0.02874363,-0.82209004
'00:19:31.754,0.061035,0.030273,1.004395,0.365854,1.280488,-0.609756,-4.806250,17.468750,19.418751,31.401,0.56854696,-0.00973084,-0.02876154,-0.82209029
'00:19:31.764,0.059082,0.030273,1.004883,0.304878,1.341463,-0.609756,-4.806250,17.468750,19.418751,31.461,0.56854565,-0.00972859,-0.02876397,-0.82209114
'00:19:31.774,0.059570,0.030273,1.004883,0.365854,1.341463,-0.609756,-4.900000,17.687500,19.456251,31.401,0.56854292,-0.00972348,-0.02877049,-0.82209285
'00:19:31.784,0.060059,0.029297,1.003906,0.365854,1.341463,-0.548781,-4.900000,17.687500,19.456251,31.431,0.56854475,-0.00972531,-0.02877364,-0.82209146
'00:19:31.795,0.060059,0.029785,1.003418,0.365854,1.341463,-0.548781,-4.956250,17.762501,19.500000,31.446,0.56854413,-0.00972283,-0.02877738,-0.82209178
'00:19:31.804,0.060059,0.029297,1.003418,0.304878,1.280488,-0.548781,-4.956250,17.762501,19.500000,31.431,0.56854354,-0.00972919,-0.02877671,-0.82209214
'00:19:31.814,0.058594,0.029297,1.004395,0.304878,1.341463,-0.609756,-4.843750,17.581251,19.431250,31.431,0.56854246,-0.00972749,-0.02877141,-0.82209310
'00:19:31.824,0.059570,0.029785,1.003906,0.365854,1.341463,-0.548781,-4.843750,17.581251,19.431250,31.386,0.56854566,-0.00972656,-0.02877728,-0.82209068
'00:19:31.836,0.059570,0.030273,1.003906,0.426829,1.280488,-0.548781,-4.768750,17.425001,19.306250,31.416,0.56855169,-0.00972729,-0.02879931,-0.82208573
'00:19:31.844,0.059082,0.029785,1.003906,0.304878,1.341463,-0.609756,-4.768750,17.425001,19.306250,31.431,0.56855230,-0.00972831,-0.02880057,-0.82208525
'00:19:31.854,0.059082,0.029297,1.004395,0.304878,1.280488,-0.548781,-4.818750,17.550001,19.456251,31.371,0.56855624,-0.00973498,-0.02880084,-0.82208244
'00:19:31.864,0.060059,0.030273,1.003906,0.365854,1.341463,-0.609756,-4.818750,17.550001,19.456251,31.386,0.56855573,-0.00973565,-0.02881203,-0.82208239
'00:19:31.874,0.059570,0.029785,1.003418,0.304878,1.341463,-0.548781,-4.743750,17.450001,19.393751,31.416,0.56856278,-0.00974192,-0.02881781,-0.82207724
'00:19:31.884,0.060547,0.030273,1.003906,0.365854,1.341463,-0.548781,-5.081250,17.887501,19.625000,31.431,0.56855595,-0.00973463,-0.02881803,-0.82208205
'00:19:31.895,0.059570,0.030273,1.004883,0.365854,1.341463,-0.548781,-5.081250,17.887501,19.625000,31.416,0.56854850,-0.00972068,-0.02881380,-0.82208751
'00:19:31.904,0.060059,0.028809,1.003906,0.365854,1.402439,-0.548781,-5.025000,17.875000,19.593750,31.401,0.56854610,-0.00971595,-0.02880600,-0.82208950
'00:19:31.914,0.059570,0.030273,1.003418,0.365854,1.280488,-0.609756,-5.025000,17.875000,19.593750,31.416,0.56853849,-0.00971114,-0.02881007,-0.82209468
'00:19:31.924,0.059570,0.028809,1.004395,0.304878,1.341463,-0.609756,-4.781250,17.550001,19.337500,31.416,0.56854147,-0.00972019,-0.02880965,-0.82209253
'00:19:31.935,0.059082,0.030762,1.003906,0.365854,1.341463,-0.548781,-4.781250,17.550001,19.337500,31.371,0.56854914,-0.00971547,-0.02882427,-0.82208676
'00:19:31.944,0.059082,0.032227,1.003906,0.365854,1.341463,-0.609756,-4.831250,17.500000,19.318750,31.431,0.56854702,-0.00970286,-0.02883891,-0.82208786
'00:19:31.954,0.058594,0.028809,1.004883,0.304878,1.341463,-0.548781,-4.831250,17.500000,19.318750,31.446,0.56854974,-0.00970274,-0.02882890,-0.82208633
'00:19:31.964,0.058594,0.027832,1.005371,0.365854,1.341463,-0.548781,-4.800000,17.568750,19.375000,31.461,0.56855632,-0.00970641,-0.02882164,-0.82208200
'00:19:31.974,0.060059,0.028320,1.003906,0.365854,1.402439,-0.548781,-4.800000,17.568750,19.375000,31.446,0.56856286,-0.00971215,-0.02882047,-0.82207745
'00:19:31.984,0.059082,0.030273,1.002930,0.365854,1.341463,-0.548781,-5.062500,17.868750,19.618750,31.401,0.56855694,-0.00969832,-0.02881647,-0.82208185
'00:19:31.994,0.059082,0.030273,1.002441,0.304878,1.341463,-0.548781,-5.062500,17.868750,19.618750,31.431,0.56855102,-0.00968785,-0.02880841,-0.82208635
'00:19:32.004,0.060547,0.029785,1.002930,0.365854,1.341463,-0.609756,-5.137500,18.000000,19.668751,31.416,0.56853877,-0.00968173,-0.02880504,-0.82209501
'00:19:32.014,0.061523,0.030273,1.003418,0.365854,1.341463,-0.548781,-5.137500,18.000000,19.668751,31.461,0.56853083,-0.00967920,-0.02880791,-0.82210043
'00:19:32.024,0.061523,0.027832,1.004883,0.304878,1.341463,-0.548781,-4.806250,17.506250,19.387501,31.431,0.56853539,-0.00970145,-0.02880623,-0.82209707
'00:19:32.034,0.060059,0.028809,1.004395,0.243902,1.341463,-0.548781,-4.806250,17.506250,19.387501,31.431,0.56853970,-0.00971454,-0.02880022,-0.82209414
'00:19:32.045,0.060059,0.028809,1.005371,0.365854,1.341463,-0.548781,-4.781250,17.525000,19.381250,31.431,0.56854698,-0.00972382,-0.02880555,-0.82208881
'00:19:32.054,0.058594,0.028809,1.003418,0.426829,1.402439,-0.609756,-4.781250,17.525000,19.381250,31.431,0.56854919,-0.00971752,-0.02880662,-0.82208732
'00:19:32.064,0.057617,0.030762,1.003418,0.304878,1.341463,-0.609756,-4.793750,17.475000,19.393751,31.431,0.56854888,-0.00970634,-0.02880719,-0.82208765
'00:19:32.074,0.057129,0.029785,1.002930,0.304878,1.341463,-0.548781,-4.793750,17.475000,19.393751,31.416,0.56855319,-0.00969672,-0.02880041,-0.82208502
'00:19:32.084,0.058594,0.029785,1.003906,0.304878,1.341463,-0.609756,-4.981250,17.800001,19.625000,31.431,0.56854690,-0.00968889,-0.02879193,-0.82208976
'00:19:32.094,0.059570,0.030273,1.003906,0.304878,1.280488,-0.548781,-4.981250,17.800001,19.625000,31.431,0.56854475,-0.00968920,-0.02879310,-0.82209120
'00:19:32.104,0.059570,0.029785,1.005371,0.304878,1.280488,-0.548781,-4.862500,17.581251,19.431250,31.371,0.56854649,-0.00969474,-0.02879528,-0.82208985
'00:19:32.114,0.061035,0.029297,1.005371,0.365854,1.341463,-0.548781,-4.862500,17.581251,19.431250,31.371,0.56854847,-0.00970279,-0.02880163,-0.82208817
'00:19:32.124,0.060059,0.029785,1.004395,0.365854,1.341463,-0.548781,-4.756250,17.481251,19.343750,31.416,0.56855573,-0.00970859,-0.02881341,-0.82208267
'00:19:32.134,0.061035,0.030273,1.004395,0.365854,1.280488,-0.609756,-4.756250,17.481251,19.343750,31.401,0.56855827,-0.00972195,-0.02883460,-0.82208001
'00:19:32.144,0.059570,0.029785,1.002930,0.304878,1.341463,-0.609756,-4.793750,17.506250,19.356251,31.416,0.56855891,-0.00972587,-0.02883774,-0.82207941
'00:19:32.154,0.060059,0.029297,1.003906,0.365854,1.280488,-0.548781,-4.756250,17.512501,19.393751,31.401,0.56856651,-0.00973821,-0.02884992,-0.82207358
'00:19:32.164,0.059082,0.029785,1.003418,0.365854,1.280488,-0.548781,-4.756250,17.512501,19.393751,31.401,0.56857398,-0.00974304,-0.02886103,-0.82206797
'00:19:32.174,0.058105,0.029785,1.004395,0.365854,1.280488,-0.548781,-5.043750,17.950001,19.637501,31.416,0.56857096,-0.00973152,-0.02885560,-0.82207038
'00:19:32.184,0.058105,0.029785,1.004395,0.365854,1.280488,-0.548781,-5.043750,17.950001,19.637501,31.416,0.56856799,-0.00972019,-0.02885028,-0.82207276
'00:19:32.194,0.059082,0.029297,1.004395,0.304878,1.341463,-0.609756,-5.000000,17.812500,19.518751,31.386,0.56856107,-0.00971516,-0.02883904,-0.82207800
'00:19:32.204,0.059082,0.028320,1.004883,0.304878,1.280488,-0.548781,-5.000000,17.812500,19.518751,31.401,0.56855863,-0.00971845,-0.02882534,-0.82208013
'00:19:32.214,0.059570,0.028809,1.004883,0.365854,1.341463,-0.609756,-4.981250,17.756250,19.556250,31.431,0.56855173,-0.00971540,-0.02881778,-0.82208520
'00:19:32.224,0.059082,0.029785,1.004395,0.304878,1.341463,-0.548781,-4.981250,17.756250,19.556250,31.386,0.56854900,-0.00970922,-0.02880976,-0.82208744
'00:19:32.234,0.060059,0.029297,1.004883,0.426829,1.341463,-0.548781,-4.850000,17.487501,19.381250,31.446,0.56854984,-0.00970806,-0.02881545,-0.82208668
'00:19:32.244,0.060059,0.029785,1.002441,0.365854,1.341463,-0.609756,-4.850000,17.487501,19.381250,31.431,0.56854612,-0.00970837,-0.02882048,-0.82208907
'00:19:32.254,0.058105,0.029297,1.003418,0.365854,1.341463,-0.609756,-4.850000,17.587500,19.275000,31.431,0.56854541,-0.00970068,-0.02881745,-0.82208976
'00:19:32.265,0.059570,0.029785,1.003418,0.304878,1.341463,-0.548781,-4.850000,17.587500,19.275000,31.416,0.56854923,-0.00970263,-0.02881856,-0.82208705
'00:19:32.274,0.058594,0.030273,1.003906,0.304878,1.280488,-0.609756,-4.856250,17.568750,19.325001,31.386,0.56854724,-0.00970086,-0.02882017,-0.82208839
'00:19:32.284,0.059570,0.028809,1.003418,0.304878,1.341463,-0.609756,-4.856250,17.568750,19.325001,31.431,0.56854545,-0.00970580,-0.02881461,-0.82208977
'00:19:32.294,0.060547,0.028809,1.005371,0.304878,1.341463,-0.609756,-4.912500,17.706251,19.431250,31.431,0.56854258,-0.00971436,-0.02881084,-0.82209178
'00:19:32.304,0.060059,0.029785,1.003906,0.304878,1.341463,-0.548781,-4.912500,17.706251,19.431250,31.401,0.56854389,-0.00971680,-0.02881127,-0.82209084
'00:19:32.314,0.059570,0.030273,1.004395,0.365854,1.341463,-0.609756,-5.081250,17.862501,19.637501,31.401,0.56853219,-0.00970405,-0.02880721,-0.82209922
'00:19:32.325,0.060547,0.029785,1.004395,0.365854,1.280488,-0.548781,-5.081250,17.862501,19.637501,31.431,0.56852412,-0.00970319,-0.02880724,-0.82210481
'00:19:32.334,0.060059,0.029297,1.004395,0.365854,1.341463,-0.548781,-4.812500,17.562500,19.437500,31.446,0.56852866,-0.00970829,-0.02881290,-0.82210141
'00:19:32.344,0.060059,0.029297,1.004395,0.365854,1.341463,-0.609756,-4.812500,17.562500,19.437500,31.431,0.56852929,-0.00971370,-0.02881912,-0.82210070
'00:19:32.355,0.060059,0.029785,1.004883,0.365854,1.341463,-0.548781,-4.762500,17.518751,19.387501,31.431,0.56853759,-0.00972008,-0.02883193,-0.82209443
'00:19:32.367,0.059082,0.029297,1.002930,0.304878,1.341463,-0.548781,-4.781250,17.475000,19.287500,31.386,0.56854434,-0.00972431,-0.02883065,-0.82208976
'00:19:32.374,0.059082,0.030273,1.003906,0.304878,1.280488,-0.609756,-4.781250,17.475000,19.287500,31.386,0.56854495,-0.00972683,-0.02883566,-0.82208912
'00:19:32.384,0.059570,0.029297,1.002441,0.304878,1.402439,-0.548781,-4.781250,17.475000,19.287500,31.446,0.56855067,-0.00972867,-0.02883356,-0.82208523
'00:19:32.394,0.059570,0.029297,1.002441,0.243902,1.280488,-0.548781,-4.987500,17.825001,19.593750,31.431,0.56854879,-0.00973534,-0.02882490,-0.82208675
'00:19:32.405,0.059570,0.029297,1.004883,0.365854,1.341463,-0.548781,-5.175000,18.106251,19.781250,31.386,0.56853966,-0.00972332,-0.02881234,-0.82209365
'00:19:32.414,0.059570,0.029297,1.004883,0.304878,1.280488,-0.548781,-5.175000,18.106251,19.781250,31.401,0.56853206,-0.00972033,-0.02880107,-0.82209933
'00:19:32.424,0.059082,0.029297,1.004883,0.304878,1.341463,-0.548781,-4.768750,17.518751,19.281250,31.401,0.56853973,-0.00972488,-0.02880181,-0.82209395
'00:19:32.434,0.061035,0.029297,1.004395,0.304878,1.341463,-0.548781,-4.768750,17.518751,19.281250,31.431,0.56854727,-0.00974022,-0.02881024,-0.82208826
'00:19:32.446,0.060547,0.029785,1.004395,0.365854,1.280488,-0.548781,-4.806250,17.487501,19.306250,31.356,0.56855185,-0.00975117,-0.02882555,-0.82208442
'00:19:32.454,0.060547,0.030273,1.004395,0.304878,1.341463,-0.609756,-4.806250,17.487501,19.306250,31.476,0.56855135,-0.00975556,-0.02883187,-0.82208449
'00:19:32.464,0.060547,0.029297,1.002441,0.365854,1.280488,-0.609756,-4.943750,17.650000,19.456251,31.461,0.56854455,-0.00976083,-0.02883518,-0.82208902
'00:19:32.474,0.059082,0.029785,1.002930,0.243902,1.280488,-0.548781,-4.943750,17.650000,19.456251,31.476,0.56854196,-0.00976216,-0.02882659,-0.82209109
'00:19:32.486,0.057617,0.031250,1.003906,0.426829,1.341463,-0.609756,-5.018750,17.825001,19.593750,31.461,0.56853186,-0.00972870,-0.02882909,-0.82209839
'00:19:32.494,0.059082,0.029785,1.003906,0.365854,1.341463,-0.548781,-5.018750,17.825001,19.593750,31.401,0.56852887,-0.00972036,-0.02882519,-0.82210069
'00:19:32.504,0.059570,0.029297,1.004883,0.304878,1.280488,-0.548781,-5.093750,17.912500,19.625000,31.431,0.56852195,-0.00971873,-0.02881425,-0.82210588
'00:19:32.514,0.059082,0.029297,1.004883,0.243902,1.280488,-0.548781,-5.093750,17.912500,19.625000,31.401,0.56851503,-0.00971753,-0.02879728,-0.82211128
'00:19:32.526,0.059570,0.028320,1.003906,0.365854,1.341463,-0.548781,-4.906250,17.668751,19.400000,31.386,0.56851677,-0.00972026,-0.02879087,-0.82211026
'00:19:32.534,0.060059,0.029297,1.003906,0.365854,1.280488,-0.609756,-4.906250,17.668751,19.400000,31.401,0.56851415,-0.00972453,-0.02879502,-0.82211188
'00:19:32.544,0.060547,0.029297,1.002441,0.304878,1.280488,-0.609756,-4.768750,17.568750,19.375000,31.386,0.56851805,-0.00974290,-0.02880661,-0.82210856
'00:19:32.554,0.060059,0.029785,1.004883,0.365854,1.402439,-0.548781,-4.768750,17.568750,19.375000,31.446,0.56852656,-0.00974419,-0.02881616,-0.82210232
'00:19:32.566,0.059082,0.029785,1.003418,0.304878,1.341463,-0.548781,-4.781250,17.562500,19.318750,31.401,0.56853556,-0.00974717,-0.02882073,-0.82209590
'00:19:32.574,0.060059,0.029297,1.003906,0.304878,1.280488,-0.609756,-4.781250,17.562500,19.318750,31.431,0.56853796,-0.00975825,-0.02882679,-0.82209390
'00:19:32.584,0.060547,0.029297,1.003906,0.304878,1.341463,-0.548781,-4.800000,17.518751,19.325001,31.446,0.56854304,-0.00976866,-0.02883051,-0.82209013
'00:19:32.594,0.059082,0.028320,1.003418,0.304878,1.280488,-0.609756,-4.800000,17.518751,19.325001,31.416,0.56854382,-0.00977894,-0.02882619,-0.82208962
'00:19:32.605,0.059570,0.029785,1.004883,0.365854,1.341463,-0.548781,-4.968750,17.700001,19.518751,31.386,0.56854039,-0.00977048,-0.02882343,-0.82209219
'00:19:32.614,0.060059,0.029297,1.003418,0.365854,1.341463,-0.609756,-4.968750,17.700001,19.518751,31.431,0.56853375,-0.00976795,-0.02882101,-0.82209690
'00:19:32.624,0.059082,0.029297,1.003906,0.304878,1.280488,-0.548781,-4.843750,17.593750,19.375000,31.401,0.56853727,-0.00977297,-0.02882047,-0.82209443
'00:19:32.634,0.060059,0.029297,1.005371,0.304878,1.341463,-0.609756,-4.843750,17.593750,19.375000,31.431,0.56853653,-0.00977846,-0.02882013,-0.82209489
'00:19:32.646,0.060059,0.029297,1.003906,0.365854,1.341463,-0.548781,-4.762500,17.437500,19.275000,31.416,0.56854377,-0.00978502,-0.02882901,-0.82208948
'00:19:32.654,0.059570,0.028809,1.001953,0.304878,1.280488,-0.548781,-4.762500,17.437500,19.275000,31.401,0.56854849,-0.00979492,-0.02883058,-0.82208605
'00:19:32.664,0.060059,0.029297,1.004883,0.304878,1.341463,-0.609756,-4.831250,17.468750,19.325001,31.461,0.56854575,-0.00979904,-0.02882825,-0.82208798
'00:19:32.674,0.060547,0.028320,1.003906,0.304878,1.341463,-0.548781,-4.787500,17.475000,19.412500,31.446,0.56855040,-0.00981314,-0.02882599,-0.82208467
'00:19:32.686,0.061035,0.030273,1.004395,0.243902,1.341463,-0.548781,-4.787500,17.475000,19.412500,31.431,0.56855535,-0.00982725,-0.02883347,-0.82208082
'00:19:32.694,0.059570,0.029297,1.004395,0.304878,1.280488,-0.548781,-4.925000,17.662500,19.456251,31.386,0.56855455,-0.00982955,-0.02883023,-0.82208146
'00:19:32.704,0.059570,0.028809,1.003418,0.426829,1.341463,-0.548781,-4.925000,17.662500,19.456251,31.431,0.56855390,-0.00982409,-0.02882958,-0.82208200
'00:19:32.714,0.058594,0.029297,1.002441,0.304878,1.280488,-0.609756,-5.250000,18.106251,19.887501,31.492,0.56853552,-0.00981028,-0.02880808,-0.82209563
'00:19:32.726,0.059570,0.029785,1.003906,0.304878,1.280488,-0.609756,-5.250000,18.106251,19.887501,31.431,0.56851349,-0.00979782,-0.02878980,-0.82211165
'00:19:32.734,0.059570,0.029297,1.004395,0.365854,1.280488,-0.609756,-4.812500,17.568750,19.356251,31.386,0.56851422,-0.00980232,-0.02879618,-0.82211087
'00:19:32.744,0.060547,0.029297,1.004395,0.304878,1.280488,-0.548781,-4.812500,17.568750,19.356251,31.386,0.56851939,-0.00981644,-0.02880339,-0.82210687
'00:19:32.754,0.060547,0.029785,1.004883,0.365854,1.341463,-0.548781,-4.850000,17.587500,19.381250,31.446,0.56852235,-0.00981891,-0.02881181,-0.82210450
'00:19:32.764,0.059570,0.028320,1.004395,0.365854,1.341463,-0.548781,-4.850000,17.587500,19.381250,31.431,0.56852561,-0.00982179,-0.02880823,-0.82210233
'00:19:32.774,0.059570,0.030273,1.004395,0.304878,1.280488,-0.609756,-4.850000,17.537500,19.318750,31.476,0.56852296,-0.00982334,-0.02881338,-0.82210397
'00:19:32.784,0.059082,0.029785,1.002930,0.365854,1.341463,-0.548781,-4.850000,17.537500,19.318750,31.431,0.56852498,-0.00981714,-0.02881569,-0.82210256
'00:19:32.794,0.059570,0.030273,1.003418,0.365854,1.280488,-0.548781,-4.793750,17.550001,19.337500,31.461,0.56853088,-0.00981975,-0.02883011,-0.82209795
'00:19:32.804,0.059570,0.029785,1.002930,0.304878,1.280488,-0.609756,-4.793750,17.550001,19.337500,31.431,0.56853240,-0.00982719,-0.02883738,-0.82209655
'00:19:32.814,0.060059,0.030273,1.002930,0.304878,1.341463,-0.609756,-4.837500,17.618750,19.356251,31.476,0.56853242,-0.00982920,-0.02884430,-0.82209627
'00:19:32.825,0.060059,0.029297,1.004883,0.365854,1.341463,-0.609756,-4.837500,17.618750,19.356251,31.371,0.56853273,-0.00983180,-0.02884968,-0.82209584
'00:19:32.834,0.059570,0.028809,1.004395,0.365854,1.280488,-0.548781,-4.931250,17.750000,19.487501,31.446,0.56853335,-0.00983417,-0.02884873,-0.82209541
'00:19:32.847,0.059570,0.028320,1.004395,0.365854,1.341463,-0.548781,-4.931250,17.750000,19.487501,31.431,0.56853457,-0.00983433,-0.02883988,-0.82209488
'00:19:32.854,0.059082,0.029785,1.003906,0.304878,1.341463,-0.609756,-4.837500,17.450001,19.306250,31.416,0.56853201,-0.00983134,-0.02883706,-0.82209679
'00:19:32.864,0.058594,0.029297,1.003418,0.304878,1.341463,-0.609756,-4.837500,17.450001,19.306250,31.431,0.56852848,-0.00982643,-0.02882862,-0.82209958
'00:19:32.874,0.059082,0.030273,1.004883,0.365854,1.341463,-0.548781,-4.818750,17.500000,19.362501,31.416,0.56853146,-0.00981931,-0.02883407,-0.82209741
'00:19:32.884,0.059082,0.028320,1.002930,0.365854,1.341463,-0.548781,-4.818750,17.500000,19.362501,31.431,0.56853483,-0.00982040,-0.02882909,-0.82209524
'00:19:32.894,0.060059,0.030762,1.003418,0.304878,1.341463,-0.548781,-4.775000,17.431250,19.343750,31.446,0.56853910,-0.00982188,-0.02883916,-0.82209192
'00:19:32.904,0.060547,0.029785,1.004395,0.426829,1.402439,-0.548781,-4.775000,17.431250,19.343750,31.431,0.56854378,-0.00981927,-0.02885069,-0.82208831
'00:19:32.914,0.060547,0.029785,1.004395,0.426829,1.402439,-0.548781,-5.087500,17.975000,19.743750,31.431,0.56853826,-0.00980636,-0.02885008,-0.82209230
'00:19:32.929,0.060059,0.029297,1.004395,0.365854,1.341463,-0.548781,-5.031250,17.787500,19.625000,31.371,0.56852970,-0.00979785,-0.02884033,-0.82209867
'00:19:32.934,0.060059,0.029297,1.004395,0.365854,1.341463,-0.548781,-5.031250,17.787500,19.625000,31.371,0.56852687,-0.00979510,-0.02883718,-0.82210076
'00:19:32.944,0.060059,0.029297,1.003906,0.304878,1.280488,-0.548781,-4.793750,17.537500,19.306250,31.386,0.56853274,-0.00980721,-0.02884283,-0.82209637
'00:19:32.954,0.060059,0.029297,1.003418,0.365854,1.341463,-0.548781,-4.793750,17.537500,19.306250,31.401,0.56853875,-0.00981183,-0.02884989,-0.82209191
'00:19:32.964,0.060547,0.030273,1.004883,0.304878,1.280488,-0.548781,-4.818750,17.487501,19.362501,31.416,0.56854113,-0.00982021,-0.02885899,-0.82208984
'00:19:32.974,0.059570,0.028809,1.003906,0.304878,1.341463,-0.548781,-4.818750,17.487501,19.362501,31.386,0.56854396,-0.00982465,-0.02885319,-0.82208803
'00:19:32.984,0.059570,0.029297,1.005371,0.304878,1.341463,-0.548781,-4.756250,17.556250,19.375000,31.401,0.56855266,-0.00983165,-0.02885621,-0.82208183
'00:19:32.994,0.059570,0.029785,1.004395,0.304878,1.341463,-0.609756,-4.756250,17.556250,19.375000,31.461,0.56855683,-0.00983664,-0.02886237,-0.82207867
'00:19:33.004,0.058594,0.030273,1.003906,0.365854,1.341463,-0.548781,-5.193750,18.050001,19.743750,31.431,0.56854568,-0.00981338,-0.02884961,-0.82208711
'00:19:33.014,0.059082,0.029785,1.003418,0.365854,1.341463,-0.548781,-5.193750,18.050001,19.743750,31.416,0.56853472,-0.00979513,-0.02883646,-0.82209537
'00:19:33.024,0.060059,0.029785,1.003418,0.365854,1.341463,-0.548781,-5.312500,18.187500,19.806250,31.401,0.56851906,-0.00977791,-0.02882186,-0.82210691
'00:19:33.034,0.061035,0.028320,1.003906,0.365854,1.280488,-0.487805,-5.312500,18.187500,19.806250,31.401,0.56850801,-0.00977619,-0.02880602,-0.82211513
'00:19:33.044,0.060547,0.029297,1.004395,0.365854,1.280488,-0.548781,-4.831250,17.493750,19.356251,31.416,0.56851019,-0.00978550,-0.02881422,-0.82211322
'00:19:33.054,0.061035,0.029297,1.003418,0.365854,1.341463,-0.548781,-4.831250,17.493750,19.356251,31.431,0.56851246,-0.00979319,-0.02882152,-0.82211131
'00:19:33.064,0.059570,0.029297,1.004883,0.365854,1.341463,-0.548781,-4.812500,17.556250,19.400000,31.446,0.56851737,-0.00979447,-0.02882531,-0.82210776
'00:19:33.074,0.060059,0.029297,1.003418,0.304878,1.341463,-0.609756,-4.812500,17.556250,19.400000,31.461,0.56851781,-0.00980161,-0.02882717,-0.82210731
'00:19:33.084,0.059570,0.029297,1.003906,0.365854,1.341463,-0.609756,-4.825000,17.487501,19.306250,31.386,0.56851619,-0.00980080,-0.02882886,-0.82210838
'00:19:33.094,0.060547,0.029297,1.003906,0.365854,1.341463,-0.548781,-4.825000,17.487501,19.306250,31.416,0.56851890,-0.00980555,-0.02883424,-0.82210626
'00:19:33.104,0.059570,0.029297,1.003418,0.304878,1.341463,-0.548781,-5.062500,17.850000,19.606251,31.401,0.56851268,-0.00979952,-0.02882145,-0.82211108
'00:19:33.114,0.059570,0.028809,1.004395,0.365854,1.341463,-0.548781,-5.062500,17.850000,19.606251,31.386,0.56850668,-0.00979226,-0.02881016,-0.82211571
'00:19:33.128,0.059570,0.028809,1.004395,0.304878,1.280488,-0.548781,-5.050000,17.931250,19.643751,31.522,0.56850168,-0.00979538,-0.02879669,-0.82211961
'00:19:33.135,0.059082,0.029785,1.004883,0.304878,1.341463,-0.609756,-5.050000,17.931250,19.643751,31.416,0.56849612,-0.00978919,-0.02879041,-0.82212374
'00:19:33.144,0.059082,0.029785,1.003906,0.365854,1.341463,-0.548781,-4.875000,17.593750,19.450001,31.416,0.56849727,-0.00978364,-0.02879179,-0.82212297
'00:19:33.154,0.059082,0.030273,1.003418,0.304878,1.280488,-0.548781,-4.875000,17.593750,19.450001,31.461,0.56849824,-0.00978313,-0.02879493,-0.82212219
'00:19:33.164,0.060059,0.029785,1.003906,0.365854,1.341463,-0.609756,-4.812500,17.475000,19.318750,31.461,0.56849717,-0.00978413,-0.02880255,-0.82212265
'00:19:33.174,0.060547,0.029785,1.003418,0.304878,1.280488,-0.548781,-4.825000,17.487501,19.306250,31.431,0.56849971,-0.00979482,-0.02881007,-0.82212050
'00:19:33.184,0.060059,0.029297,1.004883,0.365854,1.341463,-0.548781,-4.825000,17.487501,19.306250,31.461,0.56850255,-0.00979684,-0.02881356,-0.82211839
'00:19:33.194,0.059570,0.029297,1.003906,0.304878,1.341463,-0.609756,-4.806250,17.475000,19.306250,31.401,0.56850197,-0.00980018,-0.02881233,-0.82211880
'00:19:33.204,0.061035,0.029785,1.004395,0.304878,1.280488,-0.548781,-4.806250,17.475000,19.306250,31.416,0.56850544,-0.00981407,-0.02882231,-0.82211588
'00:19:33.214,0.060059,0.029297,1.004395,0.365854,1.341463,-0.609756,-5.050000,17.893751,19.512501,31.461,0.56849719,-0.00980833,-0.02881790,-0.82212181
'00:19:33.224,0.059570,0.030273,1.002930,0.365854,1.280488,-0.548781,-5.050000,17.893751,19.512501,31.401,0.56849300,-0.00980112,-0.02882070,-0.82212469
'00:19:33.234,0.059570,0.030762,1.005371,0.304878,1.341463,-0.548781,-5.087500,17.925001,19.668751,31.386,0.56848644,-0.00978892,-0.02881539,-0.82212956
'00:19:33.244,0.060547,0.029785,1.004883,0.365854,1.341463,-0.609756,-5.087500,17.925001,19.668751,31.401,0.56847579,-0.00978293,-0.02881310,-0.82213708
'00:19:33.254,0.059082,0.028809,1.002930,0.365854,1.402439,-0.548781,-4.800000,17.556250,19.356251,31.401,0.56848217,-0.00978041,-0.02881134,-0.82213276
'00:19:33.264,0.059570,0.029297,1.003418,0.304878,1.341463,-0.548781,-4.800000,17.556250,19.356251,31.461,0.56848822,-0.00978598,-0.02881272,-0.82212846
'00:19:33.274,0.058594,0.028809,1.004883,0.365854,1.341463,-0.548781,-4.812500,17.537500,19.350000,31.401,0.56849314,-0.00978356,-0.02880986,-0.82212519
'00:19:33.284,0.061035,0.029297,1.003906,0.365854,1.341463,-0.548781,-4.812500,17.537500,19.350000,31.386,0.56849785,-0.00979297,-0.02881964,-0.82212147
'00:19:33.294,0.060059,0.029297,1.003906,0.304878,1.280488,-0.609756,-4.806250,17.537500,19.350000,31.401,0.56849841,-0.00980443,-0.02882465,-0.82212077
'00:19:33.304,0.060059,0.029785,1.003906,0.304878,1.341463,-0.609756,-4.806250,17.537500,19.350000,31.446,0.56849899,-0.00980942,-0.02882930,-0.82212015
'00:19:33.314,0.061035,0.029785,1.004395,0.365854,1.402439,-0.609756,-4.968750,17.750000,19.575001,31.401,0.56849264,-0.00980586,-0.02883075,-0.82212454
'00:19:33.324,0.060547,0.028809,1.003418,0.365854,1.341463,-0.548781,-4.968750,17.750000,19.575001,31.401,0.56849073,-0.00980822,-0.02882820,-0.82212592
'00:19:33.334,0.060059,0.029785,1.002930,0.426829,1.402439,-0.548781,-4.906250,17.643751,19.400000,31.431,0.56849133,-0.00979860,-0.02883352,-0.82212543
'00:19:33.344,0.059082,0.029297,1.002930,0.304878,1.280488,-0.548781,-4.906250,17.643751,19.400000,31.431,0.56849166,-0.00980042,-0.02882957,-0.82212532
'00:19:33.354,0.057617,0.030273,1.003418,0.304878,1.341463,-0.548781,-4.825000,17.575001,19.337500,31.431,0.56849625,-0.00978960,-0.02882710,-0.82212236
'00:19:33.364,0.059570,0.029297,1.004883,0.365854,1.341463,-0.548781,-4.825000,17.575001,19.337500,31.416,0.56850105,-0.00979028,-0.02883050,-0.82211891
'00:19:33.374,0.060059,0.027832,1.004883,0.426829,1.341463,-0.609756,-4.768750,17.437500,19.306250,31.401,0.56850259,-0.00979776,-0.02883294,-0.82211768
'00:19:33.384,0.059570,0.029297,1.005859,0.304878,1.280488,-0.548781,-4.768750,17.437500,19.306250,31.401,0.56850794,-0.00980698,-0.02883562,-0.82211377
'00:19:33.394,0.058594,0.030273,1.004395,0.365854,1.341463,-0.548781,-4.743750,17.537500,19.287500,31.431,0.56851750,-0.00980255,-0.02884636,-0.82210683
'00:19:33.404,0.059082,0.031738,1.001953,0.365854,1.341463,-0.548781,-4.743750,17.537500,19.287500,31.446,0.56852666,-0.00979556,-0.02886811,-0.82209982
'00:19:33.414,0.059082,0.030273,1.000977,0.304878,1.341463,-0.548781,-5.106250,17.912500,19.606251,31.431,0.56851871,-0.00978200,-0.02885756,-0.82210585
'00:19:33.424,0.058105,0.029297,1.003418,0.304878,1.341463,-0.548781,-5.106250,17.912500,19.606251,31.416,0.56851107,-0.00976661,-0.02883713,-0.82211204
'00:19:33.434,0.060059,0.029785,1.004883,0.304878,1.341463,-0.548781,-5.193750,17.993750,19.662500,31.386,0.56849928,-0.00975622,-0.02882201,-0.82212084
'00:19:33.445,0.059082,0.027832,1.005859,0.304878,1.341463,-0.548781,-4.856250,17.587500,19.412500,31.386,0.56850252,-0.00976228,-0.02880690,-0.82211906
'00:19:33.454,0.059570,0.027832,1.005859,0.304878,1.280488,-0.548781,-4.856250,17.587500,19.412500,31.416,0.56850503,-0.00977354,-0.02879917,-0.82211746
'00:19:33.464,0.060059,0.029785,1.005859,0.426829,1.341463,-0.609756,-4.787500,17.500000,19.393751,31.461,0.56850605,-0.00977334,-0.02881271,-0.82211628
'00:19:33.474,0.058594,0.030273,1.003906,0.426829,1.341463,-0.548781,-4.787500,17.500000,19.393751,31.416,0.56851134,-0.00976359,-0.02882385,-0.82211235
'00:19:33.484,0.059082,0.030273,1.002441,0.365854,1.341463,-0.548781,-4.862500,17.593750,19.431250,31.476,0.56851339,-0.00975681,-0.02882920,-0.82211083
'00:19:33.494,0.060059,0.030273,1.001953,0.243902,1.341463,-0.548781,-4.862500,17.593750,19.431250,31.401,0.56851528,-0.00976168,-0.02882970,-0.82210944
'00:19:33.504,0.059082,0.030273,1.001953,0.304878,1.341463,-0.548781,-4.856250,17.550001,19.425001,31.446,0.56851667,-0.00975779,-0.02883022,-0.82210851
'00:19:33.514,0.058594,0.028320,1.006836,0.365854,1.280488,-0.548781,-4.856250,17.550001,19.425001,31.431,0.56851842,-0.00975925,-0.02882320,-0.82210753
'00:19:33.524,0.060059,0.027832,1.005371,0.426829,1.402439,-0.548781,-5.256250,18.100000,19.793751,31.401,0.56850517,-0.00974412,-0.02880076,-0.82211765
'00:19:33.534,0.060547,0.029297,1.004883,0.304878,1.280488,-0.548781,-5.256250,18.100000,19.793751,31.371,0.56849132,-0.00974124,-0.02878610,-0.82212778
'00:19:33.544,0.060059,0.030762,1.004883,0.304878,1.341463,-0.548781,-4.987500,17.700001,19.518751,31.492,0.56848696,-0.00973512,-0.02878603,-0.82213087
'00:19:33.554,0.059570,0.030762,1.004883,0.365854,1.402439,-0.548781,-4.987500,17.700001,19.518751,31.461,0.56848285,-0.00971902,-0.02878546,-0.82213392
'00:19:33.564,0.059570,0.029297,1.001953,0.365854,1.341463,-0.548781,-4.862500,17.562500,19.362501,31.401,0.56848486,-0.00971910,-0.02878758,-0.82213246
'00:19:33.574,0.060547,0.030762,1.001953,0.304878,1.280488,-0.548781,-4.862500,17.562500,19.362501,31.401,0.56848632,-0.00972620,-0.02880035,-0.82213092
'00:19:33.585,0.059082,0.029785,1.003418,0.304878,1.341463,-0.609756,-4.768750,17.531250,19.356251,31.416,0.56848994,-0.00972972,-0.02880523,-0.82212820
'00:19:33.594,0.059082,0.030273,1.004883,0.365854,1.341463,-0.548781,-4.768750,17.531250,19.356251,31.416,0.56849678,-0.00972794,-0.02881500,-0.82212315
'00:19:33.604,0.060547,0.029297,1.005859,0.365854,1.280488,-0.548781,-4.850000,17.493750,19.400000,31.371,0.56849760,-0.00973666,-0.02882101,-0.82212227
'00:19:33.614,0.059082,0.028809,1.005859,0.365854,1.341463,-0.609756,-4.850000,17.493750,19.400000,31.371,0.56849432,-0.00973452,-0.02881549,-0.82212476
'00:19:33.624,0.059082,0.029785,1.006348,0.365854,1.341463,-0.609756,-4.962500,17.781250,19.493750,31.431,0.56848956,-0.00972595,-0.02881352,-0.82212822
'00:19:33.634,0.059082,0.029297,1.001953,0.365854,1.341463,-0.548781,-4.962500,17.781250,19.493750,31.446,0.56848926,-0.00972049,-0.02881054,-0.82212859
'00:19:33.644,0.060059,0.030273,1.002441,0.304878,1.341463,-0.548781,-5.000000,17.756250,19.481251,31.416,0.56848562,-0.00971700,-0.02880884,-0.82213121
'00:19:33.654,0.060059,0.030273,1.002441,0.304878,1.341463,-0.548781,-5.000000,17.756250,19.481251,31.416,0.56848200,-0.00971357,-0.02880720,-0.82213381
'00:19:33.664,0.060059,0.029785,1.002930,0.365854,1.280488,-0.548781,-4.918750,17.650000,19.443750,31.386,0.56848159,-0.00971665,-0.02881380,-0.82213383
'00:19:33.674,0.060059,0.029297,1.004883,0.365854,1.280488,-0.548781,-4.918750,17.650000,19.443750,31.431,0.56848127,-0.00972116,-0.02881678,-0.82213389
'00:19:33.684,0.059082,0.029785,1.006348,0.365854,1.280488,-0.548781,-4.768750,17.456251,19.325001,31.431,0.56848720,-0.00972418,-0.02882540,-0.82212945
'00:19:33.694,0.060059,0.029785,1.004883,0.365854,1.341463,-0.548781,-4.818750,17.537500,19.318750,31.371,0.56849165,-0.00972648,-0.02883324,-0.82212607
'00:19:33.704,0.059082,0.029785,1.003418,0.365854,1.341463,-0.548781,-4.818750,17.537500,19.318750,31.416,0.56849610,-0.00972362,-0.02883774,-0.82212288
'00:19:33.714,0.059082,0.028809,1.002930,0.304878,1.280488,-0.548781,-4.862500,17.562500,19.425001,31.431,0.56849763,-0.00973008,-0.02883238,-0.82212193
'00:19:33.724,0.060059,0.029297,1.002441,0.365854,1.341463,-0.548781,-4.862500,17.562500,19.425001,31.461,0.56849921,-0.00973265,-0.02883519,-0.82212070
'00:19:33.734,0.059082,0.029785,1.003418,0.365854,1.280488,-0.548781,-5.050000,17.793751,19.612501,31.401,0.56849248,-0.00972450,-0.02883036,-0.82212562
'00:19:33.744,0.060059,0.028809,1.003906,0.304878,1.280488,-0.548781,-5.050000,17.793751,19.612501,31.416,0.56848593,-0.00972855,-0.02881936,-0.82213049
'00:19:33.754,0.059082,0.029297,1.005371,0.304878,1.280488,-0.548781,-4.912500,17.500000,19.393751,31.461,0.56848262,-0.00972855,-0.02881080,-0.82213308
'00:19:33.765,0.060059,0.028809,1.006836,0.304878,1.280488,-0.548781,-4.912500,17.500000,19.393751,31.401,0.56847910,-0.00973626,-0.02880204,-0.82213573
'00:19:33.774,0.059570,0.029785,1.003418,0.365854,1.341463,-0.548781,-4.837500,17.581251,19.343750,31.401,0.56848282,-0.00973563,-0.02880785,-0.82213296
'00:19:33.784,0.059570,0.030273,1.002930,0.365854,1.341463,-0.548781,-4.837500,17.581251,19.343750,31.461,0.56848683,-0.00973311,-0.02881715,-0.82212989
'00:19:33.795,0.059570,0.030273,1.002441,0.304878,1.341463,-0.548781,-4.812500,17.518751,19.312500,31.401,0.56849157,-0.00973443,-0.02882320,-0.82212639
'00:19:33.804,0.060547,0.029297,1.002441,0.304878,1.280488,-0.609756,-4.812500,17.518751,19.312500,31.386,0.56849150,-0.00974760,-0.02882922,-0.82212607
'00:19:33.814,0.060059,0.029297,1.001465,0.365854,1.280488,-0.548781,-4.931250,17.756250,19.481251,31.431,0.56849254,-0.00975312,-0.02883471,-0.82212509
'00:19:33.824,0.061035,0.029297,1.003418,0.365854,1.341463,-0.609756,-4.931250,17.756250,19.481251,31.461,0.56848932,-0.00975895,-0.02884011,-0.82212706
'00:19:33.834,0.060059,0.029297,1.004883,0.365854,1.341463,-0.548781,-5.131250,17.943750,19.662500,31.446,0.56848071,-0.00975045,-0.02883007,-0.82213347
'00:19:33.844,0.059082,0.029785,1.004883,0.365854,1.341463,-0.548781,-5.131250,17.943750,19.662500,31.446,0.56847207,-0.00973494,-0.02881924,-0.82214000
'00:19:33.854,0.060059,0.029297,1.004395,0.365854,1.341463,-0.609756,-4.975000,17.668751,19.462500,31.446,0.56846405,-0.00973170,-0.02881545,-0.82214572
'00:19:33.864,0.059570,0.030762,1.002930,0.304878,1.341463,-0.548781,-4.975000,17.668751,19.462500,31.416,0.56846008,-0.00972363,-0.02881425,-0.82214860
'00:19:33.874,0.059082,0.031250,1.002441,0.365854,1.341463,-0.609756,-4.787500,17.537500,19.306250,31.401,0.56846221,-0.00971710,-0.02883042,-0.82214664
'00:19:33.884,0.059570,0.030762,1.004395,0.243902,1.280488,-0.548781,-4.787500,17.537500,19.306250,31.446,0.56846854,-0.00972543,-0.02883889,-0.82214187
'00:19:33.894,0.059082,0.029785,1.004883,0.365854,1.341463,-0.548781,-4.818750,17.537500,19.362501,31.401,0.56847287,-0.00972246,-0.02884269,-0.82213878
'00:19:33.904,0.059570,0.028809,1.004883,0.365854,1.341463,-0.548781,-4.818750,17.537500,19.362501,31.431,0.56847738,-0.00972607,-0.02884277,-0.82213561
'00:19:33.914,0.059570,0.029297,1.004883,0.304878,1.341463,-0.548781,-4.843750,17.575001,19.393751,31.416,0.56848073,-0.00972977,-0.02884010,-0.82213334
'00:19:33.924,0.060059,0.029297,1.004395,0.365854,1.341463,-0.548781,-4.843750,17.575001,19.393751,31.431,0.56848410,-0.00973319,-0.02884391,-0.82213084
'00:19:33.934,0.059570,0.030273,1.002930,0.365854,1.402439,-0.548781,-4.956250,17.781250,19.493750,31.371,0.56848413,-0.00972227,-0.02884487,-0.82213092
'00:19:33.944,0.059570,0.030273,1.002441,0.426829,1.402439,-0.548781,-4.956250,17.781250,19.493750,31.476,0.56848421,-0.00970858,-0.02885039,-0.82213083
'00:19:33.954,0.059570,0.030273,1.001953,0.304878,1.280488,-0.548781,-5.193750,17.950001,19.668751,31.431,0.56847127,-0.00969898,-0.02883917,-0.82214028
'00:19:33.964,0.057129,0.030273,1.004395,0.365854,1.341463,-0.548781,-4.812500,17.493750,19.325001,31.416,0.56847516,-0.00968337,-0.02883790,-0.82213782
'00:19:33.974,0.060059,0.028809,1.004395,0.304878,1.280488,-0.548781,-4.812500,17.493750,19.325001,31.416,0.56847907,-0.00969745,-0.02883837,-0.82213494
'00:19:33.984,0.060059,0.028809,1.005371,0.365854,1.341463,-0.609756,-4.837500,17.531250,19.481251,31.431,0.56847727,-0.00970299,-0.02883835,-0.82213612
'00:19:33.994,0.059082,0.029785,1.003906,0.365854,1.341463,-0.548781,-4.837500,17.531250,19.481251,31.431,0.56847966,-0.00969962,-0.02884063,-0.82213442
'00:19:34.004,0.058594,0.030273,1.003906,0.304878,1.341463,-0.548781,-4.825000,17.518751,19.375000,31.401,0.56848292,-0.00969498,-0.02884032,-0.82213223
'00:19:34.017,0.060547,0.030762,1.003418,0.304878,1.341463,-0.548781,-4.825000,17.518751,19.375000,31.431,0.56848693,-0.00970074,-0.02885362,-0.82212893
'00:19:34.024,0.060059,0.031250,1.003906,0.304878,1.341463,-0.548781,-4.950000,17.612501,19.468750,31.431,0.56848425,-0.00969623,-0.02885567,-0.82213076
'00:19:34.034,0.060059,0.030273,1.003418,0.304878,1.341463,-0.548781,-4.950000,17.612501,19.468750,31.371,0.56848065,-0.00969379,-0.02885328,-0.82213337
'00:19:34.044,0.059570,0.029785,1.004395,0.304878,1.280488,-0.548781,-5.212500,18.031250,19.675001,31.461,0.56846849,-0.00968585,-0.02883901,-0.82214236
'00:19:34.055,0.059082,0.029297,1.005859,0.365854,1.341463,-0.548781,-5.212500,18.031250,19.675001,31.461,0.56845557,-0.00966800,-0.02881951,-0.82215219
'00:19:34.064,0.058105,0.029785,1.003906,0.304878,1.341463,-0.548781,-4.850000,17.606251,19.450001,31.431,0.56845880,-0.00966354,-0.02881546,-0.82215016
'00:19:34.075,0.059082,0.030273,1.003906,0.243902,1.341463,-0.548781,-4.850000,17.606251,19.450001,31.416,0.56846254,-0.00966534,-0.02881298,-0.82214764
'00:19:34.084,0.058105,0.031738,1.003906,0.182927,1.219512,-0.548781,-4.856250,17.587500,19.412500,31.431,0.56846437,-0.00966662,-0.02881580,-0.82214626
'00:19:34.094,0.059082,0.028809,1.004883,0.182927,1.280488,-0.548781,-4.856250,17.587500,19.412500,31.401,0.56846714,-0.00968040,-0.02880263,-0.82214464
'00:19:34.104,0.060059,0.028320,1.006836,-0.060976,0.975610,-0.487805,-4.875000,17.550001,19.456251,31.416,0.56847100,-0.00973343,-0.02878497,-0.82214196
'00:19:34.114,0.061523,0.027344,1.008301,-0.243902,0.670732,-0.487805,-4.875000,17.550001,19.456251,31.431,0.56847403,-0.00982814,-0.02876906,-0.82213930
'00:19:34.124,0.062500,0.026367,1.003418,0.182927,1.097561,-0.548781,-4.837500,17.525000,19.318750,31.416,0.56847667,-0.00988130,-0.02876556,-0.82213696
'00:19:34.134,0.062500,0.027832,1.004395,0.975610,1.951220,-0.609756,-4.837500,17.525000,19.318750,31.446,0.56847736,-0.00982709,-0.02878446,-0.82213647
'00:19:34.144,0.060547,0.030273,1.003906,1.341463,2.378049,-0.670732,-5.125000,17.981251,19.662500,31.476,0.56846452,-0.00969474,-0.02880290,-0.82214627
'00:19:34.154,0.059570,0.030273,0.999023,-0.243902,0.670732,-0.426829,-5.125000,17.981251,19.662500,31.356,0.56846376,-0.00976161,-0.02879032,-0.82214645
'00:19:34.164,0.060547,0.028809,0.999512,0.975610,2.012195,-0.670732,-4.875000,17.637501,19.487501,31.416,0.56845965,-0.00969099,-0.02880542,-0.82214960
'00:19:34.174,0.062500,0.028320,1.001953,-0.182927,0.670732,-0.426829,-4.875000,17.637501,19.487501,31.356,0.56846882,-0.00978772,-0.02880744,-0.82214204
'00:19:34.184,0.056641,0.033203,1.012207,0.731707,1.707317,-0.670732,-4.862500,17.531250,19.387501,31.431,0.56846170,-0.00970807,-0.02882318,-0.82214735
'00:19:34.194,0.062012,0.023926,1.002930,0.243902,1.219512,-0.609756,-4.862500,17.531250,19.387501,31.371,0.56845913,-0.00975681,-0.02879993,-0.82214937
'00:19:34.204,0.054688,0.032715,1.009277,0.243902,1.341463,-0.609756,-4.831250,17.493750,19.325001,31.401,0.56845682,-0.00972097,-0.02879155,-0.82215168
'00:19:34.215,0.062012,0.027344,1.000977,0.304878,1.341463,-0.609756,-4.781250,17.462500,19.393751,31.416,0.56845804,-0.00975208,-0.02879194,-0.82215046
'00:19:34.224,0.056152,0.032227,1.004883,0.487805,1.524390,-0.609756,-4.781250,17.462500,19.393751,31.416,0.56845883,-0.00970942,-0.02879904,-0.82215017
'00:19:34.234,0.062500,0.028809,0.998535,0.365854,1.280488,-0.548781,-4.987500,17.731251,19.556250,31.431,0.56845538,-0.00972811,-0.02880789,-0.82215203
'00:19:34.244,0.057617,0.033691,1.004395,0.243902,1.219512,-0.548781,-4.987500,17.731251,19.556250,31.446,0.56845078,-0.00970971,-0.02881724,-0.82215509
'00:19:34.254,0.062012,0.030273,1.002930,0.426829,1.463415,-0.548781,-5.062500,17.918751,19.587500,31.431,0.56844680,-0.00970102,-0.02882440,-0.82215770
'00:19:34.264,0.059570,0.028809,1.007812,0.060976,1.097561,-0.548781,-5.062500,17.918751,19.587500,31.386,0.56844201,-0.00972818,-0.02880410,-0.82216140
'00:19:34.274,0.060547,0.027344,1.007324,0.243902,1.219512,-0.609756,-4.800000,17.525000,19.425001,31.386,0.56844293,-0.00975833,-0.02879775,-0.82216063
'00:19:34.284,0.060059,0.027344,1.004395,0.487805,1.341463,-0.609756,-4.800000,17.525000,19.425001,31.476,0.56844432,-0.00976516,-0.02880213,-0.82215944
'00:19:34.294,0.058105,0.029785,1.004883,0.670732,1.646341,-0.670732,-4.856250,17.525000,19.350000,31.446,0.56843818,-0.00971653,-0.02880642,-0.82216410
'00:19:34.304,0.060059,0.030762,1.000000,0.243902,1.158537,-0.548781,-4.856250,17.525000,19.350000,31.416,0.56843899,-0.00973307,-0.02881925,-0.82216290
'00:19:34.314,0.058594,0.031738,1.001953,0.365854,1.463415,-0.609756,-4.893750,17.512501,19.425001,31.431,0.56843289,-0.00970662,-0.02882119,-0.82216736
'00:19:34.324,0.061035,0.030273,1.001465,0.243902,1.280488,-0.548781,-4.893750,17.512501,19.425001,31.416,0.56843089,-0.00971933,-0.02882476,-0.82216847
'00:19:34.335,0.059570,0.029785,1.006348,0.182927,1.280488,-0.487805,-5.143750,17.900000,19.606251,31.446,0.56842432,-0.00971888,-0.02880143,-0.82217383
'00:19:34.344,0.061035,0.027832,1.006348,0.182927,1.219512,-0.548781,-5.143750,17.900000,19.606251,31.401,0.56841526,-0.00973619,-0.02878076,-0.82218062
'00:19:34.355,0.060547,0.028320,1.006836,0.182927,1.219512,-0.609756,-4.968750,17.743750,19.450001,31.431,0.56840890,-0.00976044,-0.02876728,-0.82218520
'00:19:34.364,0.060059,0.028320,1.001953,0.121951,1.036585,-0.548781,-4.968750,17.743750,19.450001,31.431,0.56840715,-0.00979322,-0.02876064,-0.82218625
'00:19:34.374,0.061035,0.029297,1.000000,0.365854,1.341463,-0.548781,-4.875000,17.525000,19.350000,31.386,0.56840754,-0.00979963,-0.02876786,-0.82218565
'00:19:34.384,0.060547,0.030273,1.001465,0.914634,1.951220,-0.670732,-4.875000,17.525000,19.350000,31.431,0.56840098,-0.00972788,-0.02878724,-0.82219036
'00:19:34.394,0.060547,0.030273,1.001465,0.914634,1.951220,-0.670732,-4.875000,17.506250,19.375000,31.431,0.56839398,-0.00965701,-0.02880593,-0.82219538
'00:19:34.404,0.056641,0.034668,1.007324,0.121951,1.097561,-0.548781,-4.875000,17.506250,19.375000,31.431,0.56839226,-0.00964779,-0.02881726,-0.82219628
'00:19:34.415,0.058594,0.029785,1.005371,0.731707,1.768293,-0.609756,-4.781250,17.481251,19.387501,31.446,0.56839553,-0.00959103,-0.02882727,-0.82219433
'00:19:34.424,0.058594,0.029785,1.005371,0.731707,1.768293,-0.609756,-4.781250,17.481251,19.387501,31.446,0.56839827,-0.00954533,-0.02883540,-0.82219269
'00:19:34.434,0.058594,0.028809,1.006348,-0.060976,0.853659,-0.548781,-4.818750,17.493750,19.356251,31.401,0.56840080,-0.00960164,-0.02882431,-0.82219067
'00:19:34.444,0.060059,0.028320,1.002930,0.000000,0.975610,-0.548781,-4.818750,17.493750,19.356251,31.431,0.56840361,-0.00965612,-0.02881588,-0.82218838
'00:19:34.456,0.058105,0.030762,1.002930,0.670732,1.646341,-0.548781,-4.881250,17.718750,19.481251,31.416,0.56840962,-0.00959795,-0.02883149,-0.82218436
'00:19:34.464,0.058105,0.030762,1.002930,0.670732,1.646341,-0.548781,-4.881250,17.718750,19.481251,31.416,0.56841367,-0.00955982,-0.02884176,-0.82218165
'00:19:34.474,0.060547,0.030273,1.002930,0.182927,1.036585,-0.548781,-4.993750,17.668751,19.418751,31.401,0.56840824,-0.00958835,-0.02884663,-0.82218490
'00:19:34.484,0.062012,0.029297,1.002441,0.365854,1.402439,-0.609756,-4.806250,17.518751,19.418751,31.431,0.56840893,-0.00960250,-0.02885771,-0.82218387
'00:19:34.494,0.058105,0.031250,1.005371,0.670732,1.768293,-0.609756,-4.806250,17.518751,19.418751,31.431,0.56841052,-0.00954500,-0.02886712,-0.82218311
'00:19:34.504,0.061035,0.027832,1.002930,-0.060976,0.914634,-0.548781,-4.868750,17.531250,19.418751,31.416,0.56841035,-0.00961253,-0.02885456,-0.82218288
'00:19:34.514,0.061523,0.028809,1.003418,0.792683,1.829268,-0.548781,-4.868750,17.531250,19.418751,31.431,0.56841288,-0.00956995,-0.02886519,-0.82218126
'00:19:34.524,0.057617,0.030273,1.004395,-0.121951,0.792683,-0.487805,-4.818750,17.493750,19.343750,31.371,0.56841919,-0.00962249,-0.02885746,-0.82217655
'00:19:34.535,0.059082,0.028320,1.003418,0.243902,1.158537,-0.548781,-4.818750,17.493750,19.343750,31.416,0.56842294,-0.00964810,-0.02885239,-0.82217383
'00:19:34.544,0.061035,0.029785,1.003418,0.670732,1.585366,-0.548781,-5.075000,17.831251,19.612501,31.401,0.56841738,-0.00961756,-0.02886006,-0.82217777
'00:19:34.554,0.056641,0.033691,1.009277,0.426829,1.524390,-0.609756,-5.075000,17.831251,19.612501,31.401,0.56840584,-0.00956008,-0.02885681,-0.82218653
'00:19:34.564,0.062500,0.028320,1.000000,0.243902,1.280488,-0.548781,-5.068750,17.862501,19.656250,31.416,0.56839994,-0.00958582,-0.02884986,-0.82219055
'00:19:34.575,0.057617,0.032227,1.004883,0.426829,1.524390,-0.609756,-5.068750,17.862501,19.656250,31.431,0.56838875,-0.00953720,-0.02884487,-0.82219903
'00:19:34.584,0.062500,0.027344,1.001953,0.182927,1.219512,-0.548781,-4.862500,17.525000,19.337500,31.401,0.56839017,-0.00957677,-0.02883955,-0.82219777
'00:19:34.594,0.060059,0.028809,1.006836,0.426829,1.463415,-0.609756,-4.862500,17.525000,19.337500,31.401,0.56838796,-0.00957023,-0.02883607,-0.82219950
'00:19:34.604,0.061523,0.027344,1.004883,0.121951,1.097561,-0.548781,-4.850000,17.493750,19.325001,31.431,0.56838938,-0.00961979,-0.02882725,-0.82219825
'00:19:34.616,0.060547,0.029297,1.003906,0.304878,1.219512,-0.548781,-4.850000,17.493750,19.325001,31.416,0.56839108,-0.00964167,-0.02883442,-0.82219656
'00:19:34.624,0.059570,0.030273,1.002441,0.731707,1.768293,-0.609756,-4.868750,17.581251,19.356251,31.386,0.56839045,-0.00960044,-0.02884418,-0.82219715
'00:19:34.634,0.058594,0.031738,1.004883,0.121951,1.036585,-0.548781,-4.868750,17.581251,19.356251,31.386,0.56839147,-0.00962069,-0.02885232,-0.82219592
'00:19:34.644,0.060059,0.029297,1.003418,0.548781,1.646341,-0.609756,-5.031250,17.843750,19.587500,31.401,0.56838456,-0.00958802,-0.02884650,-0.82220128
'00:19:34.656,0.058594,0.029785,1.004395,0.121951,1.036585,-0.548781,-5.031250,17.843750,19.587500,31.401,0.56837930,-0.00961532,-0.02883532,-0.82220499
'00:19:34.664,0.058594,0.028809,1.002930,0.487805,1.463415,-0.609756,-5.075000,17.956251,19.693750,31.446,0.56837294,-0.00959679,-0.02882749,-0.82220987
'00:19:34.674,0.059570,0.029785,1.007324,0.182927,1.158537,-0.548781,-5.075000,17.956251,19.693750,31.416,0.56836823,-0.00961170,-0.02881856,-0.82221327
'00:19:34.684,0.060059,0.028809,1.005859,0.121951,1.036585,-0.487805,-4.818750,17.493750,19.375000,31.416,0.56837561,-0.00965337,-0.02881755,-0.82220772
'00:19:34.696,0.061035,0.028809,1.002441,0.365854,1.341463,-0.548781,-4.818750,17.493750,19.375000,31.386,0.56838018,-0.00966906,-0.02882533,-0.82220410
'00:19:34.704,0.060547,0.030762,1.004395,0.792683,1.768293,-0.609756,-4.812500,17.468750,19.387501,31.416,0.56838036,-0.00962917,-0.02884462,-0.82220376
'00:19:34.715,0.059570,0.030762,1.002930,0.000000,0.975610,-0.548781,-4.800000,17.456251,19.387501,31.431,0.56838320,-0.00967587,-0.02884876,-0.82220111
'00:19:34.724,0.060059,0.029297,1.002930,0.365854,1.402439,-0.609756,-4.800000,17.456251,19.387501,31.416,0.56838299,-0.00967712,-0.02885080,-0.82220117
'00:19:34.735,0.059570,0.029785,1.004395,0.487805,1.524390,-0.548781,-4.950000,17.768751,19.512501,31.416,0.56838410,-0.00965211,-0.02885167,-0.82220066
'00:19:34.744,0.059570,0.027344,1.006348,0.182927,1.158537,-0.609756,-4.950000,17.768751,19.512501,31.401,0.56838052,-0.00967720,-0.02883608,-0.82220339
'00:19:34.754,0.059082,0.028320,1.004883,0.365854,1.341463,-0.609756,-4.787500,17.500000,19.362501,31.431,0.56838246,-0.00968228,-0.02883356,-0.82220208
'00:19:34.765,0.057617,0.030273,1.003906,0.304878,1.341463,-0.548781,-4.787500,17.500000,19.362501,31.431,0.56838893,-0.00967401,-0.02883236,-0.82219774
'00:19:34.775,0.059082,0.029297,1.003418,0.365854,1.280488,-0.548781,-4.900000,17.581251,19.506250,31.431,0.56838837,-0.00967468,-0.02883181,-0.82219814
'00:19:34.785,0.059082,0.029785,1.002441,0.487805,1.524390,-0.548781,-4.900000,17.581251,19.506250,31.401,0.56838842,-0.00965011,-0.02883108,-0.82219843
'00:19:34.794,0.059082,0.029785,1.003418,0.182927,1.219512,-0.548781,-4.812500,17.475000,19.412500,31.461,0.56839112,-0.00966469,-0.02882810,-0.82219649
'00:19:34.804,0.061035,0.029785,1.003906,0.365854,1.402439,-0.609756,-4.812500,17.475000,19.412500,31.431,0.56839026,-0.00966909,-0.02883629,-0.82219674
'00:19:34.816,0.059082,0.029785,1.006348,0.304878,1.219512,-0.609756,-4.806250,17.493750,19.293751,31.386,0.56839038,-0.00968037,-0.02884282,-0.82219630
'00:19:34.824,0.061035,0.028320,1.004395,0.243902,1.219512,-0.548781,-4.806250,17.493750,19.293751,31.401,0.56839406,-0.00970384,-0.02884354,-0.82219346
'00:19:34.834,0.061035,0.029785,1.002930,0.365854,1.402439,-0.548781,-4.812500,17.512501,19.287500,31.431,0.56839887,-0.00970807,-0.02885291,-0.82218975
'00:19:34.844,0.061035,0.029785,1.003418,0.487805,1.524390,-0.609756,-4.812500,17.512501,19.287500,31.401,0.56839969,-0.00969716,-0.02886465,-0.82218890
'00:19:34.856,0.060547,0.030273,1.003906,0.426829,1.402439,-0.609756,-5.143750,17.950001,19.712500,31.461,0.56838346,-0.00967758,-0.02886237,-0.82220043
'00:19:34.864,0.060547,0.029297,1.002930,0.304878,1.280488,-0.609756,-5.143750,17.950001,19.712500,31.401,0.56837253,-0.00967980,-0.02885476,-0.82220823
'00:19:34.874,0.060059,0.031738,1.004395,0.426829,1.341463,-0.609756,-4.937500,17.718750,19.506250,31.401,0.56836795,-0.00966812,-0.02887289,-0.82221090
'00:19:34.884,0.059570,0.029297,1.004395,0.304878,1.219512,-0.548781,-4.937500,17.718750,19.506250,31.386,0.56836786,-0.00967840,-0.02887240,-0.82221085
'00:19:34.897,0.059082,0.029785,1.005371,0.426829,1.463415,-0.609756,-4.775000,17.462500,19.350000,31.416,0.56837046,-0.00966229,-0.02887696,-0.82220909
'00:19:34.904,0.059082,0.028809,1.003906,0.304878,1.280488,-0.548781,-4.775000,17.462500,19.350000,31.446,0.56837467,-0.00967021,-0.02887607,-0.82220611
'00:19:34.914,0.059570,0.029785,1.002441,0.365854,1.402439,-0.548781,-4.818750,17.525000,19.425001,31.431,0.56837889,-0.00966716,-0.02887906,-0.82220313
'00:19:34.924,0.060059,0.029785,1.002930,0.365854,1.341463,-0.609756,-4.818750,17.525000,19.425001,31.401,0.56837855,-0.00967097,-0.02888676,-0.82220304
'00:19:34.934,0.060547,0.030762,1.003418,0.365854,1.341463,-0.548781,-4.768750,17.518751,19.375000,31.431,0.56838590,-0.00967648,-0.02890547,-0.82219724
'00:19:34.944,0.060059,0.029785,1.003418,0.304878,1.280488,-0.548781,-4.768750,17.518751,19.375000,31.401,0.56839321,-0.00969040,-0.02891502,-0.82219169
'00:19:34.954,0.061035,0.029785,1.005371,0.243902,1.280488,-0.548781,-5.037500,17.825001,19.550001,31.431,0.56838844,-0.00970035,-0.02890914,-0.82219508
'00:19:34.964,0.060547,0.028320,1.004395,0.304878,1.280488,-0.548781,-5.037500,17.825001,19.550001,31.401,0.56838403,-0.00971036,-0.02889809,-0.82219840
'00:19:34.976,0.060547,0.028320,1.004395,0.487805,1.524390,-0.548781,-5.150000,18.037500,19.656250,31.416,0.56837612,-0.00968626,-0.02888214,-0.82220471
'00:19:34.984,0.061035,0.028809,1.003418,0.182927,1.219512,-0.548781,-5.150000,18.037500,19.656250,31.401,0.56837001,-0.00970086,-0.02887029,-0.82220918
'00:19:34.994,0.059570,0.028809,1.003418,0.426829,1.402439,-0.609756,-4.881250,17.637501,19.456251,31.431,0.56836830,-0.00969561,-0.02886961,-0.82221044
'00:19:35.004,0.060059,0.031250,1.002930,0.365854,1.341463,-0.609756,-4.768750,17.500000,19.350000,31.446,0.56837087,-0.00969577,-0.02888934,-0.82220797
'00:19:35.017,0.059570,0.029785,1.002930,0.304878,1.341463,-0.609756,-4.768750,17.500000,19.350000,31.476,0.56837452,-0.00970387,-0.02889554,-0.82220514
'00:19:35.024,0.059082,0.028809,1.004883,0.304878,1.341463,-0.548781,-4.781250,17.531250,19.343750,31.431,0.56837962,-0.00970849,-0.02889283,-0.82220165
'00:19:35.034,0.059570,0.028809,1.003906,0.304878,1.341463,-0.548781,-4.781250,17.531250,19.343750,31.431,0.56838685,-0.00971793,-0.02889127,-0.82219659
'00:19:35.044,0.058594,0.028809,1.005371,0.426829,1.402439,-0.609756,-4.956250,17.775000,19.487501,31.446,0.56838304,-0.00970398,-0.02888319,-0.82219968
'00:19:35.054,0.059082,0.029297,1.003906,0.243902,1.280488,-0.548781,-4.956250,17.775000,19.487501,31.416,0.56838306,-0.00970932,-0.02887333,-0.82219995
'00:19:35.064,0.059570,0.030273,1.004395,0.304878,1.341463,-0.609756,-5.062500,17.843750,19.643751,31.446,0.56837250,-0.00970090,-0.02886538,-0.82220763
'00:19:35.074,0.059570,0.029785,1.003418,0.304878,1.341463,-0.548781,-5.062500,17.843750,19.643751,31.401,0.56836647,-0.00969491,-0.02885521,-0.82221222
'00:19:35.084,0.060059,0.030273,1.001465,0.304878,1.341463,-0.548781,-4.881250,17.600000,19.412500,31.401,0.56836787,-0.00969708,-0.02885919,-0.82221109
'00:19:35.096,0.058594,0.029785,1.002441,0.304878,1.341463,-0.548781,-4.881250,17.600000,19.412500,31.416,0.56836973,-0.00969195,-0.02885329,-0.82221007
'00:19:35.107,0.059570,0.028320,1.003906,0.365854,1.341463,-0.548781,-4.806250,17.556250,19.418751,31.401,0.56837639,-0.00970042,-0.02885240,-0.82220540
'00:19:35.114,0.060547,0.028320,1.003418,0.304878,1.341463,-0.548781,-4.806250,17.556250,19.418751,31.401,0.56838053,-0.00971170,-0.02885155,-0.82220244
'00:19:35.124,0.060547,0.028809,1.003418,0.304878,1.341463,-0.609756,-4.818750,17.518751,19.293751,31.401,0.56838070,-0.00972383,-0.02885156,-0.82220217
'00:19:35.134,0.060059,0.029297,1.005371,0.365854,1.341463,-0.609756,-4.818750,17.518751,19.293751,31.431,0.56838084,-0.00972772,-0.02885604,-0.82220188
'00:19:35.144,0.060059,0.029297,1.005371,0.365854,1.341463,-0.609756,-4.787500,17.543751,19.356251,31.431,0.56838348,-0.00973403,-0.02886333,-0.82219972
'00:19:35.154,0.060547,0.029785,1.005859,0.365854,1.341463,-0.548781,-4.787500,17.543751,19.356251,31.416,0.56839033,-0.00974104,-0.02887490,-0.82219449
'00:19:35.164,0.060059,0.029297,1.003418,0.426829,1.402439,-0.548781,-4.756250,17.500000,19.350000,31.431,0.56839861,-0.00974162,-0.02888534,-0.82218839
'00:19:35.174,0.059082,0.031250,1.001953,0.304878,1.280488,-0.548781,-4.756250,17.500000,19.350000,31.401,0.56840605,-0.00974404,-0.02890083,-0.82218268
'00:19:35.184,0.058594,0.029785,1.003906,0.304878,1.341463,-0.548781,-4.881250,17.612501,19.456251,31.401,0.56840745,-0.00973885,-0.02889464,-0.82218199
'00:19:35.194,0.060547,0.028320,1.002930,0.304878,1.341463,-0.548781,-4.881250,17.612501,19.456251,31.446,0.56840909,-0.00975051,-0.02888818,-0.82218095
'00:19:35.204,0.060547,0.029785,1.004395,0.304878,1.341463,-0.548781,-4.768750,17.500000,19.287500,31.431,0.56841629,-0.00976086,-0.02889603,-0.82217557
'00:19:35.214,0.060547,0.029785,1.004883,0.365854,1.341463,-0.609756,-4.768750,17.500000,19.287500,31.386,0.56841911,-0.00976773,-0.02890793,-0.82217312
'00:19:35.224,0.060547,0.029297,1.005859,0.365854,1.341463,-0.609756,-4.750000,17.462500,19.331251,31.401,0.56842224,-0.00977700,-0.02891693,-0.82217053
'00:19:35.234,0.060547,0.028320,1.005371,0.426829,1.341463,-0.487805,-4.750000,17.462500,19.331251,31.431,0.56843433,-0.00978736,-0.02892464,-0.82216178
'00:19:35.244,0.060059,0.029297,1.003906,0.365854,1.341463,-0.548781,-4.850000,17.581251,19.375000,31.416,0.56843738,-0.00978965,-0.02892703,-0.82215956
'00:19:35.254,0.060059,0.029785,1.001953,0.426829,1.402439,-0.548781,-4.850000,17.581251,19.375000,31.446,0.56844049,-0.00978300,-0.02893426,-0.82215723
'00:19:35.264,0.058594,0.029785,1.002441,0.426829,1.402439,-0.548781,-4.975000,17.781250,19.512501,31.431,0.56843922,-0.00976385,-0.02893041,-0.82215847
'00:19:35.274,0.059570,0.028809,1.001953,0.365854,1.402439,-0.548781,-5.231250,18.156250,19.750000,31.416,0.56842885,-0.00974817,-0.02891027,-0.82216654
'00:19:35.284,0.060059,0.029297,1.003906,0.304878,1.280488,-0.609756,-5.231250,18.156250,19.750000,31.461,0.56841375,-0.00974475,-0.02889601,-0.82217752
'00:19:35.294,0.060059,0.030273,1.004883,0.365854,1.280488,-0.548781,-4.818750,17.600000,19.306250,31.431,0.56841955,-0.00975010,-0.02891021,-0.82217295
'00:19:35.304,0.060547,0.029297,1.005859,0.304878,1.341463,-0.548781,-4.818750,17.600000,19.306250,31.431,0.56842559,-0.00976027,-0.02891273,-0.82216856
'00:19:35.314,0.059570,0.028809,1.003906,0.304878,1.280488,-0.548781,-4.856250,17.518751,19.387501,31.431,0.56842667,-0.00976842,-0.02890733,-0.82216790
'00:19:35.324,0.059082,0.029297,1.003906,0.304878,1.341463,-0.548781,-4.856250,17.518751,19.387501,31.416,0.56842782,-0.00976745,-0.02889986,-0.82216739
'00:19:35.334,0.059082,0.029297,1.003906,0.365854,1.341463,-0.609756,-4.800000,17.531250,19.356251,31.461,0.56842901,-0.00976689,-0.02890172,-0.82216651
'00:19:35.344,0.059082,0.029297,1.004395,0.365854,1.280488,-0.548781,-4.800000,17.531250,19.356251,31.461,0.56843441,-0.00977075,-0.02890632,-0.82216256
'00:19:35.354,0.058105,0.029297,1.003906,0.365854,1.341463,-0.609756,-4.981250,17.737501,19.500000,31.386,0.56842738,-0.00975698,-0.02889498,-0.82216799
'00:19:35.364,0.059082,0.029297,1.003906,0.304878,1.280488,-0.548781,-4.981250,17.737501,19.500000,31.461,0.56842455,-0.00975638,-0.02888622,-0.82217025
'00:19:35.374,0.060547,0.029785,1.004883,0.304878,1.280488,-0.548781,-4.931250,17.712500,19.518751,31.431,0.56842436,-0.00976444,-0.02888875,-0.82217021
'00:19:35.384,0.059082,0.029785,1.004883,0.426829,1.402439,-0.548781,-4.931250,17.712500,19.518751,31.416,0.56842460,-0.00974954,-0.02888829,-0.82217023
'00:19:35.394,0.060547,0.030273,1.002930,0.304878,1.280488,-0.548781,-4.831250,17.550001,19.381250,31.446,0.56842790,-0.00975970,-0.02889853,-0.82216747
'00:19:35.404,0.061035,0.028809,1.003906,0.365854,1.280488,-0.609756,-4.831250,17.550001,19.381250,31.386,0.56842714,-0.00977475,-0.02890618,-0.82216755
'00:19:35.414,0.060547,0.029297,1.002930,0.304878,1.341463,-0.487805,-4.806250,17.493750,19.293751,31.401,0.56843586,-0.00978463,-0.02890827,-0.82216133
'00:19:35.424,0.060059,0.030273,1.003418,0.304878,1.341463,-0.548781,-4.806250,17.493750,19.293751,31.431,0.56843998,-0.00978752,-0.02891378,-0.82215825
'00:19:35.434,0.059570,0.030762,1.005371,0.304878,1.280488,-0.548781,-4.768750,17.512501,19.350000,31.431,0.56844668,-0.00979242,-0.02892561,-0.82215314
'00:19:35.444,0.060547,0.028809,1.004883,0.365854,1.341463,-0.548781,-4.768750,17.512501,19.350000,31.416,0.56845391,-0.00980305,-0.02893142,-0.82214781
'00:19:35.454,0.060059,0.029785,1.004883,0.365854,1.341463,-0.548781,-4.750000,17.468750,19.400000,31.446,0.56846096,-0.00980765,-0.02894107,-0.82214254
'00:19:35.464,0.059082,0.030762,1.004883,0.304878,1.341463,-0.609756,-4.750000,17.468750,19.400000,31.431,0.56846337,-0.00980566,-0.02894801,-0.82214066
'00:19:35.474,0.059570,0.030273,1.001953,0.365854,1.341463,-0.548781,-5.043750,17.868750,19.618750,31.401,0.56845860,-0.00979447,-0.02894579,-0.82214417
'00:19:35.484,0.060059,0.030273,1.002930,0.304878,1.280488,-0.548781,-5.043750,17.868750,19.618750,31.416,0.56845366,-0.00979333,-0.02894376,-0.82214767
'00:19:35.494,0.060059,0.028320,1.004883,0.365854,1.280488,-0.548781,-4.875000,17.612501,19.468750,31.416,0.56845528,-0.00980260,-0.02894144,-0.82214652
'00:19:35.504,0.060547,0.028809,1.004883,0.304878,1.341463,-0.548781,-4.875000,17.612501,19.468750,31.431,0.56845686,-0.00981116,-0.02893639,-0.82214550
'00:19:35.514,0.060059,0.028809,1.003906,0.365854,1.280488,-0.548781,-4.793750,17.456251,19.387501,31.431,0.56846060,-0.00982112,-0.02894002,-0.82214267
'00:19:35.524,0.059570,0.029297,1.004883,0.304878,1.341463,-0.548781,-4.818750,17.506250,19.281250,31.416,0.56846424,-0.00982353,-0.02893623,-0.82214026
'00:19:35.534,0.060547,0.030273,1.003418,0.365854,1.402439,-0.548781,-4.818750,17.506250,19.281250,31.416,0.56846781,-0.00982037,-0.02894369,-0.82213756
'00:19:35.544,0.060059,0.030273,1.004395,0.304878,1.280488,-0.609756,-4.862500,17.543751,19.375000,31.461,0.56846412,-0.00982405,-0.02894775,-0.82213993
'00:19:35.554,0.059570,0.030762,1.001953,0.365854,1.341463,-0.548781,-4.862500,17.543751,19.375000,31.446,0.56846489,-0.00981632,-0.02895490,-0.82213924
'00:19:35.564,0.060059,0.029297,1.002930,0.365854,1.341463,-0.548781,-5.200000,18.037500,19.731251,31.431,0.56845341,-0.00980479,-0.02894080,-0.82214780
'00:19:35.574,0.059570,0.029785,1.005859,0.304878,1.280488,-0.548781,-5.200000,18.037500,19.731251,31.371,0.56844174,-0.00979576,-0.02892536,-0.82215653
'00:19:35.584,0.060059,0.028320,1.005859,0.365854,1.341463,-0.609756,-5.231250,18.056250,19.750000,31.401,0.56842460,-0.00978613,-0.02890354,-0.82216926
'00:19:35.594,0.060059,0.029785,1.004395,0.365854,1.280488,-0.548781,-5.231250,18.056250,19.750000,31.416,0.56841147,-0.00977599,-0.02889372,-0.82217880
'00:19:35.604,0.058105,0.030273,1.005371,0.365854,1.280488,-0.548781,-4.862500,17.537500,19.362501,31.431,0.56841253,-0.00976657,-0.02889513,-0.82217813
'00:19:35.614,0.058594,0.029297,1.001953,0.365854,1.341463,-0.609756,-4.862500,17.537500,19.362501,31.416,0.56840954,-0.00976003,-0.02889126,-0.82218041
'00:19:35.624,0.059570,0.029785,1.000977,0.304878,1.280488,-0.548781,-4.831250,17.531250,19.375000,31.431,0.56841258,-0.00976673,-0.02889527,-0.82217809
'00:19:35.634,0.058594,0.030273,1.003418,0.304878,1.280488,-0.609756,-4.831250,17.531250,19.375000,31.401,0.56841116,-0.00976527,-0.02889727,-0.82217902
'00:19:35.644,0.060059,0.029785,1.004395,0.365854,1.402439,-0.548781,-4.781250,17.512501,19.306250,31.446,0.56841788,-0.00976473,-0.02890366,-0.82217416
'00:19:35.654,0.058594,0.030273,1.004395,0.304878,1.280488,-0.609756,-4.781250,17.512501,19.306250,31.446,0.56841979,-0.00976571,-0.02890876,-0.82217265
'00:19:35.664,0.060059,0.028809,1.005371,0.304878,1.280488,-0.609756,-5.043750,17.906250,19.618750,31.401,0.56841192,-0.00977067,-0.02889935,-0.82217836
'00:19:35.674,0.061035,0.029297,1.004883,0.365854,1.402439,-0.548781,-5.043750,17.906250,19.618750,31.416,0.56840867,-0.00976753,-0.02889501,-0.82218079
'00:19:35.684,0.060547,0.029785,1.003906,0.304878,1.341463,-0.609756,-4.787500,17.575001,19.381250,31.446,0.56841152,-0.00977769,-0.02890307,-0.82217842
'00:19:35.696,0.060059,0.029785,1.004883,0.304878,1.341463,-0.548781,-4.787500,17.575001,19.381250,31.431,0.56842017,-0.00978637,-0.02890975,-0.82217210
'00:19:35.704,0.060059,0.030762,1.003418,0.304878,1.280488,-0.548781,-4.925000,17.693750,19.431250,31.431,0.56842006,-0.00978740,-0.02891499,-0.82217198
'00:19:35.714,0.059570,0.028809,1.003906,0.365854,1.341463,-0.548781,-4.925000,17.693750,19.431250,31.461,0.56842055,-0.00978609,-0.02890977,-0.82217184
'00:19:35.724,0.060547,0.030273,1.004883,0.365854,1.341463,-0.548781,-4.768750,17.456251,19.312500,31.446,0.56842641,-0.00979026,-0.02892300,-0.82216728
'00:19:35.734,0.058594,0.029297,1.004395,0.365854,1.341463,-0.609756,-4.768750,17.456251,19.312500,31.446,0.56842813,-0.00978726,-0.02892309,-0.82216612
'00:19:35.744,0.059082,0.029297,1.004883,0.304878,1.341463,-0.548781,-4.762500,17.487501,19.256250,31.416,0.56843558,-0.00979077,-0.02892186,-0.82216097
'00:19:35.754,0.060547,0.028809,1.005371,0.365854,1.280488,-0.548781,-4.762500,17.487501,19.256250,31.356,0.56844295,-0.00980546,-0.02893072,-0.82215539
'00:19:35.764,0.060059,0.029785,1.003906,0.365854,1.402439,-0.609756,-4.775000,17.468750,19.418751,31.416,0.56844397,-0.00980424,-0.02893581,-0.82215452
'00:19:35.774,0.059570,0.030273,1.003418,0.365854,1.280488,-0.548781,-5.062500,17.900000,19.531250,31.446,0.56843897,-0.00979635,-0.02893588,-0.82215806
'00:19:35.784,0.059082,0.029297,1.001465,0.304878,1.280488,-0.609756,-5.062500,17.900000,19.531250,31.416,0.56842978,-0.00979297,-0.02892514,-0.82216483
'00:19:35.794,0.060547,0.028809,1.003418,0.304878,1.280488,-0.548781,-4.937500,17.693750,19.506250,31.401,0.56842881,-0.00980387,-0.02892113,-0.82216552
'00:19:35.804,0.060547,0.029297,1.004395,0.365854,1.341463,-0.548781,-4.937500,17.693750,19.506250,31.446,0.56842793,-0.00980510,-0.02892089,-0.82216612
'00:19:35.814,0.060059,0.030762,1.004883,0.365854,1.341463,-0.609756,-4.818750,17.556250,19.400000,31.401,0.56842777,-0.00980267,-0.02893308,-0.82216583
'00:19:35.824,0.060059,0.030273,1.004395,0.365854,1.280488,-0.548781,-4.818750,17.556250,19.400000,31.401,0.56843191,-0.00980681,-0.02894547,-0.82216249
'00:19:35.834,0.060547,0.030273,1.003418,0.365854,1.402439,-0.548781,-4.787500,17.543751,19.312500,31.416,0.56843854,-0.00980652,-0.02895622,-0.82215753
'00:19:35.844,0.059570,0.029297,1.002930,0.304878,1.341463,-0.609756,-4.787500,17.543751,19.312500,31.431,0.56844080,-0.00981200,-0.02895635,-0.82215590
'00:19:35.854,0.060059,0.028320,1.004395,0.304878,1.341463,-0.548781,-4.806250,17.506250,19.343750,31.431,0.56844527,-0.00982219,-0.02894971,-0.82215291
'00:19:35.864,0.060059,0.028320,1.004395,0.304878,1.341463,-0.548781,-4.806250,17.506250,19.343750,31.431,0.56844972,-0.00983222,-0.02894315,-0.82214995
'00:19:35.874,0.059570,0.029785,1.003906,0.304878,1.341463,-0.548781,-5.162500,18.068750,19.706251,31.431,0.56844143,-0.00982132,-0.02892894,-0.82215631
'00:19:35.884,0.059570,0.029785,1.003906,0.304878,1.341463,-0.548781,-5.162500,18.068750,19.706251,31.431,0.56843322,-0.00981063,-0.02891500,-0.82216261
'00:19:35.894,0.058105,0.029785,1.004395,0.365854,1.341463,-0.609756,-5.118750,18.000000,19.668751,31.401,0.56842223,-0.00979035,-0.02890166,-0.82217091
'00:19:35.904,0.059570,0.030762,1.003418,0.304878,1.341463,-0.609756,-5.118750,18.000000,19.668751,31.371,0.56841105,-0.00977787,-0.02889559,-0.82217901
'00:19:35.915,0.059570,0.030273,1.004883,0.304878,1.341463,-0.548781,-4.843750,17.568750,19.400000,31.431,0.56841434,-0.00977689,-0.02889775,-0.82217667
'00:19:35.924,0.058105,0.029297,1.003906,0.243902,1.341463,-0.609756,-4.843750,17.568750,19.400000,31.431,0.56841326,-0.00977500,-0.02888585,-0.82217785
'00:19:35.934,0.058105,0.029297,1.005371,0.182927,1.219512,-0.609756,-4.800000,17.550001,19.437500,31.371,0.56841420,-0.00978692,-0.02887676,-0.82217738
'00:19:35.945,0.061523,0.028320,1.002930,0.609756,1.585366,-0.609756,-4.800000,17.550001,19.437500,31.401,0.56841669,-0.00977348,-0.02889018,-0.82217535
'00:19:35.954,0.061523,0.028320,1.002930,0.609756,1.585366,-0.609756,-4.781250,17.512501,19.381250,31.401,0.56841930,-0.00976307,-0.02890160,-0.82217327
'00:19:35.964,0.058594,0.032715,1.006348,0.426829,1.463415,-0.609756,-4.781250,17.512501,19.381250,31.401,0.56842095,-0.00973503,-0.02891936,-0.82217184
'00:19:35.974,0.060059,0.029297,1.002930,0.182927,1.158537,-0.609756,-5.037500,17.806250,19.512501,31.446,0.56841109,-0.00975257,-0.02890914,-0.82217880
'00:19:35.984,0.060547,0.028809,1.002441,0.548781,1.585366,-0.609756,-5.037500,17.806250,19.512501,31.416,0.56840271,-0.00972582,-0.02890349,-0.82218511
'00:19:35.994,0.055664,0.032227,1.005859,0.243902,1.219512,-0.548781,-4.987500,17.825001,19.550001,31.416,0.56840072,-0.00970346,-0.02889744,-0.82218696
'00:19:36.004,0.059570,0.029297,1.002441,0.243902,1.219512,-0.548781,-4.987500,17.825001,19.550001,31.446,0.56839927,-0.00971508,-0.02889143,-0.82218804
'00:19:36.014,0.058594,0.029297,1.003906,0.548781,1.585366,-0.548781,-4.756250,17.493750,19.375000,31.431,0.56840792,-0.00968856,-0.02889517,-0.82218224
'00:19:36.025,0.059570,0.028809,1.004883,0.243902,1.158537,-0.548781,-4.825000,17.518751,19.325001,31.416,0.56841165,-0.00971344,-0.02889404,-0.82217941
'00:19:36.034,0.060059,0.029785,1.001953,0.487805,1.463415,-0.548781,-4.825000,17.518751,19.325001,31.386,0.56841531,-0.00970244,-0.02890294,-0.82217670
'00:19:36.044,0.060059,0.030762,1.003906,0.121951,1.158537,-0.548781,-4.818750,17.462500,19.350000,31.461,0.56841708,-0.00972575,-0.02890542,-0.82217511
'00:19:36.054,0.062012,0.028320,1.003418,0.243902,1.219512,-0.609756,-4.818750,17.462500,19.350000,31.416,0.56841512,-0.00975867,-0.02890745,-0.82217601
'00:19:36.064,0.061523,0.028320,1.003418,0.487805,1.524390,-0.609756,-4.812500,17.518751,19.387501,31.446,0.56841571,-0.00975574,-0.02891166,-0.82217548
'00:19:36.074,0.059570,0.030762,1.005371,0.365854,1.402439,-0.548781,-4.812500,17.518751,19.387501,31.446,0.56841984,-0.00974691,-0.02891859,-0.82217249
'00:19:36.084,0.061523,0.029297,1.002441,0.243902,1.280488,-0.548781,-4.837500,17.556250,19.356251,31.431,0.56842304,-0.00976904,-0.02892212,-0.82216989
'00:19:36.095,0.058105,0.030762,1.004883,0.426829,1.463415,-0.548781,-4.837500,17.556250,19.356251,31.386,0.56842700,-0.00974091,-0.02892388,-0.82216742
'00:19:36.105,0.060059,0.028320,1.001953,0.243902,1.280488,-0.548781,-4.918750,17.681250,19.431250,31.401,0.56842748,-0.00975590,-0.02891291,-0.82216730
'00:19:36.114,0.058105,0.031250,1.004395,0.365854,1.463415,-0.548781,-4.918750,17.681250,19.431250,31.416,0.56842793,-0.00973152,-0.02891010,-0.82216737
'00:19:36.124,0.059570,0.028809,1.002441,0.304878,1.341463,-0.548781,-4.781250,17.568750,19.325001,31.431,0.56843589,-0.00974119,-0.02890957,-0.82216177
'00:19:36.134,0.058594,0.029297,1.005371,0.304878,1.341463,-0.548781,-4.781250,17.568750,19.325001,31.431,0.56844378,-0.00974274,-0.02890686,-0.82215640
'00:19:36.145,0.059570,0.028809,1.003418,0.365854,1.463415,-0.548781,-4.825000,17.518751,19.325001,31.446,0.56844820,-0.00973624,-0.02889891,-0.82215370
'00:19:36.154,0.061035,0.027832,1.004395,0.243902,1.219512,-0.548781,-4.825000,17.518751,19.325001,31.416,0.56845132,-0.00976271,-0.02889530,-0.82215136
'00:19:36.164,0.057617,0.029785,1.004395,0.365854,1.402439,-0.548781,-4.831250,17.606251,19.450001,31.461,0.56845614,-0.00974712,-0.02889012,-0.82214839
'00:19:36.174,0.060547,0.028809,1.003418,0.426829,1.341463,-0.548781,-4.831250,17.606251,19.450001,31.446,0.56846096,-0.00975345,-0.02889862,-0.82214468
'00:19:36.184,0.060059,0.029297,1.005371,0.243902,1.280488,-0.609756,-4.912500,17.593750,19.450001,31.446,0.56845509,-0.00976273,-0.02889042,-0.82214892
'00:19:36.194,0.059082,0.030273,1.004395,0.426829,1.402439,-0.548781,-4.912500,17.593750,19.450001,31.431,0.56845388,-0.00974524,-0.02889151,-0.82214992
'00:19:36.204,0.060059,0.028809,1.002930,0.365854,1.280488,-0.548781,-4.812500,17.531250,19.387501,31.416,0.56845831,-0.00975635,-0.02889676,-0.82214654
'00:19:36.214,0.059082,0.030273,1.004395,0.304878,1.280488,-0.548781,-4.812500,17.531250,19.387501,31.446,0.56846238,-0.00975877,-0.02890149,-0.82214353
'00:19:36.224,0.059082,0.029297,1.003418,0.304878,1.341463,-0.609756,-4.800000,17.537500,19.362501,31.416,0.56846354,-0.00976147,-0.02889918,-0.82214278
'00:19:36.234,0.060059,0.029785,1.004883,0.365854,1.341463,-0.548781,-4.800000,17.537500,19.362501,31.431,0.56846899,-0.00976443,-0.02890719,-0.82213870
'00:19:36.244,0.058594,0.029297,1.003906,0.365854,1.280488,-0.609756,-4.743750,17.543751,19.387501,31.461,0.56847403,-0.00976920,-0.02891456,-0.82213490
'00:19:36.254,0.059082,0.029785,1.004395,0.304878,1.402439,-0.548781,-4.743750,17.543751,19.387501,31.416,0.56848353,-0.00976899,-0.02891582,-0.82212828
'00:19:36.264,0.059570,0.029297,1.003418,0.304878,1.280488,-0.548781,-4.737500,17.443750,19.281250,31.401,0.56849128,-0.00978106,-0.02892090,-0.82212260
'00:19:36.274,0.060059,0.029297,1.004395,0.304878,1.280488,-0.548781,-4.737500,17.443750,19.281250,31.431,0.56849896,-0.00979542,-0.02892736,-0.82211690
'00:19:36.284,0.060059,0.029297,1.003418,0.243902,1.280488,-0.548781,-4.825000,17.593750,19.375000,31.401,0.56850355,-0.00980962,-0.02892620,-0.82211359
'00:19:36.294,0.060059,0.030762,1.005371,0.304878,1.402439,-0.609756,-4.825000,17.593750,19.375000,31.492,0.56850380,-0.00980550,-0.02893090,-0.82211330
'00:19:36.305,0.059082,0.029785,1.004395,0.304878,1.280488,-0.548781,-5.237500,18.131250,19.856251,31.386,0.56848996,-0.00979225,-0.02891158,-0.82212371
'00:19:36.314,0.059082,0.030273,1.004883,0.304878,1.341463,-0.609756,-4.850000,17.637501,19.318750,31.461,0.56848984,-0.00978878,-0.02891243,-0.82212380
'00:19:36.324,0.060059,0.029785,1.003906,0.365854,1.341463,-0.548781,-4.850000,17.637501,19.318750,31.401,0.56849420,-0.00978960,-0.02891907,-0.82212055
'00:19:36.334,0.059082,0.028320,1.004395,0.304878,1.341463,-0.609756,-4.750000,17.525000,19.362501,31.431,0.56849860,-0.00979831,-0.02891397,-0.82211758
'00:19:36.344,0.060059,0.028809,1.003418,0.365854,1.341463,-0.548781,-4.750000,17.525000,19.362501,31.416,0.56850725,-0.00980772,-0.02892021,-0.82211127
'00:19:36.354,0.060059,0.030762,1.004395,0.304878,1.341463,-0.548781,-4.775000,17.468750,19.356251,31.461,0.56851230,-0.00980967,-0.02892937,-0.82210743
'00:19:36.364,0.060059,0.029785,1.003418,0.365854,1.341463,-0.548781,-4.775000,17.468750,19.356251,31.416,0.56851758,-0.00981261,-0.02893756,-0.82210346
'00:19:36.374,0.059570,0.030273,1.003418,0.304878,1.341463,-0.609756,-4.806250,17.518751,19.343750,31.461,0.56851736,-0.00981242,-0.02894092,-0.82210349
'00:19:36.384,0.060059,0.029297,1.003906,0.365854,1.341463,-0.548781,-4.806250,17.518751,19.343750,31.431,0.56852176,-0.00981581,-0.02894469,-0.82210028
'00:19:36.394,0.059570,0.029297,1.004883,0.365854,1.341463,-0.487805,-4.875000,17.643751,19.462500,31.461,0.56852822,-0.00981421,-0.02894343,-0.82209587
'00:19:36.404,0.059570,0.029297,1.003418,0.304878,1.341463,-0.548781,-4.875000,17.643751,19.462500,31.431,0.56853024,-0.00981579,-0.02893843,-0.82209463
'00:19:36.414,0.058594,0.030273,1.003906,0.365854,1.341463,-0.548781,-4.900000,17.631250,19.481251,31.431,0.56853004,-0.00980333,-0.02893715,-0.82209497
'00:19:36.425,0.059570,0.029785,1.004883,0.304878,1.341463,-0.548781,-4.900000,17.631250,19.481251,31.416,0.56852987,-0.00980100,-0.02893166,-0.82209530
'00:19:36.434,0.061035,0.028809,1.002930,0.365854,1.280488,-0.548781,-4.862500,17.593750,19.400000,31.492,0.56853162,-0.00981283,-0.02893671,-0.82209377
'00:19:36.444,0.060059,0.028320,1.003418,0.304878,1.341463,-0.548781,-4.862500,17.593750,19.400000,31.386,0.56853376,-0.00982087,-0.02892809,-0.82209250
'00:19:36.454,0.060059,0.028809,1.003418,0.365854,1.341463,-0.548781,-4.793750,17.493750,19.343750,31.431,0.56853849,-0.00982657,-0.02892979,-0.82208910
'00:19:36.466,0.059570,0.029297,1.002930,0.304878,1.341463,-0.609756,-4.793750,17.493750,19.343750,31.431,0.56853872,-0.00983130,-0.02892788,-0.82208895
'00:19:36.474,0.059082,0.029785,1.004395,0.365854,1.341463,-0.548781,-4.825000,17.581251,19.400000,31.431,0.56854208,-0.00982768,-0.02892995,-0.82208660
'00:19:36.484,0.059570,0.029785,1.003906,0.304878,1.280488,-0.609756,-4.825000,17.581251,19.400000,31.431,0.56854168,-0.00983326,-0.02893329,-0.82208669
'00:19:36.494,0.059570,0.030273,1.003906,0.304878,1.341463,-0.609756,-5.050000,17.825001,19.531250,31.401,0.56853114,-0.00982275,-0.02892461,-0.82209441
'00:19:36.507,0.059570,0.029785,1.004395,0.304878,1.280488,-0.548781,-5.031250,17.806250,19.525000,31.461,0.56852426,-0.00981861,-0.02891493,-0.82209956
'00:19:36.514,0.059082,0.029297,1.003906,0.304878,1.280488,-0.609756,-5.031250,17.806250,19.525000,31.371,0.56851760,-0.00981586,-0.02890680,-0.82210449
'00:19:36.524,0.059082,0.029297,1.003418,0.304878,1.341463,-0.548781,-5.031250,17.806250,19.525000,31.446,0.56851265,-0.00980790,-0.02889246,-0.82210851
'00:19:36.534,0.060547,0.029297,1.003906,0.304878,1.341463,-0.548781,-4.806250,17.525000,19.350000,31.431,0.56851721,-0.00981729,-0.02889471,-0.82210517
'00:19:36.546,0.059570,0.029297,1.004395,0.365854,1.341463,-0.548781,-4.768750,17.568750,19.356251,31.401,0.56852712,-0.00982166,-0.02890258,-0.82209798
'00:19:36.555,0.059570,0.029785,1.003906,0.304878,1.341463,-0.548781,-4.768750,17.568750,19.356251,31.461,0.56853436,-0.00982592,-0.02890707,-0.82209276
'00:19:36.564,0.059082,0.030273,1.003418,0.365854,1.280488,-0.548781,-4.800000,17.487501,19.350000,31.461,0.56853771,-0.00982444,-0.02891513,-0.82209018
'00:19:36.574,0.060059,0.028809,1.003906,0.365854,1.280488,-0.548781,-4.800000,17.487501,19.350000,31.461,0.56854168,-0.00983391,-0.02891919,-0.82208718
'00:19:36.585,0.059082,0.030273,1.003906,0.304878,1.341463,-0.548781,-5.025000,17.912500,19.562500,31.416,0.56853891,-0.00982261,-0.02891209,-0.82208948
'00:19:36.594,0.059570,0.029297,1.005371,0.304878,1.341463,-0.548781,-5.025000,17.912500,19.562500,31.476,0.56853685,-0.00981905,-0.02890267,-0.82209128
'00:19:36.604,0.060059,0.029785,1.004395,0.365854,1.280488,-0.548781,-5.018750,17.843750,19.600000,31.461,0.56853304,-0.00981703,-0.02890344,-0.82209391
'00:19:36.614,0.059570,0.030273,1.003418,0.304878,1.341463,-0.548781,-5.018750,17.843750,19.600000,31.446,0.56852924,-0.00980933,-0.02889806,-0.82209682
'00:19:36.626,0.059570,0.029785,1.002930,0.304878,1.280488,-0.609756,-4.825000,17.512501,19.362501,31.416,0.56852713,-0.00981545,-0.02890136,-0.82209809
'00:19:36.634,0.059570,0.029785,1.002930,0.304878,1.280488,-0.609756,-4.825000,17.512501,19.362501,31.416,0.56852571,-0.00981945,-0.02890351,-0.82209895
'00:19:36.644,0.060547,0.030273,1.004395,0.365854,1.341463,-0.548781,-4.831250,17.612501,19.381250,31.401,0.56853024,-0.00982137,-0.02891529,-0.82209538
'00:19:36.654,0.058594,0.030273,1.003418,0.365854,1.280488,-0.548781,-4.831250,17.612501,19.381250,31.401,0.56853465,-0.00981700,-0.02892273,-0.82209212
'00:19:36.666,0.060059,0.029297,1.004883,0.365854,1.341463,-0.609756,-4.818750,17.506250,19.387501,31.431,0.56853303,-0.00981955,-0.02892546,-0.82209311
'00:19:36.674,0.060059,0.029297,1.004883,0.365854,1.341463,-0.609756,-4.818750,17.506250,19.387501,31.431,0.56853195,-0.00982121,-0.02892724,-0.82209378
'00:19:36.684,0.059570,0.030273,1.004395,0.365854,1.402439,-0.609756,-4.818750,17.556250,19.400000,31.446,0.56853169,-0.00981317,-0.02893146,-0.82209391
'00:19:36.694,0.059570,0.030273,1.003418,0.365854,1.341463,-0.609756,-4.818750,17.556250,19.400000,31.431,0.56853128,-0.00980982,-0.02893903,-0.82209396
'00:19:36.706,0.059570,0.029785,1.003906,0.304878,1.341463,-0.609756,-5.050000,17.875000,19.562500,31.446,0.56852009,-0.00980083,-0.02892669,-0.82210224
'00:19:36.714,0.059570,0.029785,1.003906,0.304878,1.341463,-0.609756,-5.050000,17.875000,19.562500,31.446,0.56851269,-0.00979499,-0.02891866,-0.82210771
'00:19:36.724,0.059082,0.028809,1.002930,0.365854,1.341463,-0.609756,-4.975000,17.762501,19.487501,31.461,0.56850648,-0.00978877,-0.02890933,-0.82211241
'00:19:36.734,0.059082,0.030762,1.004395,0.304878,1.341463,-0.609756,-4.975000,17.762501,19.487501,31.416,0.56849987,-0.00977781,-0.02890618,-0.82211722
'00:19:36.748,0.058594,0.029785,1.003418,0.304878,1.341463,-0.548781,-4.837500,17.481251,19.312500,31.416,0.56850201,-0.00977020,-0.02889793,-0.82211612
'00:19:36.754,0.060059,0.029785,1.004395,0.365854,1.341463,-0.548781,-4.837500,17.481251,19.312500,31.461,0.56850295,-0.00976995,-0.02890026,-0.82211539
'00:19:36.764,0.059570,0.028809,1.003906,0.365854,1.341463,-0.548781,-4.818750,17.512501,19.331251,31.431,0.56850670,-0.00977242,-0.02889906,-0.82211281
'00:19:36.774,0.059082,0.028809,1.003418,0.304878,1.280488,-0.609756,-4.818750,17.512501,19.331251,31.401,0.56850587,-0.00977948,-0.02889487,-0.82211345
'00:19:36.784,0.059082,0.030273,1.004395,0.304878,1.341463,-0.548781,-4.775000,17.481251,19.293751,31.401,0.56851174,-0.00977841,-0.02889837,-0.82210928
'00:19:36.794,0.060059,0.028809,1.003906,0.365854,1.341463,-0.548781,-4.775000,17.481251,19.293751,31.446,0.56851791,-0.00978562,-0.02890182,-0.82210481
'00:19:36.804,0.059082,0.029297,1.003906,0.304878,1.341463,-0.548781,-4.993750,17.800001,19.562500,31.476,0.56851525,-0.00978023,-0.02888997,-0.82210712
'00:19:36.814,0.060547,0.029785,1.003418,0.304878,1.341463,-0.609756,-4.993750,17.800001,19.562500,31.431,0.56850812,-0.00978103,-0.02888693,-0.82211215
'00:19:36.824,0.059082,0.029297,1.003906,0.304878,1.280488,-0.609756,-5.100000,17.975000,19.637501,31.371,0.56849767,-0.00977637,-0.02887455,-0.82211987
'00:19:36.834,0.060547,0.028809,1.004883,0.365854,1.341463,-0.609756,-4.850000,17.543751,19.400000,31.371,0.56849535,-0.00978254,-0.02887537,-0.82212137
'00:19:36.844,0.059082,0.028809,1.004395,0.365854,1.341463,-0.548781,-4.850000,17.543751,19.400000,31.461,0.56849745,-0.00978077,-0.02887065,-0.82212011
'00:19:36.854,0.060547,0.028809,1.003418,0.365854,1.402439,-0.548781,-4.787500,17.450001,19.331251,31.386,0.56850205,-0.00978539,-0.02887182,-0.82211683
'00:19:36.864,0.060059,0.029785,1.004883,0.304878,1.341463,-0.548781,-4.787500,17.450001,19.331251,31.431,0.56850625,-0.00979043,-0.02887468,-0.82211376
'00:19:36.874,0.059082,0.029785,1.003418,0.365854,1.341463,-0.548781,-4.875000,17.587500,19.425001,31.461,0.56850729,-0.00978403,-0.02887490,-0.82211311
'00:19:36.884,0.059570,0.030273,1.003418,0.304878,1.341463,-0.609756,-4.875000,17.587500,19.425001,31.416,0.56850380,-0.00978137,-0.02887546,-0.82211554
'00:19:36.894,0.059082,0.029297,1.004883,0.304878,1.280488,-0.548781,-5.206250,18.087500,19.762501,31.431,0.56849286,-0.00977249,-0.02885744,-0.82212384
'00:19:36.906,0.060059,0.029785,1.004883,0.304878,1.341463,-0.548781,-5.206250,18.087500,19.762501,31.401,0.56847987,-0.00976091,-0.02884025,-0.82213356
'00:19:36.914,0.059570,0.029785,1.004883,0.365854,1.341463,-0.609756,-5.225000,18.112501,19.775000,31.446,0.56846728,-0.00974819,-0.02883049,-0.82214276
'00:19:36.924,0.060547,0.029785,1.003906,0.304878,1.341463,-0.609756,-5.225000,18.112501,19.775000,31.401,0.56845155,-0.00974101,-0.02881819,-0.82215416
'00:19:36.934,0.059082,0.029785,1.004395,0.304878,1.341463,-0.548781,-4.806250,17.556250,19.387501,31.461,0.56845711,-0.00974212,-0.02881956,-0.82215025
'00:19:36.944,0.061035,0.029297,1.003906,0.365854,1.341463,-0.609756,-4.806250,17.556250,19.387501,31.431,0.56845835,-0.00975286,-0.02883028,-0.82214890
'00:19:36.954,0.060059,0.029297,1.003906,0.365854,1.341463,-0.609756,-4.850000,17.531250,19.400000,31.446,0.56845589,-0.00975500,-0.02883296,-0.82215048
'00:19:36.964,0.060059,0.029785,1.004395,0.304878,1.341463,-0.548781,-4.850000,17.531250,19.400000,31.431,0.56845765,-0.00975826,-0.02883376,-0.82214919
'00:19:36.974,0.060059,0.029785,1.003906,0.304878,1.341463,-0.609756,-4.800000,17.531250,19.281250,31.416,0.56845900,-0.00976414,-0.02883898,-0.82214800
'00:19:36.984,0.059570,0.028809,1.003418,0.304878,1.341463,-0.548781,-4.800000,17.531250,19.281250,31.371,0.56846493,-0.00977133,-0.02883682,-0.82214390
'00:19:36.994,0.059570,0.029297,1.004395,0.304878,1.280488,-0.548781,-4.800000,17.531250,19.325001,31.371,0.56847039,-0.00978077,-0.02883997,-0.82213990
'00:19:37.004,0.058594,0.029785,1.004883,0.365854,1.341463,-0.548781,-4.800000,17.531250,19.325001,31.416,0.56847596,-0.00977521,-0.02884317,-0.82213600
'00:19:37.014,0.059570,0.030273,1.004395,0.304878,1.341463,-0.548781,-5.075000,17.962500,19.625000,31.461,0.56847143,-0.00976662,-0.02883721,-0.82213944
'00:19:37.024,0.059082,0.029297,1.003418,0.304878,1.280488,-0.548781,-5.075000,17.962500,19.625000,31.431,0.56846700,-0.00976387,-0.02882750,-0.82214288
'00:19:37.034,0.059570,0.030273,1.003418,0.304878,1.341463,-0.548781,-4.856250,17.625000,19.381250,31.431,0.56847050,-0.00976342,-0.02883142,-0.82214032
'00:19:37.044,0.060059,0.029785,1.003906,0.426829,1.341463,-0.548781,-4.856250,17.625000,19.381250,31.461,0.56847418,-0.00976141,-0.02884294,-0.82213740
'00:19:37.054,0.060059,0.030762,1.003418,0.304878,1.341463,-0.548781,-4.781250,17.450001,19.331251,31.431,0.56847878,-0.00976378,-0.02885307,-0.82213384
'00:19:37.064,0.059570,0.030273,1.001465,0.304878,1.341463,-0.548781,-4.781250,17.450001,19.331251,31.431,0.56848344,-0.00976572,-0.02885912,-0.82213038
'00:19:37.074,0.059570,0.028809,1.004883,0.365854,1.341463,-0.609756,-4.800000,17.450001,19.350000,31.446,0.56848271,-0.00976838,-0.02885821,-0.82213088
'00:19:37.084,0.061035,0.028809,1.004395,0.365854,1.341463,-0.548781,-4.837500,17.525000,19.318750,31.431,0.56848560,-0.00977794,-0.02886212,-0.82212864
'00:19:37.094,0.059570,0.029297,1.003418,0.365854,1.341463,-0.548781,-4.837500,17.525000,19.318750,31.416,0.56848840,-0.00977757,-0.02886343,-0.82212666
'00:19:37.104,0.058105,0.029785,1.003906,0.365854,1.341463,-0.548781,-5.000000,17.762501,19.468750,31.446,0.56848497,-0.00976106,-0.02885457,-0.82212953
'00:19:37.114,0.058105,0.030762,1.004395,0.365854,1.341463,-0.548781,-5.000000,17.762501,19.468750,31.401,0.56848141,-0.00974093,-0.02885117,-0.82213236
'00:19:37.124,0.060547,0.029297,1.003906,0.304878,1.341463,-0.548781,-5.056250,17.918751,19.618750,31.461,0.56847735,-0.00974249,-0.02884396,-0.82213540
'00:19:37.134,0.058105,0.029297,1.003906,0.304878,1.341463,-0.548781,-5.056250,17.918751,19.618750,31.461,0.56847337,-0.00973073,-0.02882757,-0.82213886
'00:19:37.144,0.058594,0.030762,1.002930,0.365854,1.280488,-0.548781,-4.818750,17.537500,19.362501,31.386,0.56847734,-0.00972589,-0.02883899,-0.82213577
'00:19:37.154,0.059082,0.029785,1.002930,0.365854,1.341463,-0.548781,-4.818750,17.537500,19.362501,31.431,0.56848163,-0.00972329,-0.02884353,-0.82213268
'00:19:37.164,0.060059,0.029297,1.003906,0.304878,1.280488,-0.548781,-4.850000,17.587500,19.425001,31.401,0.56848453,-0.00973418,-0.02884588,-0.82213046
'00:19:37.174,0.060547,0.029297,1.003418,0.365854,1.280488,-0.548781,-4.850000,17.587500,19.425001,31.401,0.56848742,-0.00974468,-0.02885460,-0.82212803
'00:19:37.184,0.060059,0.029785,1.004395,0.304878,1.341463,-0.609756,-4.812500,17.543751,19.356251,31.476,0.56848778,-0.00975017,-0.02885836,-0.82212759
'00:19:37.194,0.060547,0.029785,1.004883,0.365854,1.280488,-0.609756,-4.812500,17.543751,19.356251,31.431,0.56848800,-0.00975951,-0.02887112,-0.82212688
'00:19:37.204,0.059570,0.029785,1.003418,0.304878,1.280488,-0.609756,-5.075000,17.906250,19.643751,31.386,0.56847760,-0.00975665,-0.02886403,-0.82213435
'00:19:37.214,0.059570,0.030273,1.005371,0.365854,1.341463,-0.548781,-5.075000,17.906250,19.643751,31.446,0.56847174,-0.00974435,-0.02886035,-0.82213868
'00:19:37.224,0.059082,0.028809,1.002930,0.426829,1.341463,-0.548781,-4.987500,17.837500,19.575001,31.371,0.56847083,-0.00973676,-0.02885713,-0.82213951
'00:19:37.234,0.059082,0.028809,1.003906,0.365854,1.341463,-0.548781,-4.987500,17.837500,19.575001,31.386,0.56846990,-0.00973211,-0.02884923,-0.82214049
'00:19:37.244,0.059570,0.029785,1.003418,0.365854,1.341463,-0.609756,-4.768750,17.518751,19.375000,31.461,0.56847280,-0.00973477,-0.02885883,-0.82213811
'00:19:37.254,0.059082,0.029785,1.003906,0.365854,1.341463,-0.548781,-4.768750,17.518751,19.375000,31.401,0.56848007,-0.00973469,-0.02886611,-0.82213283
'00:19:37.264,0.059570,0.030273,1.004395,0.365854,1.280488,-0.548781,-4.812500,17.500000,19.393751,31.461,0.56848343,-0.00973670,-0.02887680,-0.82213011
'00:19:37.275,0.059570,0.029297,1.004883,0.304878,1.280488,-0.548781,-4.812500,17.500000,19.393751,31.401,0.56848727,-0.00974631,-0.02887720,-0.82212733
