# FW/GUI: v9.6.1-multi17-dual (PyQt5)
# StartTime: 2026-04-03 16:17:35
# Slot: 13
# DeviceID: 13
# Label: EMG13
# IP: 192.168.137.206
# TCP: 3333
# DeviceFW: EMG_FW_v9.6_MULTI17_DUALCH_RUNTIMECFG_CHEN
# IMU1_RefTime = format(imu_ms) = relative since power-on Time (IMU acquisition time)
IMU1_RefTime,ax_g,ay_g,az_g,gx_dps,gy_dps,gz_dps,mx_uT,my_uT,mz_uT,temp_C,qw,qx,qy,qz
'00:09:28.714,0.061523,0.027832,1.002930,0.304878,1.341463,-0.609756,-4.475000,17.868750,19.812500,28.970,0.57737269,-0.01044722,-0.02865821,-0.81591074
'00:09:28.724,0.061035,0.027344,1.002441,0.487805,1.524390,-0.609756,-4.675000,18.193750,20.012501,28.970,0.57736653,-0.01042820,-0.02865229,-0.81591555
'00:09:28.734,0.060547,0.027832,1.001465,0.731707,1.768293,-0.609756,-4.675000,18.193750,20.012501,28.910,0.57736118,-0.01037539,-0.02865283,-0.81592000
'00:09:28.744,0.060059,0.028809,1.003906,0.731707,1.707317,-0.609756,-4.443750,17.837500,19.837500,28.940,0.57736444,-0.01032984,-0.02866971,-0.81591767
'00:09:28.754,0.060059,0.028320,1.004395,0.426829,1.402439,-0.609756,-4.443750,17.837500,19.837500,28.925,0.57736682,-0.01032390,-0.02867698,-0.81591581
'00:09:28.764,0.059082,0.027344,1.002930,0.182927,1.219512,-0.548781,-4.587500,18.056250,19.887501,28.955,0.57736772,-0.01033621,-0.02866050,-0.81591559
'00:09:28.774,0.059082,0.026367,1.003418,0.121951,1.158537,-0.609756,-4.587500,18.056250,19.887501,28.940,0.57736429,-0.01035947,-0.02863725,-0.81591854
'00:09:28.784,0.059570,0.028320,1.002930,0.243902,1.219512,-0.548781,-4.437500,17.925001,19.850000,28.925,0.57737274,-0.01037462,-0.02864222,-0.81591220
'00:09:28.794,0.061035,0.029297,1.003418,0.182927,1.219512,-0.548781,-4.437500,17.925001,19.850000,28.940,0.57738077,-0.01039673,-0.02865411,-0.81590581
'00:09:28.804,0.061035,0.027344,1.003906,0.121951,1.158537,-0.548781,-4.481250,17.875000,19.837500,28.955,0.57738481,-0.01043031,-0.02864835,-0.81590273
'00:09:28.814,0.062500,0.026367,1.001953,0.426829,1.341463,-0.548781,-4.481250,17.875000,19.837500,28.955,0.57738963,-0.01044772,-0.02865613,-0.81589882
'00:09:28.824,0.062012,0.027832,1.002441,0.609756,1.646341,-0.670732,-4.487500,17.900000,19.837500,28.970,0.57738648,-0.01042466,-0.02866790,-0.81590093
'00:09:28.834,0.062012,0.027832,1.002441,0.609756,1.646341,-0.670732,-4.487500,17.900000,19.837500,28.970,0.57738336,-0.01040195,-0.02867952,-0.81590302
'00:09:28.844,0.061523,0.028809,1.003418,0.609756,1.585366,-0.609756,-4.681250,18.137501,19.975000,28.925,0.57737565,-0.01036845,-0.02868714,-0.81590863
'00:09:28.856,0.060547,0.026855,1.003418,0.304878,1.280488,-0.548781,-4.681250,18.137501,19.975000,28.970,0.57737099,-0.01037645,-0.02867056,-0.81591242
'00:09:28.864,0.060547,0.026855,1.003418,0.304878,1.280488,-0.548781,-4.793750,18.356251,20.175001,28.970,0.57736505,-0.01037894,-0.02865649,-0.81591708
'00:09:28.874,0.059570,0.028320,1.003906,0.365854,1.341463,-0.609756,-4.793750,18.356251,20.175001,28.940,0.57735326,-0.01036310,-0.02864470,-0.81592604
'00:09:28.884,0.060059,0.027832,1.003906,0.304878,1.219512,-0.609756,-4.481250,17.900000,19.806250,28.925,0.57735408,-0.01037632,-0.02864878,-0.81592515
'00:09:28.894,0.060059,0.028320,1.003418,0.182927,1.158537,-0.609756,-4.481250,17.900000,19.806250,28.940,0.57735450,-0.01039791,-0.02865019,-0.81592453
'00:09:28.904,0.061035,0.027832,1.001465,0.243902,1.219512,-0.609756,-4.418750,17.775000,19.818750,28.970,0.57735667,-0.01042219,-0.02865685,-0.81592244
'00:09:28.916,0.061035,0.028320,1.002930,0.426829,1.402439,-0.609756,-4.450000,17.818750,19.825001,28.955,0.57735834,-0.01041961,-0.02867007,-0.81592084
'00:09:28.924,0.061523,0.029297,1.003418,0.365854,1.402439,-0.548781,-4.450000,17.818750,19.825001,28.925,0.57736266,-0.01041937,-0.02868115,-0.81591739
'00:09:28.934,0.061523,0.027832,1.003418,0.304878,1.219512,-0.548781,-4.450000,17.818750,19.825001,28.955,0.57736784,-0.01044118,-0.02869115,-0.81591309
'00:09:28.944,0.062012,0.027344,1.002441,0.243902,1.219512,-0.548781,-4.787500,18.406250,20.150000,28.986,0.57736150,-0.01045798,-0.02868248,-0.81591767
'00:09:28.954,0.060547,0.027832,1.003418,0.304878,1.341463,-0.548781,-4.787500,18.406250,20.150000,28.940,0.57735548,-0.01045257,-0.02866872,-0.81592248
'00:09:28.964,0.061523,0.027344,1.002441,0.426829,1.402439,-0.548781,-4.693750,18.212500,20.093750,28.955,0.57735212,-0.01044742,-0.02866515,-0.81592505
'00:09:28.974,0.060547,0.026855,1.001465,0.487805,1.524390,-0.548781,-4.475000,17.843750,19.800001,28.970,0.57735739,-0.01043554,-0.02866287,-0.81592155
'00:09:28.984,0.060059,0.028320,1.002441,0.609756,1.646341,-0.609756,-4.475000,17.843750,19.800001,28.970,0.57735847,-0.01039984,-0.02866936,-0.81592102
'00:09:28.995,0.060059,0.028320,1.003906,0.487805,1.524390,-0.609756,-4.406250,17.831251,19.856251,28.970,0.57736403,-0.01038195,-0.02867859,-0.81591699
'00:09:29.004,0.060547,0.028320,1.003418,0.365854,1.280488,-0.548781,-4.406250,17.831251,19.856251,28.940,0.57737181,-0.01039142,-0.02869118,-0.81591092
'00:09:29.014,0.061035,0.027832,1.004395,0.243902,1.158537,-0.609756,-4.493750,17.912500,19.837500,28.986,0.57737145,-0.01041631,-0.02869606,-0.81591069
'00:09:29.024,0.060059,0.028320,1.002930,0.304878,1.219512,-0.609756,-4.493750,17.912500,19.837500,29.001,0.57737117,-0.01042621,-0.02870155,-0.81591056
'00:09:29.034,0.060059,0.028809,1.002930,0.304878,1.280488,-0.609756,-4.631250,18.106251,19.937500,28.940,0.57736529,-0.01042386,-0.02870007,-0.81591480
'00:09:29.044,0.060059,0.028809,1.002930,0.243902,1.219512,-0.609756,-4.631250,18.106251,19.937500,28.970,0.57735923,-0.01042896,-0.02869736,-0.81591912
'00:09:29.054,0.061035,0.027832,1.003418,0.304878,1.280488,-0.548781,-4.837500,18.400000,20.200001,28.986,0.57734944,-0.01042809,-0.02868442,-0.81592652
'00:09:29.064,0.061523,0.027344,1.003906,0.365854,1.341463,-0.609756,-4.837500,18.400000,20.200001,28.986,0.57733566,-0.01042426,-0.02867203,-0.81593675
'00:09:29.074,0.060547,0.028320,1.003418,0.487805,1.463415,-0.548781,-4.550000,18.018751,20.012501,28.940,0.57733834,-0.01040872,-0.02867802,-0.81593485
'00:09:29.084,0.060059,0.027344,1.003418,0.426829,1.463415,-0.609756,-4.550000,18.018751,20.012501,28.940,0.57733687,-0.01039758,-0.02867201,-0.81593624
'00:09:29.094,0.061035,0.028320,1.003906,0.548781,1.463415,-0.609756,-4.493750,17.950001,19.912500,28.970,0.57733809,-0.01038428,-0.02868735,-0.81593501
'00:09:29.104,0.060059,0.027832,1.002441,0.426829,1.402439,-0.609756,-4.493750,17.950001,19.912500,28.955,0.57733918,-0.01037846,-0.02869065,-0.81593419
'00:09:29.115,0.061035,0.029297,1.002441,0.426829,1.341463,-0.548781,-4.512500,17.850000,19.818750,28.970,0.57734114,-0.01037351,-0.02870735,-0.81593228
'00:09:29.124,0.060059,0.028809,1.004395,0.243902,1.280488,-0.609756,-4.512500,17.850000,19.818750,28.970,0.57733868,-0.01037800,-0.02870505,-0.81593404
'00:09:29.134,0.061035,0.027344,1.004395,0.182927,1.158537,-0.548781,-4.450000,17.843750,19.812500,28.940,0.57734446,-0.01041028,-0.02870458,-0.81592956
'00:09:29.144,0.061035,0.028809,1.003418,0.182927,1.158537,-0.548781,-4.450000,17.843750,19.812500,28.940,0.57734983,-0.01043620,-0.02871296,-0.81592513
'00:09:29.156,0.061035,0.027832,1.001953,0.304878,1.219512,-0.609756,-4.693750,18.181250,20.087500,28.986,0.57733898,-0.01044705,-0.02870895,-0.81593282
'00:09:29.165,0.061035,0.028320,1.002441,0.365854,1.341463,-0.548781,-4.693750,18.181250,20.087500,28.955,0.57733499,-0.01044275,-0.02870669,-0.81593577
'00:09:29.174,0.060547,0.028809,1.002441,0.426829,1.463415,-0.609756,-4.675000,18.181250,19.993750,28.940,0.57732885,-0.01042441,-0.02870518,-0.81594040
'00:09:29.184,0.060059,0.027832,1.003906,0.487805,1.524390,-0.670732,-4.675000,18.181250,19.993750,28.940,0.57731820,-0.01039769,-0.02869681,-0.81594857
'00:09:29.195,0.060059,0.028320,1.003418,0.548781,1.524390,-0.609756,-4.431250,17.843750,19.768751,28.955,0.57732268,-0.01037480,-0.02870902,-0.81594527
'00:09:29.204,0.061035,0.027344,1.003418,0.487805,1.463415,-0.548781,-4.431250,17.843750,19.768751,28.970,0.57733021,-0.01037178,-0.02871610,-0.81593973
'00:09:29.214,0.060547,0.027832,1.003418,0.243902,1.280488,-0.609756,-4.456250,17.906250,19.812500,28.970,0.57733289,-0.01038810,-0.02871591,-0.81593763
'00:09:29.224,0.061035,0.027832,1.004395,0.243902,1.219512,-0.548781,-4.456250,17.906250,19.812500,28.940,0.57733970,-0.01041119,-0.02872027,-0.81593236
'00:09:29.236,0.061035,0.028809,1.002441,0.243902,1.219512,-0.548781,-4.443750,17.850000,19.850000,28.986,0.57734687,-0.01043434,-0.02873270,-0.81592656
'00:09:29.244,0.061523,0.028320,1.003418,0.243902,1.219512,-0.609756,-4.881250,18.475000,20.231251,28.986,0.57733418,-0.01043875,-0.02872338,-0.81593581
'00:09:29.254,0.061523,0.027832,1.002930,0.304878,1.341463,-0.609756,-4.881250,18.475000,20.231251,28.986,0.57731883,-0.01043455,-0.02870757,-0.81594728
'00:09:29.265,0.060059,0.028320,1.002441,0.426829,1.463415,-0.670732,-5.062500,18.693750,20.406250,28.940,0.57728924,-0.01039500,-0.02868077,-0.81596967
'00:09:29.275,0.061035,0.028320,1.002930,0.426829,1.402439,-0.609756,-5.062500,18.693750,20.406250,28.986,0.57726671,-0.01036948,-0.02866363,-0.81598653
'00:09:29.284,0.060547,0.027832,1.002930,0.548781,1.463415,-0.548781,-4.525000,17.956251,19.931250,28.940,0.57727019,-0.01035611,-0.02867168,-0.81598396
'00:09:29.294,0.060547,0.027832,1.004395,0.304878,1.341463,-0.609756,-4.525000,17.956251,19.931250,28.940,0.57726920,-0.01036191,-0.02866874,-0.81598469
'00:09:29.304,0.060059,0.028809,1.003418,0.121951,1.036585,-0.548781,-4.518750,17.893751,19.875000,28.970,0.57727070,-0.01039155,-0.02867142,-0.81598315
'00:09:29.317,0.059570,0.028320,1.003418,-0.182927,0.792683,-0.548781,-4.518750,17.893751,19.875000,28.986,0.57727158,-0.01047095,-0.02865628,-0.81598204
'00:09:29.324,0.061035,0.026855,1.002930,-0.243902,0.670732,-0.548781,-4.487500,17.900000,19.837500,28.955,0.57727362,-0.01053258,-0.02864970,-0.81598004
'00:09:29.334,0.061523,0.026855,1.001953,-0.060976,0.914634,-0.487805,-4.487500,17.900000,19.837500,28.970,0.57728150,-0.01059620,-0.02864335,-0.81597387
'00:09:29.344,0.062500,0.026855,1.001465,0.487805,1.463415,-0.609756,-4.531250,17.937500,19.850000,28.940,0.57728013,-0.01059517,-0.02865000,-0.81597462
'00:09:29.355,0.061035,0.026367,1.001953,1.158537,2.134146,-0.670732,-4.531250,17.937500,19.850000,28.970,0.57727657,-0.01049729,-0.02866281,-0.81597795
'00:09:29.364,0.059570,0.028809,1.002930,1.280488,2.317073,-0.670732,-4.787500,18.287500,20.137501,28.970,0.57726410,-0.01037546,-0.02866855,-0.81598813
'00:09:29.374,0.059570,0.030762,1.004883,0.792683,1.829268,-0.609756,-4.787500,18.287500,20.137501,28.986,0.57725277,-0.01029313,-0.02867517,-0.81599695
'00:09:29.384,0.058594,0.029297,1.004395,0.243902,1.158537,-0.548781,-4.525000,17.956251,19.875000,28.910,0.57725579,-0.01029899,-0.02867789,-0.81599465
'00:09:29.398,0.059570,0.028809,1.003418,-0.121951,0.792683,-0.548781,-4.443750,17.837500,19.775000,28.940,0.57726316,-0.01038475,-0.02867870,-0.81598832
'00:09:29.404,0.061035,0.026855,1.002441,-0.182927,0.731707,-0.487805,-4.443750,17.837500,19.775000,28.970,0.57726889,-0.01043520,-0.02867511,-0.81598375
'00:09:29.414,0.061523,0.027344,1.002930,-0.121951,0.853659,-0.548781,-4.443750,17.837500,19.775000,28.955,0.57727422,-0.01050717,-0.02867196,-0.81597916
'00:09:29.424,0.062988,0.027344,1.001465,0.182927,1.097561,-0.548781,-4.418750,17.812500,19.756250,28.970,0.57728147,-0.01055517,-0.02868613,-0.81597291
'00:09:29.436,0.062500,0.026855,1.001465,0.609756,1.585366,-0.609756,-4.506250,17.868750,19.843750,28.940,0.57728061,-0.01053771,-0.02869689,-0.81597337
'00:09:29.444,0.061523,0.028320,1.003418,0.792683,1.829268,-0.609756,-4.506250,17.868750,19.843750,28.970,0.57728047,-0.01049544,-0.02870754,-0.81597364
'00:09:29.454,0.060547,0.028809,1.003906,0.487805,1.524390,-0.609756,-4.506250,17.868750,19.843750,28.970,0.57727926,-0.01047265,-0.02871308,-0.81597460
'00:09:29.464,0.060547,0.028320,1.003418,0.243902,1.219512,-0.548781,-4.850000,18.412500,20.137501,28.955,0.57726901,-0.01047339,-0.02869918,-0.81598233
'00:09:29.476,0.061523,0.027344,1.001953,0.304878,1.280488,-0.548781,-4.756250,18.187500,20.081251,28.970,0.57725907,-0.01048001,-0.02868546,-0.81598976
'00:09:29.484,0.059570,0.028320,1.001953,0.548781,1.524390,-0.548781,-4.756250,18.187500,20.081251,28.986,0.57725302,-0.01044882,-0.02867879,-0.81599467
'00:09:29.494,0.060059,0.028320,1.003418,0.548781,1.585366,-0.548781,-4.475000,17.881250,19.875000,28.940,0.57725904,-0.01042123,-0.02868430,-0.81599057
'00:09:29.504,0.060059,0.027832,1.003906,0.304878,1.280488,-0.609756,-4.475000,17.881250,19.875000,28.986,0.57725986,-0.01042976,-0.02868475,-0.81598986
'00:09:29.516,0.060547,0.028320,1.002441,0.060976,1.097561,-0.548781,-4.443750,17.843750,19.843750,28.955,0.57726684,-0.01047337,-0.02868400,-0.81598440
'00:09:29.524,0.061523,0.027832,1.002930,0.121951,1.097561,-0.609756,-4.443750,17.843750,19.843750,28.940,0.57726803,-0.01050528,-0.02868767,-0.81598302
'00:09:29.534,0.062500,0.027832,1.002441,0.304878,1.280488,-0.609756,-4.537500,17.981251,19.875000,28.986,0.57726639,-0.01052384,-0.02869564,-0.81598366
'00:09:29.544,0.062500,0.026855,1.002441,0.548781,1.524390,-0.609756,-4.537500,17.981251,19.875000,28.925,0.57726575,-0.01051647,-0.02870290,-0.81598395
'00:09:29.556,0.061035,0.028320,1.002930,0.731707,1.768293,-0.670732,-4.725000,18.281250,20.118750,28.970,0.57725180,-0.01045011,-0.02870528,-0.81599458
'00:09:29.564,0.061035,0.028320,1.002930,0.731707,1.768293,-0.670732,-4.725000,18.281250,20.118750,28.970,0.57724263,-0.01040669,-0.02870696,-0.81600157
'00:09:29.574,0.060547,0.028809,1.002441,0.792683,1.768293,-0.609756,-4.775000,18.318750,20.162500,28.970,0.57723287,-0.01034323,-0.02871141,-0.81600912
'00:09:29.584,0.060547,0.029785,1.004395,0.487805,1.463415,-0.609756,-4.775000,18.318750,20.162500,29.001,0.57722203,-0.01031344,-0.02871433,-0.81601707
'00:09:29.597,0.061035,0.027832,1.002930,0.243902,1.280488,-0.548781,-4.475000,17.900000,19.850000,28.940,0.57722961,-0.01033869,-0.02871526,-0.81601135
'00:09:29.604,0.061035,0.027832,1.002930,0.243902,1.280488,-0.548781,-4.475000,17.900000,19.850000,28.940,0.57723365,-0.01035200,-0.02871570,-0.81600831
'00:09:29.614,0.061523,0.026855,1.003418,0.426829,1.402439,-0.609756,-4.475000,17.931250,19.875000,28.940,0.57723629,-0.01035988,-0.02871996,-0.81600619
'00:09:29.624,0.059082,0.028809,1.004395,0.426829,1.463415,-0.548781,-4.475000,17.931250,19.875000,28.970,0.57724309,-0.01034135,-0.02872207,-0.81600154
'00:09:29.635,0.059570,0.028320,1.004395,0.121951,1.097561,-0.548781,-4.456250,17.906250,19.800001,28.910,0.57725056,-0.01037278,-0.02872104,-0.81599589
'00:09:29.644,0.059082,0.028320,1.003418,0.000000,0.975610,-0.548781,-4.456250,17.906250,19.800001,28.986,0.57725624,-0.01040907,-0.02871643,-0.81599158
'00:09:29.654,0.061035,0.028320,1.001465,0.060976,0.975610,-0.548781,-4.643750,18.168751,20.068750,28.955,0.57725411,-0.01044956,-0.02871487,-0.81599262
'00:09:29.664,0.060547,0.026367,1.001465,0.304878,1.280488,-0.609756,-4.643750,18.168751,20.068750,28.955,0.57724901,-0.01046053,-0.02870216,-0.81599654
'00:09:29.678,0.061035,0.028320,1.003906,0.731707,1.768293,-0.609756,-4.868750,18.381250,20.162500,28.925,0.57722850,-0.01037437,-0.02869249,-0.81601248
'00:09:29.684,0.061035,0.028320,1.003906,0.731707,1.768293,-0.609756,-4.868750,18.381250,20.162500,28.925,0.57721985,-0.01033824,-0.02868857,-0.81601920
'00:09:29.694,0.059082,0.028320,1.003906,0.548781,1.524390,-0.609756,-4.525000,17.925001,19.868750,28.955,0.57721923,-0.01030841,-0.02869026,-0.81601995
'00:09:29.704,0.060547,0.028809,1.003906,0.243902,1.219512,-0.609756,-4.525000,17.925001,19.868750,28.970,0.57721745,-0.01032235,-0.02869437,-0.81602089
'00:09:29.716,0.061523,0.028809,1.002930,0.182927,1.219512,-0.609756,-4.468750,17.887501,19.775000,28.970,0.57721933,-0.01035275,-0.02870379,-0.81601884
'00:09:29.725,0.060547,0.028320,1.002930,0.365854,1.463415,-0.609756,-4.406250,17.887501,19.775000,28.986,0.57722548,-0.01035168,-0.02870973,-0.81601430
'00:09:29.734,0.061035,0.028320,1.001953,0.487805,1.463415,-0.548781,-4.406250,17.887501,19.775000,28.955,0.57723556,-0.01034789,-0.02872546,-0.81600666
'00:09:29.744,0.061035,0.028320,1.001953,0.426829,1.463415,-0.609756,-4.406250,17.887501,19.775000,28.940,0.57724232,-0.01034661,-0.02873837,-0.81600145
'00:09:29.756,0.060547,0.027832,1.003906,0.487805,1.524390,-0.548781,-4.406250,17.868750,19.800001,29.001,0.57725539,-0.01033471,-0.02874771,-0.81599202
'00:09:29.764,0.060547,0.028320,1.002441,0.487805,1.463415,-0.548781,-4.881250,18.468750,20.225000,28.986,0.57724711,-0.01031274,-0.02873973,-0.81599843
'00:09:29.774,0.059570,0.028320,1.004883,0.243902,1.280488,-0.609756,-4.881250,18.468750,20.225000,28.940,0.57723188,-0.01030487,-0.02871705,-0.81601011
'00:09:29.784,0.061035,0.027832,1.004395,0.000000,1.036585,-0.609756,-4.693750,18.143751,20.087500,28.955,0.57722191,-0.01034360,-0.02869995,-0.81601727
'00:09:29.795,0.061035,0.027344,1.003906,0.060976,0.975610,-0.487805,-4.693750,18.143751,20.087500,28.940,0.57722048,-0.01038964,-0.02868660,-0.81601817
'00:09:29.804,0.061035,0.027832,1.001953,0.121951,1.097561,-0.548781,-4.531250,17.900000,19.868750,28.940,0.57722153,-0.01042036,-0.02868433,-0.81601711
'00:09:29.814,0.061035,0.027832,1.001465,0.548781,1.463415,-0.548781,-4.531250,17.900000,19.868750,28.986,0.57722395,-0.01040661,-0.02869394,-0.81601524
'00:09:29.824,0.062012,0.028320,1.002930,0.670732,1.707317,-0.609756,-4.475000,17.818750,19.856251,28.940,0.57722477,-0.01037510,-0.02870870,-0.81601454
'00:09:29.834,0.061035,0.028809,1.002441,0.548781,1.524390,-0.609756,-4.475000,17.818750,19.856251,28.955,0.57722499,-0.01035576,-0.02872289,-0.81601413
'00:09:29.844,0.060059,0.028809,1.004395,0.121951,1.097561,-0.548781,-4.562500,17.900000,19.868750,28.940,0.57722384,-0.01037831,-0.02871805,-0.81601483
'00:09:29.854,0.060059,0.027344,1.002930,-0.060976,0.914634,-0.548781,-4.562500,17.900000,19.868750,28.940,0.57722234,-0.01042905,-0.02870158,-0.81601582
'00:09:29.864,0.060547,0.027344,1.001953,0.000000,1.036585,-0.487805,-4.881250,18.381250,20.206251,28.940,0.57721322,-0.01045822,-0.02867178,-0.81602295
'00:09:29.876,0.061035,0.026855,1.002930,0.426829,1.341463,-0.609756,-4.881250,18.381250,20.206251,28.940,0.57719341,-0.01044592,-0.02865331,-0.81603777
'00:09:29.884,0.059082,0.028320,1.001953,0.731707,1.646341,-0.609756,-4.731250,18.187500,20.106251,28.940,0.57718580,-0.01039996,-0.02865273,-0.81604376
'00:09:29.894,0.061035,0.028320,1.005371,0.609756,1.646341,-0.609756,-4.731250,18.187500,20.106251,28.925,0.57717626,-0.01035956,-0.02864987,-0.81605112
'00:09:29.904,0.059570,0.028809,1.004883,0.243902,1.219512,-0.548781,-4.512500,17.881250,19.843750,28.925,0.57717899,-0.01036747,-0.02865039,-0.81604907
'00:09:29.914,0.060547,0.027832,1.001953,0.060976,1.036585,-0.548781,-4.512500,17.881250,19.843750,28.970,0.57718122,-0.01040766,-0.02864653,-0.81604712
'00:09:29.924,0.061035,0.028320,1.001465,0.182927,1.158537,-0.609756,-4.556250,17.793751,19.781250,28.940,0.57717459,-0.01042903,-0.02864494,-0.81605159
'00:09:29.934,0.062988,0.027344,1.002441,0.365854,1.341463,-0.609756,-4.556250,17.793751,19.781250,28.970,0.57716869,-0.01044261,-0.02864899,-0.81605544
'00:09:29.944,0.061035,0.027344,1.003906,0.548781,1.524390,-0.609756,-4.481250,17.868750,19.800001,28.940,0.57717033,-0.01042828,-0.02865593,-0.81605423
'00:09:29.954,0.060547,0.026855,1.002441,0.548781,1.524390,-0.609756,-4.481250,17.868750,19.800001,28.955,0.57717209,-0.01041374,-0.02865856,-0.81605308
'00:09:29.964,0.061035,0.027832,1.002930,0.670732,1.646341,-0.609756,-4.593750,18.056250,19.887501,29.016,0.57717003,-0.01037878,-0.02866633,-0.81605470
'00:09:29.974,0.060547,0.027344,1.002441,0.731707,1.707317,-0.670732,-4.593750,18.056250,19.887501,28.955,0.57716402,-0.01033616,-0.02867081,-0.81605934
'00:09:29.984,0.060547,0.027344,1.002930,0.670732,1.707317,-0.609756,-4.750000,18.275000,20.106251,28.940,0.57715570,-0.01029114,-0.02866318,-0.81606606
'00:09:29.994,0.060059,0.028809,1.003906,0.609756,1.646341,-0.609756,-4.750000,18.275000,20.106251,28.970,0.57714700,-0.01024543,-0.02866050,-0.81607288
'00:09:30.004,0.061035,0.028809,1.004883,0.426829,1.341463,-0.609756,-4.531250,17.950001,19.806250,28.940,0.57714647,-0.01024503,-0.02867412,-0.81607278
'00:09:30.014,0.061035,0.028320,1.002441,0.304878,1.280488,-0.609756,-4.531250,17.950001,19.806250,28.955,0.57714573,-0.01025763,-0.02868009,-0.81607294
'00:09:30.024,0.061035,0.028320,1.002441,0.304878,1.341463,-0.609756,-4.443750,17.850000,19.775000,28.986,0.57714914,-0.01026992,-0.02868766,-0.81607010
'00:09:30.034,0.060547,0.028320,1.001953,0.487805,1.463415,-0.609756,-4.462500,17.856251,19.875000,28.940,0.57715140,-0.01026063,-0.02869857,-0.81606824
'00:09:30.044,0.060547,0.028320,1.003906,0.609756,1.646341,-0.609756,-4.462500,17.856251,19.875000,28.940,0.57715422,-0.01023186,-0.02870798,-0.81606627
'00:09:30.054,0.060059,0.028320,1.003418,0.670732,1.646341,-0.609756,-4.487500,17.868750,19.856251,28.970,0.57715576,-0.01019630,-0.02871817,-0.81606528
'00:09:30.064,0.060059,0.028809,1.003906,0.548781,1.524390,-0.548781,-4.487500,17.868750,19.856251,28.940,0.57716116,-0.01017411,-0.02872828,-0.81606138
'00:09:30.074,0.060547,0.028809,1.003418,0.426829,1.402439,-0.609756,-4.881250,18.431250,20.193750,28.970,0.57714611,-0.01015394,-0.02871960,-0.81607257
'00:09:30.086,0.060059,0.028809,1.002930,0.365854,1.341463,-0.609756,-4.881250,18.431250,20.193750,28.970,0.57712795,-0.01013596,-0.02870587,-0.81608613
'00:09:30.094,0.060059,0.028809,1.001465,0.426829,1.402439,-0.609756,-4.675000,18.168751,20.056250,28.955,0.57712293,-0.01012539,-0.02870639,-0.81608979
'00:09:30.104,0.059570,0.028809,1.001953,0.426829,1.402439,-0.548781,-4.675000,18.168751,20.056250,28.940,0.57712107,-0.01010966,-0.02870488,-0.81609135
'00:09:30.114,0.058594,0.029297,1.003906,0.365854,1.402439,-0.609756,-4.468750,17.900000,19.775000,28.940,0.57712428,-0.01009778,-0.02870798,-0.81608912
'00:09:30.124,0.060547,0.028809,1.002441,0.304878,1.280488,-0.609756,-4.468750,17.900000,19.775000,28.955,0.57712713,-0.01011119,-0.02871848,-0.81608657
'00:09:30.134,0.059570,0.027832,1.003906,0.243902,1.280488,-0.548781,-4.481250,17.893751,19.856251,28.940,0.57713313,-0.01012511,-0.02871284,-0.81608235
'00:09:30.144,0.060547,0.027832,1.002930,0.365854,1.280488,-0.548781,-4.481250,17.893751,19.856251,28.955,0.57713915,-0.01013841,-0.02872027,-0.81607767
'00:09:30.154,0.060547,0.027344,1.002441,0.365854,1.402439,-0.609756,-4.506250,17.918751,19.843750,28.955,0.57714003,-0.01014344,-0.02871744,-0.81607708
'00:09:30.164,0.060547,0.028320,1.003418,0.548781,1.524390,-0.609756,-4.506250,17.918751,19.843750,28.970,0.57714117,-0.01012628,-0.02872679,-0.81607616
'00:09:30.174,0.060059,0.029785,1.003418,0.548781,1.585366,-0.609756,-4.643750,18.162500,19.987501,28.970,0.57713749,-0.01009126,-0.02873378,-0.81607895
'00:09:30.184,0.060059,0.029297,1.003418,0.426829,1.402439,-0.548781,-4.643750,18.162500,19.987501,28.970,0.57713774,-0.01007807,-0.02873841,-0.81607877
'00:09:30.194,0.059082,0.028320,1.003418,0.182927,1.219512,-0.548781,-4.762500,18.318750,20.131250,28.940,0.57713240,-0.01008406,-0.02871949,-0.81608314
'00:09:30.205,0.060059,0.027832,1.003418,0.121951,1.097561,-0.548781,-4.762500,18.318750,20.131250,28.940,0.57712625,-0.01011165,-0.02870224,-0.81608775
'00:09:30.214,0.060547,0.028320,1.003418,0.121951,1.097561,-0.548781,-4.512500,17.881250,19.800001,28.955,0.57712903,-0.01014261,-0.02870181,-0.81608542
'00:09:30.224,0.061523,0.028320,1.002441,0.365854,1.280488,-0.609756,-4.512500,17.881250,19.800001,28.925,0.57712832,-0.01015679,-0.02871381,-0.81608533
'00:09:30.234,0.060547,0.028320,1.002930,0.670732,1.646341,-0.609756,-4.437500,17.925001,19.850000,28.940,0.57713482,-0.01012927,-0.02873157,-0.81608044
'00:09:30.245,0.061035,0.029297,1.002930,0.792683,1.890244,-0.609756,-4.437500,17.925001,19.850000,28.940,0.57714249,-0.01007218,-0.02875527,-0.81607489
'00:09:30.254,0.060059,0.029785,1.004883,0.670732,1.585366,-0.609756,-4.493750,17.887501,19.818750,28.970,0.57714381,-0.01004035,-0.02877389,-0.81607370
'00:09:30.264,0.059082,0.028809,1.003906,0.182927,1.097561,-0.548781,-4.493750,17.887501,19.818750,28.970,0.57714822,-0.01006354,-0.02877491,-0.81607025
'00:09:30.274,0.061035,0.027832,1.003418,-0.121951,0.853659,-0.548781,-4.693750,18.193750,20.025000,28.955,0.57714398,-0.01012613,-0.02875974,-0.81607302
'00:09:30.285,0.061523,0.026367,1.001465,-0.060976,0.914634,-0.548781,-4.775000,18.300001,20.081251,29.001,0.57713606,-0.01019196,-0.02873424,-0.81607869
'00:09:30.294,0.061035,0.027344,1.000977,0.243902,1.158537,-0.548781,-4.775000,18.300001,20.081251,28.970,0.57713016,-0.01020971,-0.02872555,-0.81608295
'00:09:30.304,0.061035,0.027344,1.000977,0.243902,1.158537,-0.548781,-4.493750,17.881250,19.843750,28.970,0.57713455,-0.01024070,-0.02872877,-0.81607934
'00:09:30.314,0.061035,0.027832,1.001465,0.487805,1.524390,-0.609756,-4.493750,17.881250,19.843750,29.001,0.57713556,-0.01023061,-0.02873351,-0.81607859
'00:09:30.324,0.060059,0.028809,1.003418,0.670732,1.646341,-0.609756,-4.481250,17.856251,19.781250,28.970,0.57713748,-0.01019310,-0.02874657,-0.81607724
'00:09:30.334,0.060059,0.027832,1.003906,0.548781,1.585366,-0.609756,-4.481250,17.856251,19.781250,28.940,0.57713939,-0.01017053,-0.02874800,-0.81607612
'00:09:30.344,0.060059,0.028320,1.002930,0.426829,1.463415,-0.548781,-4.531250,17.925001,19.818750,28.970,0.57714303,-0.01015930,-0.02874759,-0.81607370
'00:09:30.354,0.060059,0.028809,1.003906,0.365854,1.402439,-0.609756,-4.531250,17.925001,19.818750,28.970,0.57714203,-0.01015328,-0.02874839,-0.81607445
'00:09:30.364,0.060547,0.027832,1.004395,0.304878,1.280488,-0.609756,-4.600000,18.037500,19.925001,28.986,0.57713818,-0.01016314,-0.02874405,-0.81607721
'00:09:30.374,0.060059,0.028809,1.002441,0.243902,1.219512,-0.609756,-4.600000,18.037500,19.925001,28.970,0.57713392,-0.01017399,-0.02874295,-0.81608012
'00:09:30.384,0.060059,0.028320,1.002930,0.243902,1.280488,-0.609756,-4.681250,18.112501,19.975000,28.955,0.57712582,-0.01017834,-0.02873111,-0.81608622
'00:09:30.394,0.060059,0.028809,1.002441,0.365854,1.402439,-0.609756,-4.681250,18.112501,19.975000,28.955,0.57711807,-0.01016598,-0.02872501,-0.81609207
'00:09:30.404,0.060547,0.027344,1.002441,0.487805,1.463415,-0.609756,-4.656250,18.206251,20.012501,28.955,0.57711453,-0.01015487,-0.02872218,-0.81609481
'00:09:30.414,0.059082,0.028809,1.002930,0.365854,1.341463,-0.609756,-4.656250,18.206251,20.012501,28.970,0.57711036,-0.01014452,-0.02871922,-0.81609799
'00:09:30.424,0.060059,0.028320,1.004395,0.243902,1.158537,-0.548781,-4.437500,17.918751,19.856251,28.970,0.57711955,-0.01017042,-0.02872837,-0.81609085
'00:09:30.434,0.060059,0.028320,1.002441,0.182927,1.158537,-0.609756,-4.437500,17.918751,19.856251,28.940,0.57712423,-0.01019922,-0.02873379,-0.81608699
'00:09:30.444,0.061035,0.028320,1.001953,0.426829,1.402439,-0.609756,-4.468750,17.931250,19.750000,28.970,0.57712813,-0.01020137,-0.02874630,-0.81608376
'00:09:30.454,0.059082,0.029297,1.003418,0.487805,1.463415,-0.609756,-4.468750,17.931250,19.750000,28.955,0.57713210,-0.01018070,-0.02875705,-0.81608083
'00:09:30.464,0.059570,0.029297,1.004395,0.182927,1.158537,-0.548781,-4.450000,17.887501,19.806250,28.970,0.57713948,-0.01020082,-0.02876320,-0.81607514
'00:09:30.474,0.059082,0.028320,1.004883,0.000000,0.975610,-0.548781,-4.450000,17.887501,19.806250,28.910,0.57714641,-0.01024396,-0.02875752,-0.81606991
'00:09:30.486,0.059570,0.027832,1.002441,0.000000,0.975610,-0.548781,-4.800000,18.312500,20.125000,28.955,0.57713559,-0.01028298,-0.02872914,-0.81607807
'00:09:30.494,0.061035,0.027344,1.001465,0.365854,1.402439,-0.548781,-4.800000,18.312500,20.125000,28.970,0.57712954,-0.01027780,-0.02871696,-0.81608284
'00:09:30.504,0.061035,0.027832,1.003418,0.792683,1.768293,-0.609756,-4.737500,18.356251,20.175001,28.986,0.57712382,-0.01022582,-0.02872150,-0.81608737
'00:09:30.514,0.060547,0.029297,1.002441,0.670732,1.707317,-0.609756,-4.737500,18.356251,20.175001,28.940,0.57711765,-0.01017672,-0.02872725,-0.81609215
'00:09:30.526,0.059570,0.029297,1.004395,0.365854,1.402439,-0.548781,-4.437500,17.818750,19.825001,28.970,0.57712668,-0.01016912,-0.02873549,-0.81608557
'00:09:30.534,0.060547,0.028320,1.004395,0.121951,1.036585,-0.548781,-4.537500,17.968750,19.825001,28.986,0.57712897,-0.01019886,-0.02873667,-0.81608353
'00:09:30.544,0.061035,0.028809,1.002441,0.121951,1.097561,-0.548781,-4.537500,17.968750,19.825001,28.940,0.57713178,-0.01023240,-0.02874057,-0.81608100
'00:09:30.554,0.060547,0.027832,1.001465,0.365854,1.280488,-0.609756,-4.450000,17.856251,19.781250,28.970,0.57713487,-0.01024546,-0.02874982,-0.81607832
'00:09:30.565,0.061035,0.027832,1.002441,0.548781,1.524390,-0.609756,-4.450000,17.856251,19.781250,28.970,0.57713904,-0.01023315,-0.02876234,-0.81607508
'00:09:30.574,0.060059,0.028809,1.002930,0.609756,1.585366,-0.609756,-4.612500,18.137501,19.987501,28.940,0.57713716,-0.01020243,-0.02876866,-0.81607657
'00:09:30.584,0.060059,0.027832,1.004395,0.487805,1.524390,-0.548781,-4.612500,18.137501,19.987501,28.986,0.57713942,-0.01018305,-0.02876378,-0.81607539
'00:09:30.594,0.061035,0.028320,1.003418,0.304878,1.341463,-0.548781,-4.793750,18.412500,20.125000,28.940,0.57713416,-0.01018273,-0.02875434,-0.81607945
'00:09:30.606,0.061035,0.028320,1.003418,0.243902,1.219512,-0.548781,-4.793750,18.412500,20.125000,28.955,0.57712746,-0.01019648,-0.02874538,-0.81608433
'00:09:30.614,0.061035,0.027832,1.002441,0.304878,1.280488,-0.609756,-4.500000,17.937500,19.881250,28.970,0.57712824,-0.01021036,-0.02874867,-0.81608349
'00:09:30.625,0.060059,0.027344,1.003418,0.487805,1.463415,-0.609756,-4.500000,17.937500,19.881250,29.016,0.57713013,-0.01020066,-0.02874939,-0.81608224
'00:09:30.634,0.059570,0.029297,1.003418,0.609756,1.585366,-0.609756,-4.450000,17.943750,19.887501,28.970,0.57713496,-0.01017274,-0.02876440,-0.81607865
'00:09:30.645,0.059570,0.029297,1.003418,0.548781,1.524390,-0.609756,-4.450000,17.943750,19.887501,28.970,0.57714064,-0.01014720,-0.02878109,-0.81607436
'00:09:30.654,0.060059,0.029297,1.003906,0.365854,1.280488,-0.548781,-4.481250,17.956251,19.825001,29.001,0.57714699,-0.01015127,-0.02879353,-0.81606938
'00:09:30.664,0.060059,0.028320,1.002930,0.182927,1.158537,-0.548781,-4.481250,17.956251,19.825001,28.955,0.57715373,-0.01017779,-0.02879498,-0.81606423
'00:09:30.674,0.061035,0.027832,1.003906,0.243902,1.280488,-0.609756,-4.518750,17.968750,19.887501,28.986,0.57715388,-0.01019722,-0.02879247,-0.81606397
'00:09:30.685,0.060059,0.027344,1.001465,0.548781,1.463415,-0.548781,-4.518750,17.968750,19.887501,28.940,0.57715973,-0.01018399,-0.02879703,-0.81605984
'00:09:30.694,0.060547,0.028809,1.002441,0.548781,1.585366,-0.548781,-4.725000,18.187500,20.050001,29.001,0.57715553,-0.01015385,-0.02879392,-0.81606329
'00:09:30.704,0.061035,0.028809,1.004883,0.487805,1.463415,-0.609756,-4.725000,18.187500,20.050001,28.955,0.57714625,-0.01013460,-0.02879338,-0.81607012
'00:09:30.714,0.061523,0.027832,1.003418,0.365854,1.341463,-0.548781,-4.537500,18.037500,19.975000,28.940,0.57715093,-0.01014721,-0.02879858,-0.81606647
'00:09:30.726,0.060059,0.027832,1.003418,0.243902,1.280488,-0.609756,-4.537500,18.037500,19.975000,28.970,0.57715105,-0.01016455,-0.02879091,-0.81606643
'00:09:30.734,0.060547,0.029297,1.002441,0.304878,1.280488,-0.609756,-4.487500,17.918751,19.918751,28.970,0.57715175,-0.01017220,-0.02879918,-0.81606555
'00:09:30.744,0.062012,0.028320,1.003418,0.426829,1.402439,-0.548781,-4.487500,17.918751,19.918751,28.955,0.57715750,-0.01017907,-0.02881169,-0.81606096
'00:09:30.754,0.060547,0.028320,1.003906,0.365854,1.402439,-0.609756,-4.475000,17.906250,19.856251,28.925,0.57715973,-0.01018077,-0.02881441,-0.81605927
'00:09:30.766,0.060547,0.029297,1.003906,0.182927,1.158537,-0.609756,-4.462500,17.893751,19.812500,28.955,0.57716215,-0.01021042,-0.02882449,-0.81605683
'00:09:30.774,0.060547,0.028320,1.002441,0.182927,1.158537,-0.609756,-4.462500,17.893751,19.812500,28.986,0.57716386,-0.01023328,-0.02882697,-0.81605525
'00:09:30.784,0.060547,0.028320,1.002441,0.243902,1.280488,-0.609756,-4.462500,17.893751,19.812500,28.910,0.57716630,-0.01024974,-0.02882819,-0.81605327
'00:09:30.794,0.060059,0.029297,1.002930,0.548781,1.463415,-0.609756,-4.675000,18.125000,19.975000,28.940,0.57715902,-0.01022091,-0.02883351,-0.81605859
'00:09:30.806,0.059082,0.028809,1.002930,0.487805,1.463415,-0.548781,-4.706250,18.193750,20.056250,28.986,0.57715455,-0.01018558,-0.02882532,-0.81606248
'00:09:30.814,0.059570,0.028809,1.004883,0.304878,1.341463,-0.548781,-4.706250,18.193750,20.056250,28.970,0.57715127,-0.01017863,-0.02881547,-0.81606524
'00:09:30.824,0.059570,0.028809,1.003906,0.304878,1.280488,-0.548781,-4.475000,17.906250,19.800001,28.970,0.57715768,-0.01018456,-0.02881892,-0.81606051
'00:09:30.834,0.060059,0.028320,1.003906,0.304878,1.341463,-0.609756,-4.475000,17.906250,19.800001,28.940,0.57715995,-0.01019065,-0.02881840,-0.81605885
'00:09:30.847,0.060059,0.029297,1.002930,0.426829,1.402439,-0.609756,-4.500000,17.793751,19.750000,28.970,0.57715766,-0.01017573,-0.02882713,-0.81606034
'00:09:30.854,0.060547,0.029297,1.002441,0.426829,1.402439,-0.548781,-4.500000,17.793751,19.750000,28.940,0.57715947,-0.01016996,-0.02883323,-0.81605892
'00:09:30.864,0.060547,0.028809,1.003906,0.304878,1.280488,-0.609756,-4.506250,17.862501,19.818750,28.970,0.57715821,-0.01017883,-0.02883684,-0.81605958
'00:09:30.874,0.060547,0.029297,1.000977,0.243902,1.219512,-0.548781,-4.506250,17.862501,19.818750,28.955,0.57716093,-0.01019376,-0.02884309,-0.81605725
'00:09:30.886,0.061035,0.028320,1.003418,0.243902,1.219512,-0.548781,-4.893750,18.475000,20.200001,29.001,0.57714728,-0.01020117,-0.02882484,-0.81606745
'00:09:30.894,0.062500,0.028320,1.002930,0.426829,1.341463,-0.609756,-4.893750,18.475000,20.200001,28.970,0.57713510,-0.01019815,-0.02882322,-0.81607616
'00:09:30.905,0.060547,0.027832,1.001953,0.487805,1.524390,-0.609756,-4.850000,18.412500,20.137501,28.955,0.57712107,-0.01016877,-0.02880689,-0.81608702
'00:09:30.914,0.059570,0.028809,1.003418,0.609756,1.646341,-0.670732,-4.850000,18.412500,20.137501,29.001,0.57710602,-0.01012309,-0.02879715,-0.81609858
'00:09:30.927,0.060059,0.029297,1.002930,0.304878,1.280488,-0.548781,-4.475000,17.881250,19.825001,29.001,0.57711368,-0.01013307,-0.02880832,-0.81609264
'00:09:30.934,0.059082,0.030273,1.003418,-0.121951,0.853659,-0.548781,-4.475000,17.881250,19.825001,29.001,0.57711663,-0.01016782,-0.02880902,-0.81609010
'00:09:30.944,0.060059,0.027832,1.001465,-0.670732,0.365854,-0.548781,-4.562500,17.893751,19.856251,28.925,0.57711357,-0.01028995,-0.02877929,-0.81609178
'00:09:30.954,0.062988,0.024902,1.000000,0.487805,1.402439,-0.548781,-4.562500,17.893751,19.856251,28.970,0.57711447,-0.01030697,-0.02877561,-0.81609106
'00:09:30.966,0.060547,0.027344,1.004395,1.280488,2.317073,-0.670732,-4.493750,17.831251,19.856251,28.970,0.57711232,-0.01017546,-0.02879154,-0.81609367
'00:09:30.974,0.060547,0.028809,1.003906,1.219512,2.195122,-0.670732,-4.493750,17.831251,19.856251,28.970,0.57711052,-0.01009404,-0.02881056,-0.81609528
'00:09:30.984,0.060059,0.029785,1.003418,0.914634,1.890244,-0.670732,-4.743750,18.262501,20.093750,28.940,0.57709858,-0.01001474,-0.02882138,-0.81610432
'00:09:30.994,0.059570,0.030273,1.003418,0.304878,1.280488,-0.609756,-4.743750,18.262501,20.093750,28.940,0.57708900,-0.01000619,-0.02882028,-0.81611124
'00:09:31.006,0.061035,0.029297,1.003418,0.060976,1.036585,-0.487805,-4.718750,18.237501,20.031250,28.955,0.57708883,-0.01004777,-0.02881493,-0.81611104
'00:09:31.014,0.060547,0.027344,1.001953,0.060976,1.036585,-0.548781,-4.718750,18.237501,20.031250,28.955,0.57708553,-0.01007926,-0.02880145,-0.81611346
'00:09:31.024,0.060059,0.028320,1.000488,0.243902,1.219512,-0.609756,-4.562500,18.062500,19.943750,28.970,0.57708463,-0.01009661,-0.02880113,-0.81611389
'00:09:31.034,0.059570,0.027832,1.003906,0.426829,1.463415,-0.609756,-4.562500,18.062500,19.943750,28.955,0.57708464,-0.01008563,-0.02879537,-0.81611423
'00:09:31.046,0.060059,0.026855,1.004883,0.670732,1.646341,-0.670732,-4.475000,17.881250,19.800001,28.986,0.57708374,-0.01005340,-0.02879729,-0.81611519
'00:09:31.054,0.061523,0.025879,1.001953,1.036585,2.073171,-0.609756,-4.475000,17.881250,19.800001,28.940,0.57708785,-0.01000374,-0.02880335,-0.81611268
'00:09:31.064,0.061523,0.025879,1.001953,1.036585,2.073171,-0.609756,-4.493750,17.912500,19.818750,28.940,0.57709237,-0.00994166,-0.02881007,-0.81611001
'00:09:31.074,0.061035,0.029297,1.004883,1.280488,2.317073,-0.731707,-4.468750,17.862501,19.862501,28.940,0.57708888,-0.00983429,-0.02883938,-0.81611274
'00:09:31.086,0.059082,0.030273,1.007812,0.548781,1.463415,-0.609756,-4.468750,17.862501,19.862501,28.955,0.57709187,-0.00980597,-0.02885902,-0.81611027
'00:09:31.094,0.058594,0.030273,1.004883,-0.548781,0.365854,-0.487805,-4.731250,18.287500,20.137501,28.970,0.57708999,-0.00988466,-0.02884363,-0.81611120
'00:09:31.104,0.060059,0.028809,1.001465,-0.853659,0.000000,-0.487805,-4.731250,18.287500,20.137501,28.986,0.57708657,-0.01003803,-0.02882010,-0.81611257
'00:09:31.114,0.061523,0.027832,0.998535,-0.182927,0.792683,-0.548781,-4.781250,18.281250,20.100000,28.986,0.57707796,-0.01010835,-0.02880223,-0.81611842
'00:09:31.125,0.060547,0.028320,0.999023,0.853659,1.890244,-0.670732,-4.781250,18.281250,20.100000,28.940,0.57706284,-0.01003274,-0.02880188,-0.81613006
'00:09:31.134,0.059570,0.028320,1.003418,1.524390,2.560976,-0.670732,-4.518750,17.943750,19.781250,28.970,0.57706333,-0.00990269,-0.02882125,-0.81613062
'00:09:31.144,0.058594,0.029785,1.006348,1.402439,2.378049,-0.731707,-4.518750,17.943750,19.781250,28.970,0.57705892,-0.00976709,-0.02884658,-0.81613448
'00:09:31.154,0.059082,0.029785,1.007812,0.670732,1.646341,-0.609756,-4.462500,17.987501,19.850000,28.970,0.57706555,-0.00972949,-0.02886303,-0.81612965
'00:09:31.164,0.060059,0.028809,1.003906,0.182927,1.158537,-0.548781,-4.462500,17.987501,19.850000,28.986,0.57707503,-0.00976220,-0.02886890,-0.81612236
'00:09:31.174,0.061035,0.029297,1.004395,0.060976,0.975610,-0.548781,-4.600000,18.137501,19.943750,28.940,0.57707705,-0.00981033,-0.02887394,-0.81612017
'00:09:31.184,0.060547,0.029785,1.002441,-0.121951,0.853659,-0.548781,-4.600000,18.137501,19.943750,28.955,0.57707840,-0.00987129,-0.02887358,-0.81611850
'00:09:31.194,0.060547,0.028320,1.000488,-0.243902,0.670732,-0.548781,-4.806250,18.362501,20.156250,28.955,0.57706950,-0.00994770,-0.02885487,-0.81612452
'00:09:31.206,0.060059,0.028320,1.001465,-0.060976,0.914634,-0.548781,-4.806250,18.362501,20.156250,28.940,0.57705968,-0.01000268,-0.02883078,-0.81613164
'00:09:31.214,0.061035,0.028320,1.000977,0.487805,1.402439,-0.548781,-4.725000,18.268751,20.118750,28.970,0.57705727,-0.00999617,-0.02883311,-0.81613334
'00:09:31.224,0.059570,0.028320,1.004395,1.036585,2.012195,-0.609756,-4.725000,18.268751,20.118750,28.940,0.57705202,-0.00990807,-0.02883723,-0.81613798
'00:09:31.234,0.059570,0.028320,1.005859,1.097561,2.073171,-0.670732,-4.443750,17.925001,19.806250,28.970,0.57705594,-0.00982578,-0.02885703,-0.81613551
'00:09:31.244,0.060547,0.028809,1.003906,0.853659,1.890244,-0.670732,-4.443750,17.925001,19.806250,28.940,0.57705910,-0.00977395,-0.02887605,-0.81613322
'00:09:31.254,0.058594,0.030762,1.003906,0.731707,1.768293,-0.670732,-4.456250,17.881250,19.825001,28.940,0.57705965,-0.00971725,-0.02889373,-0.81613289
'00:09:31.264,0.058105,0.030762,1.002930,0.426829,1.402439,-0.609756,-4.456250,17.881250,19.825001,28.940,0.57706344,-0.00970034,-0.02890629,-0.81612996
'00:09:31.274,0.059082,0.030762,1.002930,-0.243902,0.670732,-0.487805,-4.443750,17.831251,19.843750,29.001,0.57707313,-0.00977553,-0.02891147,-0.81612203
'00:09:31.286,0.061035,0.029785,1.001465,-0.609756,0.365854,-0.426829,-4.443750,17.831251,19.843750,28.940,0.57708856,-0.00993116,-0.02890787,-0.81610937
'00:09:31.294,0.063477,0.026367,1.000488,0.121951,1.036585,-0.548781,-4.718750,18.168751,19.962500,28.955,0.57708443,-0.00997699,-0.02890104,-0.81611197
'00:09:31.304,0.064453,0.026367,1.002441,1.097561,2.073171,-0.609756,-4.718750,18.168751,19.962500,28.940,0.57707830,-0.00991547,-0.02891295,-0.81611663
'00:09:31.314,0.059082,0.028320,1.005371,1.280488,2.317073,-0.670732,-4.831250,18.400000,20.125000,28.970,0.57706540,-0.00978678,-0.02891063,-0.81612739
'00:09:31.324,0.058105,0.030762,1.005371,0.975610,1.890244,-0.609756,-4.518750,17.975000,19.787500,29.001,0.57706858,-0.00970318,-0.02893348,-0.81612533
'00:09:31.334,0.058105,0.030762,1.003906,0.487805,1.463415,-0.609756,-4.518750,17.975000,19.787500,28.970,0.57707036,-0.00967604,-0.02894344,-0.81612404
'00:09:31.344,0.059082,0.029785,1.002930,0.121951,1.158537,-0.548781,-4.475000,17.881250,19.737501,29.001,0.57707679,-0.00970069,-0.02894270,-0.81611923
'00:09:31.354,0.058594,0.029297,1.001953,0.060976,1.036585,-0.548781,-4.475000,17.881250,19.737501,28.925,0.57708291,-0.00973613,-0.02893930,-0.81611460
'00:09:31.364,0.058594,0.028809,1.000488,0.182927,1.158537,-0.548781,-4.450000,17.850000,19.818750,28.940,0.57709018,-0.00975993,-0.02893723,-0.81610925
'00:09:31.374,0.061035,0.028320,1.001953,0.487805,1.524390,-0.609756,-4.450000,17.850000,19.818750,28.970,0.57709422,-0.00975739,-0.02894493,-0.81610615
'00:09:31.384,0.060547,0.028809,1.003418,0.792683,1.829268,-0.670732,-4.493750,17.962500,19.893751,28.940,0.57709397,-0.00971140,-0.02895804,-0.81610641
'00:09:31.394,0.059082,0.029785,1.006836,0.975610,1.951220,-0.670732,-4.493750,17.962500,19.893751,28.970,0.57709414,-0.00963519,-0.02897624,-0.81610655
'00:09:31.405,0.058594,0.030273,1.005859,0.304878,1.219512,-0.548781,-4.843750,18.437500,20.168751,28.940,0.57708526,-0.00962657,-0.02896682,-0.81611326
'00:09:31.417,0.061035,0.029297,1.002930,-0.182927,0.731707,-0.548781,-4.843750,18.437500,20.168751,28.925,0.57707383,-0.00971002,-0.02895093,-0.81612092
'00:09:31.424,0.060547,0.028320,1.000488,0.060976,0.975610,-0.548781,-4.675000,18.250000,20.018751,28.940,0.57707328,-0.00974354,-0.02894700,-0.81612105
'00:09:31.434,0.061523,0.028809,1.000488,0.853659,1.890244,-0.609756,-4.675000,18.250000,20.018751,28.986,0.57707093,-0.00968926,-0.02895851,-0.81612295
'00:09:31.445,0.058594,0.029297,1.002930,1.280488,2.378049,-0.670732,-4.487500,17.981251,19.843750,29.001,0.57707398,-0.00955626,-0.02897650,-0.81612172
'00:09:31.454,0.059082,0.029785,1.003418,-0.365854,0.487805,-0.426829,-4.487500,17.981251,19.843750,28.986,0.57708662,-0.00964601,-0.02897528,-0.81611177
'00:09:31.464,0.061523,0.026855,1.000488,0.426829,1.402439,-0.609756,-4.456250,17.993750,19.887501,28.940,0.57709318,-0.00966767,-0.02898095,-0.81610667
'00:09:31.474,0.056152,0.031738,1.007812,0.914634,1.951220,-0.670732,-4.456250,17.993750,19.887501,28.970,0.57709641,-0.00957302,-0.02899728,-0.81610492
'00:09:31.484,0.062500,0.027344,1.000977,-0.060976,0.792683,-0.548781,-4.481250,17.881250,19.825001,28.986,0.57710130,-0.00966395,-0.02900085,-0.81610027
'00:09:31.494,0.062012,0.028320,1.002441,0.609756,1.585366,-0.670732,-4.481250,17.881250,19.825001,28.986,0.57709971,-0.00965590,-0.02901521,-0.81610097
'00:09:31.504,0.055664,0.034180,1.007324,0.426829,1.463415,-0.609756,-4.712500,18.375000,20.081251,28.986,0.57709491,-0.00959832,-0.02902099,-0.81610485
'00:09:31.514,0.061035,0.028809,1.000488,0.121951,1.097561,-0.548781,-4.712500,18.375000,20.081251,28.940,0.57709430,-0.00963616,-0.02901704,-0.81610497
'00:09:31.524,0.059082,0.028809,1.000977,0.426829,1.463415,-0.609756,-4.893750,18.518751,20.256250,28.970,0.57708092,-0.00961249,-0.02899779,-0.81611540
'00:09:31.534,0.060059,0.029297,1.001953,0.487805,1.463415,-0.609756,-4.893750,18.518751,20.256250,28.925,0.57706759,-0.00958941,-0.02898948,-0.81612539
'00:09:31.544,0.059082,0.029785,1.003906,0.426829,1.463415,-0.609756,-4.462500,17.900000,19.818750,28.970,0.57707176,-0.00957922,-0.02899536,-0.81612235
'00:09:31.554,0.059570,0.029785,1.002930,0.243902,1.219512,-0.548781,-4.462500,17.900000,19.818750,28.940,0.57707945,-0.00959885,-0.02900273,-0.81611642
'00:09:31.564,0.059082,0.028320,1.002441,0.365854,1.341463,-0.548781,-4.406250,17.912500,19.762501,28.970,0.57709231,-0.00961035,-0.02900704,-0.81610704
'00:09:31.574,0.059570,0.029785,1.004883,0.365854,1.402439,-0.609756,-4.406250,17.912500,19.762501,28.940,0.57710059,-0.00961331,-0.02901771,-0.81610077
'00:09:31.584,0.060547,0.029785,1.003906,0.304878,1.280488,-0.548781,-4.462500,17.937500,19.850000,28.970,0.57710895,-0.00963076,-0.02903011,-0.81609421
'00:09:31.594,0.059082,0.030762,1.001465,0.426829,1.402439,-0.609756,-4.625000,18.237501,19.975000,28.955,0.57710794,-0.00961517,-0.02903919,-0.81609478
'00:09:31.604,0.059082,0.030762,1.002441,0.365854,1.341463,-0.609756,-4.625000,18.237501,19.975000,28.955,0.57710676,-0.00960702,-0.02904648,-0.81609546
'00:09:31.614,0.058594,0.029297,1.003418,0.304878,1.341463,-0.548781,-4.900000,18.475000,20.231251,28.955,0.57709594,-0.00959253,-0.02902263,-0.81610413
'00:09:31.626,0.060059,0.029785,1.002441,0.365854,1.341463,-0.548781,-4.900000,18.475000,20.231251,28.940,0.57708297,-0.00957942,-0.02901046,-0.81611388
'00:09:31.634,0.060059,0.028809,1.004395,0.304878,1.280488,-0.548781,-4.593750,18.131250,19.937500,28.955,0.57708579,-0.00959026,-0.02900938,-0.81611180
'00:09:31.644,0.061035,0.028320,1.003906,0.365854,1.341463,-0.609756,-4.593750,18.131250,19.937500,28.955,0.57708520,-0.00960362,-0.02901065,-0.81611202
'00:09:31.655,0.060059,0.028809,1.003418,0.365854,1.280488,-0.609756,-4.462500,17.918751,19.825001,28.970,0.57708968,-0.00962066,-0.02902075,-0.81610829
'00:09:31.664,0.059570,0.030273,1.002441,0.426829,1.341463,-0.548781,-4.462500,17.918751,19.825001,28.955,0.57709711,-0.00962007,-0.02903617,-0.81610250
'00:09:31.674,0.060059,0.029785,1.003418,0.365854,1.341463,-0.609756,-4.450000,17.906250,19.800001,28.970,0.57710171,-0.00962743,-0.02904823,-0.81609872
'00:09:31.684,0.059570,0.029297,1.003906,0.365854,1.402439,-0.609756,-4.450000,17.906250,19.800001,28.955,0.57710656,-0.00962945,-0.02905197,-0.81609514
'00:09:31.694,0.058594,0.028809,1.003418,0.365854,1.341463,-0.609756,-4.562500,18.075001,19.893751,28.940,0.57710685,-0.00962763,-0.02904686,-0.81609513
'00:09:31.704,0.059082,0.028809,1.003418,0.365854,1.341463,-0.609756,-4.562500,18.075001,19.893751,28.955,0.57710714,-0.00962859,-0.02904380,-0.81609503
'00:09:31.714,0.060059,0.030273,1.002930,0.304878,1.341463,-0.609756,-4.787500,18.350000,20.168751,28.940,0.57709665,-0.00962274,-0.02903720,-0.81610275
'00:09:31.724,0.059570,0.030762,1.003418,0.304878,1.341463,-0.548781,-4.787500,18.350000,20.168751,28.970,0.57709047,-0.00961240,-0.02903133,-0.81610745
'00:09:31.734,0.059082,0.029785,1.002441,0.243902,1.219512,-0.548781,-4.650000,18.193750,20.012501,28.986,0.57709069,-0.00962129,-0.02902765,-0.81610733
'00:09:31.744,0.059082,0.028809,1.003418,0.243902,1.219512,-0.548781,-4.650000,18.193750,20.012501,29.001,0.57709110,-0.00963381,-0.02901801,-0.81610723
'00:09:31.754,0.060547,0.029297,1.002930,0.060976,0.975610,-0.548781,-4.487500,17.968750,19.825001,28.955,0.57709762,-0.00968585,-0.02902472,-0.81610176
'00:09:31.764,0.059570,0.028320,1.002441,0.121951,1.097561,-0.548781,-4.487500,17.968750,19.825001,28.955,0.57710462,-0.00972392,-0.02902001,-0.81609653
'00:09:31.774,0.061523,0.028809,1.002441,0.426829,1.402439,-0.548781,-4.456250,17.881250,19.800001,28.940,0.57711271,-0.00973419,-0.02903294,-0.81609022
'00:09:31.784,0.059570,0.028809,1.002441,0.731707,1.707317,-0.609756,-4.456250,17.881250,19.800001,28.970,0.57711753,-0.00969604,-0.02904410,-0.81608687
'00:09:31.794,0.057617,0.030762,1.003906,0.670732,1.707317,-0.609756,-4.468750,17.937500,19.818750,28.970,0.57712230,-0.00964202,-0.02905386,-0.81608379
'00:09:31.804,0.057617,0.030762,1.003906,0.670732,1.707317,-0.609756,-4.468750,17.937500,19.818750,28.970,0.57712713,-0.00958882,-0.02906353,-0.81608066
'00:09:31.814,0.059570,0.030273,1.002441,-0.060976,0.914634,-0.548781,-4.675000,18.181250,20.056250,28.970,0.57712391,-0.00963410,-0.02905530,-0.81608270
'00:09:31.825,0.060547,0.029297,1.003418,-0.304878,0.609756,-0.548781,-4.675000,18.181250,20.056250,28.955,0.57711942,-0.00973066,-0.02904181,-0.81608521
'00:09:31.834,0.060547,0.029297,1.003418,-0.304878,0.609756,-0.548781,-4.656250,18.168751,20.012501,28.955,0.57711668,-0.00980916,-0.02903199,-0.81608656
'00:09:31.844,0.062012,0.028320,1.001953,-0.121951,0.853659,-0.548781,-4.656250,18.168751,20.012501,28.986,0.57711442,-0.00988107,-0.02902270,-0.81608762
'00:09:31.854,0.059082,0.027832,1.003418,0.000000,0.975610,-0.609756,-4.450000,17.931250,19.825001,28.970,0.57711819,-0.00993165,-0.02901202,-0.81608471
'00:09:31.864,0.060059,0.027832,1.001465,0.060976,1.036585,-0.609756,-4.487500,17.925001,19.806250,28.970,0.57711932,-0.00997745,-0.02900440,-0.81608363
'00:09:31.874,0.061035,0.027832,1.001953,0.426829,1.341463,-0.548781,-4.487500,17.925001,19.806250,28.970,0.57712575,-0.00998799,-0.02901120,-0.81607871
'00:09:31.884,0.061035,0.028809,1.000488,0.975610,2.012195,-0.670732,-4.462500,17.900000,19.806250,28.970,0.57712660,-0.00992031,-0.02903095,-0.81607823
'00:09:31.894,0.059570,0.029297,1.001465,1.402439,2.378049,-0.609756,-4.462500,17.900000,19.806250,28.986,0.57713314,-0.00979577,-0.02905889,-0.81607412
'00:09:31.904,0.058594,0.029785,1.004883,1.097561,2.073171,-0.670732,-4.700000,18.287500,20.062500,28.955,0.57712552,-0.00969272,-0.02906739,-0.81608043
'00:09:31.914,0.058105,0.031738,1.005371,0.182927,1.158537,-0.548781,-4.700000,18.287500,20.062500,28.955,0.57712329,-0.00969195,-0.02906577,-0.81608208
'00:09:31.925,0.059570,0.029785,1.004395,-0.426829,0.548781,-0.487805,-4.800000,18.362501,20.137501,28.940,0.57711784,-0.00978534,-0.02903798,-0.81608581
'00:09:31.934,0.060547,0.028809,1.003906,-0.487805,0.487805,-0.487805,-4.800000,18.362501,20.137501,28.955,0.57711326,-0.00987568,-0.02901306,-0.81608884
'00:09:31.944,0.060547,0.027832,1.000977,-0.121951,0.792683,-0.548781,-4.562500,17.962500,19.881250,28.970,0.57711334,-0.00994786,-0.02900168,-0.81608831
'00:09:31.954,0.060547,0.028320,1.002441,0.243902,1.280488,-0.609756,-4.562500,17.962500,19.881250,28.940,0.57711043,-0.00996334,-0.02899413,-0.81609045
'00:09:31.964,0.060547,0.028809,1.002441,0.548781,1.585366,-0.609756,-4.475000,17.912500,19.806250,28.970,0.57711374,-0.00994428,-0.02900183,-0.81608807
'00:09:31.974,0.059570,0.028320,1.002441,0.670732,1.707317,-0.609756,-4.475000,17.912500,19.806250,28.955,0.57711763,-0.00990716,-0.02900516,-0.81608565
'00:09:31.984,0.059082,0.031738,1.004395,0.548781,1.524390,-0.609756,-4.512500,17.906250,19.843750,28.955,0.57711736,-0.00987013,-0.02902286,-0.81608566
'00:09:31.994,0.059082,0.029297,1.004883,0.182927,1.219512,-0.548781,-4.512500,17.906250,19.843750,28.955,0.57712093,-0.00988386,-0.02901523,-0.81608324
'00:09:32.004,0.059570,0.027832,1.003906,0.060976,0.975610,-0.609756,-4.543750,18.043751,19.931250,28.955,0.57712020,-0.00992972,-0.02900569,-0.81608354
'00:09:32.014,0.061035,0.028320,1.001465,0.304878,1.219512,-0.548781,-4.543750,18.043751,19.931250,28.986,0.57712439,-0.00995221,-0.02901099,-0.81608012
'00:09:32.024,0.060547,0.028809,1.002441,0.731707,1.707317,-0.609756,-4.781250,18.325001,20.137501,28.986,0.57711489,-0.00990259,-0.02901008,-0.81608747
'00:09:32.034,0.060547,0.028809,1.005371,0.914634,2.012195,-0.609756,-4.781250,18.325001,20.137501,28.986,0.57710647,-0.00982223,-0.02900581,-0.81609454
'00:09:32.044,0.058594,0.031738,1.005371,0.487805,1.524390,-0.609756,-4.687500,18.212500,20.000000,28.955,0.57710046,-0.00978046,-0.02900976,-0.81609916
'00:09:32.054,0.060059,0.029297,1.001953,-0.121951,0.853659,-0.548781,-4.687500,18.212500,20.000000,28.925,0.57709711,-0.00983667,-0.02899737,-0.81610129
'00:09:32.064,0.061523,0.028320,1.000977,-0.060976,0.853659,-0.548781,-4.431250,17.975000,19.787500,28.925,0.57710722,-0.00991389,-0.02900527,-0.81609292
'00:09:32.074,0.060547,0.028320,1.001465,0.487805,1.463415,-0.609756,-4.431250,17.975000,19.787500,28.986,0.57711489,-0.00991311,-0.02901714,-0.81608709
'00:09:32.084,0.059570,0.029297,1.003418,0.853659,1.890244,-0.670732,-4.468750,17.918751,19.800001,28.970,0.57711548,-0.00985031,-0.02903006,-0.81608697
'00:09:32.094,0.058105,0.030273,1.006836,0.548781,1.524390,-0.548781,-4.468750,17.918751,19.800001,28.955,0.57712354,-0.00981711,-0.02903783,-0.81608140
'00:09:32.104,0.057617,0.029785,1.004395,0.000000,1.036585,-0.609756,-4.475000,17.937500,19.837500,28.955,0.57712551,-0.00984622,-0.02902706,-0.81608004
'00:09:32.114,0.060059,0.027344,1.002930,0.243902,1.219512,-0.609756,-4.475000,17.937500,19.837500,28.955,0.57712851,-0.00987383,-0.02902087,-0.81607780
'00:09:32.124,0.061523,0.028809,1.002441,0.792683,1.829268,-0.670732,-4.618750,18.131250,19.981251,28.970,0.57712247,-0.00982595,-0.02903048,-0.81608231
'00:09:32.134,0.059570,0.030762,1.003418,1.097561,2.073171,-0.609756,-4.756250,18.275000,20.106251,29.001,0.57711473,-0.00972106,-0.02904475,-0.81608853
'00:09:32.144,0.060059,0.031250,1.004883,0.365854,1.402439,-0.609756,-4.756250,18.275000,20.106251,28.970,0.57710476,-0.00970275,-0.02904479,-0.81609580
'00:09:32.154,0.059570,0.030762,1.004883,-0.365854,0.609756,-0.548781,-4.456250,17.906250,19.825001,28.955,0.57711032,-0.00979036,-0.02904377,-0.81609086
'00:09:32.164,0.061035,0.027832,1.002930,-0.670732,0.243902,-0.487805,-4.456250,17.906250,19.825001,28.970,0.57711938,-0.00993889,-0.02902896,-0.81608318
'00:09:32.174,0.062012,0.026855,1.001465,0.000000,0.914634,-0.487805,-4.487500,17.931250,19.768751,28.970,0.57712917,-0.01001151,-0.02902520,-0.81607550
'00:09:32.184,0.061035,0.027344,1.001953,0.914634,1.890244,-0.670732,-4.487500,17.931250,19.768751,28.940,0.57712901,-0.00995951,-0.02903618,-0.81607586
'00:09:32.194,0.059570,0.028809,1.003906,1.280488,2.256098,-0.731707,-4.456250,17.943750,19.812500,28.955,0.57712789,-0.00985131,-0.02905914,-0.81607715
'00:09:32.204,0.058105,0.031250,1.004883,0.914634,1.951220,-0.670732,-4.456250,17.943750,19.812500,28.970,0.57712972,-0.00976643,-0.02907903,-0.81607617
'00:09:32.214,0.057617,0.031250,1.004883,0.304878,1.280488,-0.548781,-4.612500,18.181250,19.950001,28.970,0.57713194,-0.00975261,-0.02907971,-0.81607474
'00:09:32.224,0.059082,0.029785,1.004395,-0.060976,0.914634,-0.548781,-4.612500,18.181250,19.950001,28.970,0.57713320,-0.00979773,-0.02907044,-0.81607364
'00:09:32.235,0.060547,0.028320,1.002930,0.121951,1.097561,-0.548781,-5.037500,18.643751,20.375000,28.940,0.57711372,-0.00981797,-0.02903800,-0.81608833
'00:09:32.244,0.060547,0.027832,1.003418,0.426829,1.463415,-0.609756,-5.037500,18.643751,20.375000,28.986,0.57709511,-0.00979863,-0.02901234,-0.81610263
'00:09:32.254,0.059570,0.029297,1.003906,0.426829,1.402439,-0.548781,-4.506250,17.881250,19.737501,28.955,0.57709988,-0.00979104,-0.02901583,-0.81609923
'00:09:32.264,0.059082,0.029785,1.001953,0.304878,1.280488,-0.609756,-4.506250,17.881250,19.737501,28.955,0.57709978,-0.00979386,-0.02901842,-0.81609917
'00:09:32.274,0.059570,0.029785,1.002441,0.609756,1.585366,-0.609756,-4.512500,17.918751,19.825001,28.986,0.57710071,-0.00976258,-0.02902922,-0.81609850
'00:09:32.284,0.059570,0.029785,1.004395,0.548781,1.585366,-0.609756,-4.512500,17.918751,19.825001,28.986,0.57710165,-0.00973441,-0.02903475,-0.81609798
'00:09:32.294,0.060059,0.029297,1.005371,0.060976,0.975610,-0.548781,-4.468750,17.856251,19.800001,28.940,0.57710687,-0.00978123,-0.02903701,-0.81609364
'00:09:32.304,0.060547,0.028809,1.001953,-0.182927,0.792683,-0.548781,-4.468750,17.856251,19.800001,29.001,0.57711137,-0.00985810,-0.02903153,-0.81608973
'00:09:32.314,0.062500,0.028320,1.000000,0.304878,1.219512,-0.609756,-4.462500,17.856251,19.812500,28.940,0.57711325,-0.00989263,-0.02904561,-0.81608749
'00:09:32.324,0.061035,0.028320,1.001465,0.792683,1.768293,-0.609756,-4.462500,17.856251,19.812500,28.970,0.57711693,-0.00985440,-0.02905994,-0.81608484
'00:09:32.334,0.059082,0.030273,1.003906,0.914634,2.012195,-0.670732,-4.918750,18.537500,20.262501,29.001,0.57709894,-0.00975592,-0.02905232,-0.81609901
'00:09:32.344,0.057617,0.029297,1.005371,0.548781,1.585366,-0.609756,-4.918750,18.537500,20.262501,28.986,0.57708438,-0.00970342,-0.02902864,-0.81611078
'00:09:32.354,0.058594,0.028320,1.004883,0.121951,1.097561,-0.548781,-4.543750,18.062500,19.975000,28.970,0.57708897,-0.00973325,-0.02901625,-0.81610762
'00:09:32.364,0.059570,0.028320,1.002930,0.182927,1.097561,-0.609756,-4.543750,18.062500,19.975000,28.986,0.57708916,-0.00976534,-0.02901313,-0.81610721
'00:09:32.374,0.061035,0.029785,1.001465,0.548781,1.463415,-0.609756,-4.437500,17.850000,19.762501,28.986,0.57709375,-0.00975853,-0.02903681,-0.81610320
'00:09:32.384,0.058594,0.029297,1.001953,0.792683,1.768293,-0.609756,-4.437500,17.850000,19.762501,28.986,0.57709951,-0.00970587,-0.02904916,-0.81609932
'00:09:32.394,0.055664,0.031250,1.004883,0.487805,1.463415,-0.609756,-4.481250,17.862501,19.818750,28.955,0.57710096,-0.00966309,-0.02904993,-0.81609877
'00:09:32.404,0.061035,0.027832,1.000977,0.243902,1.219512,-0.548781,-4.431250,17.887501,19.806250,28.970,0.57711060,-0.00969984,-0.02905372,-0.81609138
'00:09:32.414,0.057617,0.031738,1.003906,0.426829,1.463415,-0.609756,-4.431250,17.887501,19.806250,28.970,0.57711592,-0.00967300,-0.02906585,-0.81608751
'00:09:32.424,0.060547,0.028320,1.004883,0.121951,1.036585,-0.609756,-4.718750,18.306250,20.118750,28.970,0.57710862,-0.00971090,-0.02905549,-0.81609259
'00:09:32.434,0.062012,0.028320,1.002441,0.060976,1.097561,-0.609756,-4.718750,18.306250,20.118750,29.001,0.57710132,-0.00975565,-0.02904465,-0.81609761
'00:09:32.444,0.060059,0.027832,1.001465,0.426829,1.402439,-0.548781,-4.756250,18.368750,20.068750,28.986,0.57709861,-0.00974954,-0.02903319,-0.81610000
'00:09:32.455,0.061523,0.028320,1.001953,0.853659,1.890244,-0.670732,-4.756250,18.368750,20.068750,28.940,0.57708773,-0.00968743,-0.02903654,-0.81610832
'00:09:32.464,0.055176,0.033691,1.007324,0.182927,1.158537,-0.609756,-4.487500,17.968750,19.887501,28.986,0.57708922,-0.00967162,-0.02904344,-0.81610721
'00:09:32.474,0.060547,0.028320,1.001953,0.182927,1.158537,-0.609756,-4.487500,17.968750,19.887501,29.001,0.57709179,-0.00970816,-0.02904377,-0.81610494
'00:09:32.484,0.058105,0.029785,1.004883,0.365854,1.341463,-0.609756,-4.493750,17.931250,19.825001,29.016,0.57709371,-0.00970036,-0.02904409,-0.81610366
'00:09:32.494,0.057617,0.030273,1.004395,0.060976,0.975610,-0.548781,-4.493750,17.931250,19.825001,28.955,0.57709871,-0.00972951,-0.02904212,-0.81609985
'00:09:32.504,0.060059,0.028320,1.001953,-0.121951,0.792683,-0.548781,-4.550000,17.981251,19.843750,28.970,0.57710043,-0.00979991,-0.02903253,-0.81609814
'00:09:32.514,0.061035,0.028320,1.000977,0.426829,1.402439,-0.609756,-4.550000,17.981251,19.843750,28.940,0.57709964,-0.00980379,-0.02903572,-0.81609853
'00:09:32.524,0.059082,0.030273,1.001465,0.853659,1.890244,-0.609756,-4.731250,18.356251,20.118750,28.986,0.57709484,-0.00972681,-0.02904165,-0.81610264
'00:09:32.534,0.058594,0.031250,1.004395,0.609756,1.585366,-0.609756,-4.731250,18.356251,20.118750,28.970,0.57708904,-0.00967772,-0.02904803,-0.81610710
'00:09:32.544,0.058594,0.031250,1.004395,0.609756,1.585366,-0.609756,-4.781250,18.400000,20.137501,28.970,0.57708086,-0.00962706,-0.02905156,-0.81611336
'00:09:32.554,0.060059,0.029785,1.003906,0.000000,0.914634,-0.548781,-4.781250,18.400000,20.137501,29.001,0.57707519,-0.00966986,-0.02904316,-0.81611716
'00:09:32.564,0.061523,0.028320,1.002441,-0.121951,0.853659,-0.548781,-4.587500,17.987501,19.912500,28.986,0.57707445,-0.00974295,-0.02903340,-0.81611716
'00:09:32.574,0.062012,0.028809,1.001465,0.487805,1.463415,-0.609756,-4.587500,17.987501,19.912500,28.955,0.57707118,-0.00974166,-0.02904160,-0.81611919
'00:09:32.584,0.059570,0.028320,1.005859,0.853659,1.890244,-0.670732,-4.493750,17.900000,19.893751,28.955,0.57706986,-0.00968356,-0.02904524,-0.81612069
'00:09:32.594,0.058594,0.029297,1.003906,0.670732,1.707317,-0.609756,-4.493750,17.900000,19.893751,28.970,0.57707218,-0.00963959,-0.02904757,-0.81611949
'00:09:32.604,0.058594,0.029785,1.003906,0.365854,1.341463,-0.548781,-4.443750,17.881250,19.825001,28.955,0.57708100,-0.00963859,-0.02905319,-0.81611306
'00:09:32.614,0.058594,0.030762,1.002930,0.243902,1.158537,-0.548781,-4.443750,17.881250,19.825001,28.955,0.57708900,-0.00965286,-0.02906531,-0.81610680
'00:09:32.624,0.058594,0.029785,1.002441,0.243902,1.219512,-0.548781,-4.587500,18.025000,19.881250,28.955,0.57709021,-0.00965964,-0.02906038,-0.81610605
'00:09:32.634,0.060059,0.028809,1.001465,0.426829,1.341463,-0.670732,-4.587500,18.025000,19.881250,28.986,0.57708334,-0.00966058,-0.02906316,-0.81611080
'00:09:32.645,0.060547,0.028320,1.002930,0.731707,1.707317,-0.609756,-4.687500,18.300001,20.050001,28.955,0.57708034,-0.00961863,-0.02906607,-0.81611330
'00:09:32.654,0.058594,0.029785,1.006836,0.426829,1.402439,-0.609756,-4.581250,18.150000,20.031250,28.986,0.57708050,-0.00960642,-0.02906620,-0.81611333
'00:09:32.664,0.060547,0.027832,1.003418,-0.060976,0.853659,-0.548781,-4.581250,18.150000,20.031250,28.955,0.57708355,-0.00967648,-0.02905719,-0.81611067
'00:09:32.674,0.060059,0.030273,1.001953,-0.060976,0.914634,-0.548781,-4.425000,17.893751,19.856251,29.001,0.57709208,-0.00973487,-0.02906498,-0.81610367
'00:09:32.684,0.061035,0.028809,1.000977,0.304878,1.280488,-0.609756,-4.425000,17.893751,19.856251,28.986,0.57709761,-0.00975956,-0.02907597,-0.81609907
'00:09:32.694,0.060547,0.030273,1.001953,0.670732,1.707317,-0.609756,-4.475000,17.931250,19.825001,28.970,0.57710161,-0.00972314,-0.02909431,-0.81609602
'00:09:32.704,0.059082,0.029297,1.005371,0.609756,1.585366,-0.609756,-4.475000,17.931250,19.825001,28.970,0.57710559,-0.00969399,-0.02910120,-0.81609331
'00:09:32.716,0.059082,0.029785,1.004883,0.243902,1.158537,-0.548781,-4.443750,17.975000,19.818750,28.955,0.57711763,-0.00971901,-0.02911165,-0.81608412
'00:09:32.724,0.059570,0.028809,1.002441,0.426829,1.402439,-0.609756,-4.443750,17.975000,19.818750,28.955,0.57712286,-0.00971982,-0.02911688,-0.81608023
'00:09:32.734,0.061035,0.028320,1.001465,0.853659,1.890244,-0.609756,-4.793750,18.393751,20.131250,28.940,0.57711494,-0.00965940,-0.02911432,-0.81608664
'00:09:32.745,0.054688,0.034180,1.008789,0.243902,1.219512,-0.548781,-4.793750,18.393751,20.131250,28.970,0.57710757,-0.00961411,-0.02910656,-0.81609266
'00:09:32.754,0.060547,0.028809,1.003418,-0.060976,0.975610,-0.548781,-4.681250,18.231251,20.068750,28.940,0.57710557,-0.00966093,-0.02909193,-0.81609404
'00:09:32.764,0.060547,0.028320,1.002930,0.243902,1.219512,-0.548781,-4.681250,18.231251,20.068750,28.955,0.57710426,-0.00968165,-0.02908267,-0.81609505
'00:09:32.774,0.061035,0.028320,1.004395,0.304878,1.280488,-0.548781,-4.431250,17.887501,19.787500,28.955,0.57711401,-0.00970778,-0.02908863,-0.81608764
'00:09:32.784,0.060547,0.027832,1.002441,0.609756,1.585366,-0.670732,-4.431250,17.887501,19.787500,28.986,0.57711614,-0.00969581,-0.02909683,-0.81608598
'00:09:32.794,0.059082,0.029297,1.004395,0.975610,2.012195,-0.670732,-4.493750,17.956251,19.875000,28.955,0.57711619,-0.00961759,-0.02910763,-0.81608649
'00:09:32.804,0.062012,0.028320,1.000488,0.000000,0.914634,-0.548781,-4.493750,17.956251,19.875000,28.970,0.57712147,-0.00968947,-0.02911187,-0.81608175
'00:09:32.814,0.059570,0.030273,1.003418,0.731707,1.768293,-0.609756,-4.425000,17.943750,19.825001,29.001,0.57712953,-0.00964413,-0.02913064,-0.81607592
'00:09:32.824,0.059570,0.028809,1.002930,-0.121951,0.853659,-0.548781,-4.425000,17.943750,19.825001,28.955,0.57713922,-0.00971379,-0.02912604,-0.81606840
'00:09:32.834,0.059570,0.029785,1.004883,-0.243902,0.731707,-0.548781,-4.693750,18.318750,20.068750,29.001,0.57713679,-0.00978135,-0.02911055,-0.81606987
'00:09:32.844,0.061035,0.028320,1.002441,-0.304878,0.670732,-0.487805,-4.693750,18.318750,20.068750,29.001,0.57713864,-0.00987005,-0.02909235,-0.81606814
'00:09:32.855,0.061523,0.027832,1.000488,0.182927,1.219512,-0.609756,-4.800000,18.381250,20.175001,29.001,0.57712626,-0.00989559,-0.02907282,-0.81607728
'00:09:32.864,0.061523,0.027832,1.001465,1.097561,2.195122,-0.670732,-4.800000,18.381250,20.175001,29.001,0.57711520,-0.00981196,-0.02907120,-0.81608617
'00:09:32.874,0.057617,0.030762,1.003906,1.280488,2.256098,-0.609756,-4.431250,17.912500,19.868750,28.986,0.57712350,-0.00968848,-0.02909838,-0.81608081
'00:09:32.884,0.055664,0.035156,1.007812,-0.060976,0.914634,-0.548781,-4.431250,17.912500,19.868750,28.970,0.57713087,-0.00969969,-0.02911337,-0.81607493
'00:09:32.894,0.059570,0.027832,1.004883,-0.548781,0.426829,-0.487805,-4.443750,17.875000,19.762501,28.970,0.57714102,-0.00982182,-0.02909067,-0.81606710
'00:09:32.904,0.062500,0.027344,1.000488,0.000000,0.914634,-0.487805,-4.443750,17.875000,19.762501,28.955,0.57715256,-0.00989922,-0.02909340,-0.81605790
'00:09:32.914,0.062500,0.027832,1.000000,0.731707,1.829268,-0.609756,-4.450000,17.887501,19.806250,28.970,0.57715773,-0.00987120,-0.02910478,-0.81605418
'00:09:32.924,0.059082,0.029785,1.001465,1.158537,2.317073,-0.670732,-4.737500,18.325001,20.062500,28.955,0.57714874,-0.00974811,-0.02910570,-0.81606199
'00:09:32.934,0.054199,0.034668,1.009277,0.548781,1.646341,-0.670732,-4.737500,18.325001,20.062500,28.970,0.57713690,-0.00965683,-0.02910234,-0.81607156
'00:09:32.944,0.064453,0.024902,0.998535,0.548781,1.585366,-0.609756,-4.756250,18.381250,20.118750,28.970,0.57713089,-0.00966956,-0.02909161,-0.81607605
'00:09:32.954,0.057617,0.031250,1.007812,-0.121951,0.792683,-0.487805,-4.756250,18.381250,20.118750,28.970,0.57712996,-0.00970742,-0.02907827,-0.81607673
'00:09:32.964,0.059570,0.029297,1.004883,0.609756,1.646341,-0.609756,-4.425000,17.968750,19.825001,28.940,0.57713838,-0.00968068,-0.02908928,-0.81607070
'00:09:32.974,0.058594,0.030273,1.003418,-0.243902,0.609756,-0.548781,-4.425000,17.968750,19.825001,29.001,0.57714762,-0.00976191,-0.02909381,-0.81606304
'00:09:32.984,0.060547,0.029297,1.002441,-0.426829,0.487805,-0.548781,-4.512500,17.987501,19.818750,28.986,0.57715060,-0.00986961,-0.02908733,-0.81605986
'00:09:32.994,0.063477,0.026367,0.998047,0.426829,1.463415,-0.609756,-4.512500,17.987501,19.818750,28.970,0.57715269,-0.00989251,-0.02908910,-0.81605805
'00:09:33.004,0.062500,0.026855,1.000000,2.073171,3.231707,-0.731707,-4.418750,17.856251,19.800001,29.001,0.57715565,-0.00970271,-0.02912164,-0.81605707
'00:09:33.014,0.056641,0.030762,1.007812,-0.975610,-0.243902,-0.304878,-4.418750,17.856251,19.800001,28.970,0.57717736,-0.00986641,-0.02910735,-0.81604026
'00:09:33.024,0.063965,0.026855,1.002441,1.585366,2.621951,-0.609756,-4.450000,17.906250,19.843750,29.001,0.57718564,-0.00975146,-0.02913886,-0.81603467
'00:09:33.034,0.064941,0.025391,1.000488,-0.609756,0.121951,-0.365854,-4.450000,17.906250,19.843750,28.970,0.57720339,-0.00993906,-0.02913566,-0.81601996
'00:09:33.044,0.061523,0.027832,1.003418,1.158537,2.134146,-0.670732,-4.781250,18.400000,20.156250,28.955,0.57719230,-0.00984728,-0.02914098,-0.81602873
'00:09:33.055,0.061523,0.027344,1.002441,-0.243902,0.548781,-0.426829,-4.781250,18.400000,20.156250,28.986,0.57719375,-0.00995264,-0.02912212,-0.81602710
'00:09:33.064,0.061523,0.027832,1.000000,0.548781,1.524390,-0.548781,-4.731250,18.337500,20.156250,28.940,0.57719149,-0.00993957,-0.02911893,-0.81602897
'00:09:33.074,0.058594,0.031250,1.003906,0.609756,1.646341,-0.609756,-4.731250,18.337500,20.156250,28.986,0.57718443,-0.00988234,-0.02911993,-0.81603462
'00:09:33.084,0.061523,0.025879,1.001465,0.304878,1.219512,-0.609756,-4.425000,17.943750,19.812500,28.970,0.57719103,-0.00992383,-0.02911839,-0.81602950
'00:09:33.096,0.055176,0.032227,1.007324,0.304878,1.280488,-0.609756,-4.425000,17.943750,19.812500,28.940,0.57719780,-0.00989131,-0.02912333,-0.81602493
'00:09:33.104,0.059570,0.029785,1.003906,0.609756,1.646341,-0.609756,-4.525000,17.937500,19.818750,28.986,0.57719779,-0.00986050,-0.02912677,-0.81602519
'00:09:33.114,0.061035,0.027344,1.000488,0.182927,1.158537,-0.609756,-4.525000,17.937500,19.818750,28.955,0.57719666,-0.00989766,-0.02911843,-0.81602584
'00:09:33.124,0.056641,0.031250,1.004883,0.365854,1.280488,-0.609756,-4.443750,17.881250,19.768751,28.986,0.57719998,-0.00987870,-0.02912539,-0.81602347
'00:09:33.134,0.058105,0.030762,1.002930,-0.182927,0.853659,-0.548781,-4.443750,17.881250,19.768751,28.955,0.57720612,-0.00992894,-0.02911855,-0.81601876
'00:09:33.144,0.061035,0.028809,1.001465,-0.304878,0.670732,-0.548781,-4.643750,18.200001,20.050001,28.955,0.57720387,-0.01001476,-0.02910416,-0.81601982
'00:09:33.154,0.062988,0.025879,1.000000,0.609756,1.585366,-0.609756,-4.643750,18.200001,20.050001,28.955,0.57720081,-0.01001114,-0.02910058,-0.81602216
'00:09:33.164,0.062500,0.027344,1.004395,1.585366,2.621951,-0.731707,-4.800000,18.412500,20.168751,28.970,0.57718599,-0.00986815,-0.02911181,-0.81603398
'00:09:33.175,0.058105,0.032227,1.008789,-0.548781,0.243902,-0.365854,-4.425000,17.881250,19.768751,28.986,0.57720626,-0.00998548,-0.02911790,-0.81601800
'00:09:33.184,0.061035,0.028320,1.001953,0.365854,1.280488,-0.609756,-4.425000,17.881250,19.768751,28.970,0.57721063,-0.01000220,-0.02912713,-0.81601437
'00:09:33.194,0.059570,0.030273,1.001953,0.792683,1.829268,-0.609756,-4.412500,17.875000,19.837500,29.001,0.57721729,-0.00994446,-0.02914610,-0.81600969
'00:09:33.204,0.058105,0.030762,1.002441,0.487805,1.463415,-0.609756,-4.412500,17.875000,19.837500,29.001,0.57722277,-0.00991841,-0.02915822,-0.81600570
'00:09:33.214,0.060059,0.029297,0.999512,0.182927,1.158537,-0.548781,-4.450000,17.931250,19.843750,28.970,0.57723033,-0.00994617,-0.02916262,-0.81599985
'00:09:33.224,0.061523,0.027832,1.001953,0.670732,1.707317,-0.609756,-4.450000,17.931250,19.843750,28.940,0.57723556,-0.00992350,-0.02917040,-0.81599615
'00:09:33.234,0.059082,0.029785,1.008301,0.000000,0.975610,-0.548781,-4.656250,18.162500,19.987501,28.970,0.57723268,-0.00995444,-0.02915477,-0.81599837
'00:09:33.244,0.058105,0.031250,1.006836,0.670732,1.646341,-0.670732,-4.656250,18.162500,19.987501,28.940,0.57722308,-0.00989206,-0.02915848,-0.81600579
'00:09:33.254,0.061035,0.026855,1.000488,0.304878,1.341463,-0.548781,-4.937500,18.637501,20.350000,28.955,0.57721220,-0.00989667,-0.02912960,-0.81601446
'00:09:33.264,0.059082,0.030762,1.004395,0.182927,1.219512,-0.548781,-4.937500,18.637501,20.350000,28.955,0.57720024,-0.00988903,-0.02911134,-0.81602367
'00:09:33.274,0.057617,0.030273,1.002441,0.426829,1.463415,-0.670732,-4.481250,17.925001,19.837500,28.986,0.57719795,-0.00986246,-0.02911072,-0.81602563
'00:09:33.284,0.057617,0.030273,1.002441,0.426829,1.463415,-0.670732,-4.481250,17.925001,19.837500,28.986,0.57719571,-0.00983631,-0.02911017,-0.81602754
'00:09:33.294,0.059082,0.030762,1.003906,0.304878,1.280488,-0.609756,-4.456250,17.925001,19.818750,28.970,0.57719898,-0.00983745,-0.02912038,-0.81602485
'00:09:33.304,0.059082,0.030762,1.003906,0.304878,1.280488,-0.609756,-4.456250,17.925001,19.818750,28.970,0.57720222,-0.00983855,-0.02913040,-0.81602219
'00:09:33.314,0.060547,0.026855,1.005859,0.426829,1.341463,-0.609756,-4.443750,17.906250,19.843750,28.970,0.57720684,-0.00985374,-0.02912878,-0.81601880
'00:09:33.324,0.059570,0.028809,1.005859,0.304878,1.280488,-0.609756,-4.443750,17.906250,19.843750,28.986,0.57721079,-0.00986559,-0.02912893,-0.81601585
'00:09:33.334,0.060059,0.030273,1.004395,0.243902,1.280488,-0.548781,-4.431250,17.943750,19.843750,28.970,0.57722034,-0.00987877,-0.02913759,-0.81600863
'00:09:33.344,0.059570,0.029785,1.003906,0.060976,1.036585,-0.548781,-4.431250,17.943750,19.843750,28.955,0.57722917,-0.00991762,-0.02914070,-0.81600180
'00:09:33.354,0.060547,0.030273,1.000000,-0.304878,0.670732,-0.548781,-4.875000,18.600000,20.200001,28.986,0.57721917,-0.00998689,-0.02912402,-0.81600863
'00:09:33.364,0.059570,0.029297,1.000488,-0.365854,0.609756,-0.487805,-4.875000,18.600000,20.200001,28.970,0.57721346,-0.01006115,-0.02909669,-0.81601273
'00:09:33.375,0.061035,0.028809,1.000977,-0.121951,0.792683,-0.487805,-4.587500,18.087500,19.956251,28.940,0.57721795,-0.01013592,-0.02909097,-0.81600883
'00:09:33.384,0.062012,0.026855,1.001465,0.731707,1.646341,-0.609756,-4.587500,18.087500,19.956251,28.970,0.57721666,-0.01011443,-0.02909557,-0.81600985
'00:09:33.394,0.061035,0.028320,1.004395,1.585366,2.682927,-0.731707,-4.468750,17.862501,19.893751,28.955,0.57721323,-0.00996630,-0.02911699,-0.81601333
'00:09:33.404,0.056152,0.032227,1.010742,1.341463,2.500000,-0.731707,-4.468750,17.862501,19.893751,28.955,0.57720876,-0.00980040,-0.02913045,-0.81601802
'00:09:33.415,0.062012,0.027832,1.000977,-0.609756,0.243902,-0.487805,-4.412500,17.900000,19.787500,28.970,0.57722156,-0.00996918,-0.02912594,-0.81600709
'00:09:33.424,0.060547,0.028320,1.000000,-0.182927,0.731707,-0.487805,-4.412500,17.900000,19.787500,28.986,0.57723312,-0.01004525,-0.02912482,-0.81599801
'00:09:33.434,0.060547,0.029297,1.000000,0.000000,0.975610,-0.548781,-4.612500,18.118750,19.937500,28.940,0.57723231,-0.01008834,-0.02911870,-0.81599827
'00:09:33.444,0.062012,0.028809,0.999512,0.304878,1.341463,-0.548781,-4.681250,18.262501,20.062500,28.955,0.57723064,-0.01009763,-0.02911677,-0.81599941
'00:09:33.455,0.061035,0.028809,1.000000,0.914634,1.951220,-0.609756,-4.681250,18.262501,20.062500,28.986,0.57722635,-0.01001996,-0.02912418,-0.81600314
'00:09:33.465,0.061035,0.028320,1.003418,1.524390,2.621951,-0.731707,-4.862500,18.531250,20.237501,29.001,0.57720935,-0.00986604,-0.02912857,-0.81601689
'00:09:33.474,0.051270,0.036133,1.012695,-0.182927,0.853659,-0.548781,-4.862500,18.531250,20.237501,28.970,0.57719941,-0.00984226,-0.02910484,-0.81602505
'00:09:33.484,0.061035,0.027832,1.004395,1.097561,2.195122,-0.731707,-4.462500,17.931250,19.843750,28.986,0.57719713,-0.00976082,-0.02911585,-0.81602725
'00:09:33.497,0.066406,0.021973,0.997070,0.121951,0.853659,-0.487805,-4.462500,17.931250,19.843750,28.970,0.57721248,-0.00991751,-0.02911520,-0.81601452
'00:09:33.504,0.055176,0.035645,1.008301,0.121951,0.975610,-0.548781,-4.443750,17.937500,19.806250,28.970,0.57721722,-0.00990939,-0.02913213,-0.81601066
'00:09:33.514,0.057617,0.030762,1.005859,0.731707,1.768293,-0.670732,-4.443750,17.937500,19.806250,28.986,0.57721881,-0.00984513,-0.02914220,-0.81600996
'00:09:33.524,0.062988,0.024902,0.998047,0.426829,1.402439,-0.548781,-4.406250,17.906250,19.856251,28.955,0.57723063,-0.00988217,-0.02914177,-0.81600116
'00:09:33.536,0.059570,0.029297,1.001953,0.121951,1.097561,-0.487805,-4.406250,17.906250,19.856251,29.001,0.57724779,-0.00992430,-0.02914573,-0.81598838
'00:09:33.544,0.055176,0.032227,1.005371,0.426829,1.463415,-0.548781,-4.575000,18.125000,19.956251,28.986,0.57725033,-0.00988240,-0.02914217,-0.81598721
'00:09:33.554,0.059570,0.030273,1.002441,0.487805,1.524390,-0.609756,-4.575000,18.125000,19.956251,29.001,0.57724970,-0.00985664,-0.02914683,-0.81598780
'00:09:33.564,0.061035,0.028809,1.000000,0.243902,1.341463,-0.548781,-4.793750,18.356251,20.256250,28.986,0.57724207,-0.00986180,-0.02912941,-0.81599376
'00:09:33.576,0.061035,0.028320,1.003418,0.182927,1.158537,-0.548781,-4.793750,18.356251,20.256250,29.001,0.57723251,-0.00988871,-0.02910973,-0.81600090
'00:09:33.584,0.060059,0.029297,1.004883,0.365854,1.341463,-0.609756,-4.450000,18.050001,19.881250,28.986,0.57723769,-0.00989379,-0.02911728,-0.81599690
'00:09:33.594,0.059570,0.028320,1.004883,0.487805,1.463415,-0.609756,-4.450000,18.050001,19.881250,28.970,0.57724478,-0.00988647,-0.02912145,-0.81599182
'00:09:33.604,0.061035,0.027832,1.002930,0.365854,1.341463,-0.609756,-4.437500,17.925001,19.881250,28.955,0.57724958,-0.00990403,-0.02912508,-0.81598809
'00:09:33.617,0.059082,0.028809,1.002441,0.365854,1.280488,-0.548781,-4.437500,17.925001,19.881250,28.970,0.57726102,-0.00991277,-0.02913091,-0.81597968
'00:09:33.624,0.057617,0.029785,1.002930,0.365854,1.341463,-0.548781,-4.487500,17.906250,19.875000,29.001,0.57726441,-0.00990313,-0.02912839,-0.81597749
'00:09:33.634,0.057617,0.030273,1.001953,0.365854,1.280488,-0.548781,-4.487500,17.906250,19.875000,28.970,0.57726899,-0.00989202,-0.02913117,-0.81597429
'00:09:33.644,0.059082,0.029785,1.000488,0.304878,1.341463,-0.609756,-4.418750,17.925001,19.925001,28.970,0.57727441,-0.00989511,-0.02913607,-0.81597024
'00:09:33.655,0.059570,0.030273,1.001953,0.243902,1.280488,-0.609756,-4.418750,17.925001,19.925001,28.970,0.57727997,-0.00990707,-0.02914463,-0.81596585
'00:09:33.664,0.061523,0.027832,1.003906,0.365854,1.341463,-0.548781,-4.912500,18.562500,20.231251,29.001,0.57727032,-0.00990654,-0.02912843,-0.81597327
'00:09:33.674,0.061035,0.028320,1.004883,0.426829,1.402439,-0.609756,-4.912500,18.562500,20.231251,28.986,0.57725545,-0.00989364,-0.02911249,-0.81598451
'00:09:33.684,0.061523,0.028809,1.004883,0.426829,1.341463,-0.548781,-4.581250,18.075001,19.893751,28.955,0.57725764,-0.00989915,-0.02911937,-0.81598265
'00:09:33.696,0.059082,0.028809,1.003906,0.365854,1.280488,-0.609756,-4.437500,17.875000,19.850000,28.970,0.57726184,-0.00990584,-0.02912292,-0.81597947
'00:09:33.704,0.059082,0.029785,1.001953,0.365854,1.341463,-0.609756,-4.437500,17.875000,19.850000,28.970,0.57726455,-0.00990383,-0.02912798,-0.81597740
'00:09:33.714,0.059082,0.029297,1.001465,0.304878,1.280488,-0.609756,-4.425000,17.912500,19.787500,28.940,0.57726979,-0.00991200,-0.02913229,-0.81597344
'00:09:33.724,0.058105,0.030273,1.001465,0.243902,1.158537,-0.609756,-4.425000,17.912500,19.787500,28.986,0.57727447,-0.00992213,-0.02914003,-0.81596973
'00:09:33.736,0.059082,0.030762,1.003418,0.304878,1.280488,-0.548781,-4.437500,17.925001,19.775000,28.986,0.57728483,-0.00992314,-0.02915324,-0.81596191
'00:09:33.744,0.061035,0.028809,1.004883,0.670732,1.707317,-0.609756,-4.437500,17.925001,19.775000,28.940,0.57728962,-0.00989963,-0.02916229,-0.81595849
'00:09:33.754,0.062500,0.027344,1.002930,0.304878,1.280488,-0.548781,-4.818750,18.468750,20.206251,29.001,0.57728293,-0.00991831,-0.02914900,-0.81596347
'00:09:33.764,0.060059,0.029297,1.004395,0.243902,1.280488,-0.609756,-4.818750,18.468750,20.206251,28.970,0.57727152,-0.00991811,-0.02913241,-0.81597213
'00:09:33.778,0.058105,0.029297,1.002441,0.426829,1.402439,-0.609756,-4.762500,18.387501,20.187500,28.970,0.57725924,-0.00988136,-0.02911283,-0.81598197
'00:09:33.784,0.061523,0.029297,1.001465,0.243902,1.280488,-0.548781,-4.762500,18.387501,20.187500,28.986,0.57725631,-0.00988836,-0.02910893,-0.81598409
'00:09:33.794,0.059570,0.030273,1.004395,0.243902,1.158537,-0.548781,-4.468750,17.993750,19.812500,28.986,0.57726403,-0.00990517,-0.02912008,-0.81597803
'00:09:33.804,0.061035,0.029785,1.004395,0.060976,1.036585,-0.548781,-4.468750,17.993750,19.812500,28.970,0.57727122,-0.00994981,-0.02912718,-0.81597215
'00:09:33.816,0.061035,0.028320,1.002930,0.182927,1.219512,-0.609756,-4.487500,17.925001,19.806250,28.970,0.57727220,-0.00998443,-0.02912181,-0.81597122
'00:09:33.824,0.060059,0.028809,1.001953,0.731707,1.829268,-0.670732,-4.487500,17.925001,19.806250,28.970,0.57727090,-0.00994433,-0.02912441,-0.81597254
'00:09:33.834,0.055664,0.033203,1.008789,0.487805,1.524390,-0.670732,-4.468750,17.956251,19.918751,28.970,0.57726917,-0.00988598,-0.02913247,-0.81597419
'00:09:33.844,0.061035,0.025879,1.001465,0.243902,1.219512,-0.609756,-4.468750,17.956251,19.918751,28.955,0.57727219,-0.00992514,-0.02912062,-0.81597199
'00:09:33.856,0.056641,0.031250,1.004395,0.609756,1.707317,-0.609756,-4.768750,18.362501,20.112501,28.986,0.57726156,-0.00983573,-0.02910566,-0.81598114
'00:09:33.864,0.060547,0.030273,1.000977,-0.060976,0.914634,-0.487805,-4.768750,18.362501,20.112501,28.970,0.57725957,-0.00987075,-0.02909879,-0.81598236
'00:09:33.874,0.061035,0.030273,1.002930,0.060976,1.097561,-0.548781,-4.843750,18.350000,20.156250,28.940,0.57724787,-0.00989250,-0.02908488,-0.81599087
'00:09:33.884,0.061523,0.027344,1.004883,0.365854,1.402439,-0.609756,-4.843750,18.350000,20.156250,28.970,0.57723351,-0.00989072,-0.02906224,-0.81600186
'00:09:33.896,0.062012,0.027344,1.002930,0.975610,1.951220,-0.670732,-4.587500,18.031250,19.875000,29.001,0.57722711,-0.00982175,-0.02907327,-0.81600683
'00:09:33.904,0.057617,0.031250,1.007324,0.060976,1.036585,-0.548781,-4.587500,18.031250,19.875000,28.970,0.57722690,-0.00983258,-0.02906768,-0.81600705
'00:09:33.914,0.058594,0.029785,1.003418,0.792683,1.829268,-0.670732,-4.481250,17.875000,19.806250,28.955,0.57722504,-0.00976911,-0.02907509,-0.81600886
'00:09:33.924,0.062500,0.025391,0.999023,0.243902,1.097561,-0.548781,-4.481250,17.875000,19.806250,28.970,0.57723037,-0.00982774,-0.02907226,-0.81600449
'00:09:33.936,0.056641,0.031250,1.004395,0.243902,1.158537,-0.609756,-4.437500,17.856251,19.812500,28.986,0.57723362,-0.00982431,-0.02907853,-0.81600200
'00:09:33.944,0.060059,0.030762,1.000977,0.121951,1.097561,-0.609756,-4.437500,17.856251,19.812500,29.016,0.57723550,-0.00984827,-0.02908813,-0.81600004
'00:09:33.954,0.060059,0.031738,1.002441,-0.182927,0.853659,-0.548781,-4.706250,18.275000,20.081251,28.970,0.57723063,-0.00989584,-0.02908301,-0.81600309
'00:09:33.964,0.062500,0.027344,1.000488,0.182927,1.219512,-0.548781,-4.706250,18.275000,20.081251,28.970,0.57722779,-0.00993003,-0.02907099,-0.81600512
'00:09:33.978,0.061523,0.026855,1.002441,1.280488,2.378049,-0.670732,-4.643750,18.206251,20.025000,28.970,0.57722140,-0.00978266,-0.02907643,-0.81601122
'00:09:33.984,0.051270,0.035156,1.011719,-0.304878,0.609756,-0.487805,-4.662500,18.175001,20.081251,28.955,0.57722096,-0.00978751,-0.02906467,-0.81601189
'00:09:33.994,0.061035,0.026367,1.003906,0.914634,2.012195,-0.670732,-4.662500,18.175001,20.081251,28.986,0.57721340,-0.00972643,-0.02905366,-0.81601837
'00:09:34.004,0.059082,0.027832,1.004883,-0.243902,0.609756,-0.487805,-4.437500,17.912500,19.850000,28.970,0.57722500,-0.00981802,-0.02904324,-0.81600943
'00:09:34.017,0.058105,0.029785,1.004395,0.853659,1.829268,-0.670732,-4.437500,17.912500,19.850000,28.986,0.57722765,-0.00973242,-0.02906148,-0.81600794
'00:09:34.024,0.061035,0.029297,1.000488,-0.121951,0.731707,-0.548781,-4.512500,17.956251,19.800001,28.970,0.57722980,-0.00978704,-0.02906524,-0.81600563
'00:09:34.034,0.061035,0.029297,1.000488,-0.121951,0.731707,-0.548781,-4.512500,17.956251,19.800001,28.970,0.57723274,-0.00986419,-0.02907045,-0.81600243
'00:09:34.044,0.058594,0.032227,0.999512,-0.060976,0.914634,-0.548781,-4.450000,17.887501,19.850000,29.001,0.57723813,-0.00990143,-0.02908150,-0.81599777
'00:09:34.056,0.060059,0.029785,1.002930,-0.060976,0.975610,-0.548781,-4.450000,17.887501,19.850000,28.986,0.57724526,-0.00996151,-0.02907905,-0.81599208
'00:09:34.064,0.062012,0.025879,1.002441,0.548781,1.646341,-0.548781,-4.731250,18.312500,20.112501,28.986,0.57724346,-0.00995040,-0.02906325,-0.81599406
'00:09:34.074,0.062012,0.026855,1.003418,1.585366,2.682927,-0.731707,-4.731250,18.312500,20.112501,28.970,0.57723157,-0.00980621,-0.02907069,-0.81600395
'00:09:34.084,0.059082,0.030762,1.006836,-0.670732,0.243902,-0.426829,-4.950000,18.562500,20.275000,28.986,0.57722318,-0.00991035,-0.02903838,-0.81600978
'00:09:34.095,0.062988,0.025879,1.001465,1.036585,2.073171,-0.609756,-4.950000,18.562500,20.275000,28.986,0.57720722,-0.00983105,-0.02902499,-0.81602251
'00:09:34.105,0.059570,0.028320,1.000977,0.609756,1.646341,-0.609756,-4.487500,17.975000,19.775000,28.955,0.57721139,-0.00980302,-0.02902765,-0.81601980
'00:09:34.114,0.059570,0.028320,1.000977,0.609756,1.646341,-0.609756,-4.487500,17.975000,19.775000,28.955,0.57721517,-0.00977816,-0.02903003,-0.81601733
'00:09:34.124,0.055664,0.032715,1.005859,0.243902,1.219512,-0.609756,-4.468750,17.900000,19.837500,29.016,0.57721665,-0.00975861,-0.02903544,-0.81601633
'00:09:34.136,0.060059,0.030273,1.002441,0.000000,1.036585,-0.548781,-4.468750,17.900000,19.837500,29.001,0.57722323,-0.00980910,-0.02903807,-0.81601098
'00:09:34.144,0.060547,0.028809,1.003418,0.548781,1.646341,-0.609756,-4.450000,17.943750,19.800001,28.925,0.57722786,-0.00979338,-0.02904292,-0.81600772
'00:09:34.154,0.057129,0.031250,1.008789,0.609756,1.646341,-0.609756,-4.450000,17.943750,19.800001,28.970,0.57723338,-0.00974036,-0.02905139,-0.81600414
'00:09:34.164,0.062988,0.026367,1.000977,0.365854,1.341463,-0.548781,-4.687500,18.212500,20.062500,28.986,0.57723151,-0.00976597,-0.02904326,-0.81600546
'00:09:34.174,0.056152,0.032227,1.005371,0.243902,1.219512,-0.548781,-4.687500,18.212500,20.062500,29.001,0.57722820,-0.00974311,-0.02903707,-0.81600829
'00:09:34.184,0.061523,0.027832,1.001465,0.182927,1.219512,-0.609756,-4.693750,18.312500,20.093750,28.986,0.57722293,-0.00977324,-0.02902639,-0.81601203
'00:09:34.194,0.060547,0.028320,1.002441,0.487805,1.402439,-0.609756,-4.693750,18.312500,20.093750,29.001,0.57721832,-0.00976699,-0.02902684,-0.81601536
'00:09:34.204,0.058594,0.030762,1.006348,0.243902,1.158537,-0.609756,-4.418750,17.881250,19.875000,29.001,0.57722293,-0.00977970,-0.02903923,-0.81601150
'00:09:34.217,0.058594,0.030762,1.004395,-0.426829,0.548781,-0.548781,-4.450000,17.918751,19.750000,29.016,0.57723060,-0.00989458,-0.02903203,-0.81600495
'00:09:34.224,0.059082,0.030273,1.003418,-0.609756,0.304878,-0.487805,-4.450000,17.918751,19.750000,28.970,0.57723711,-0.00997740,-0.02902720,-0.81599950
'00:09:34.234,0.062500,0.027832,1.000977,-0.182927,0.853659,-0.548781,-4.525000,17.868750,19.906250,29.001,0.57723700,-0.01005862,-0.02901620,-0.81599897
'00:09:34.244,0.062988,0.026367,1.000000,1.036585,2.134146,-0.609756,-4.525000,17.868750,19.906250,28.970,0.57723701,-0.00999498,-0.02902147,-0.81599956
'00:09:34.256,0.060059,0.028320,1.004395,1.829268,2.926829,-0.731707,-4.787500,18.393751,20.162500,28.955,0.57722084,-0.00976279,-0.02903444,-0.81601335
'00:09:34.264,0.055176,0.035156,1.010742,0.853659,1.890244,-0.670732,-4.787500,18.393751,20.162500,28.970,0.57721007,-0.00966452,-0.02904282,-0.81602184
'00:09:34.274,0.062500,0.028809,1.001465,-0.548781,0.365854,-0.548781,-4.581250,18.050001,19.925001,28.986,0.57720892,-0.00979835,-0.02903578,-0.81602131
'00:09:34.284,0.061523,0.029297,1.000977,-0.121951,0.853659,-0.548781,-4.581250,18.050001,19.925001,28.970,0.57720905,-0.00986661,-0.02903356,-0.81602047
'00:09:34.294,0.060547,0.029785,1.005859,-0.121951,0.853659,-0.548781,-4.537500,18.031250,19.887501,29.001,0.57721181,-0.00992767,-0.02903123,-0.81601787
'00:09:34.304,0.059570,0.030762,0.999023,-0.182927,0.792683,-0.487805,-4.537500,18.031250,19.887501,28.986,0.57721833,-0.00998728,-0.02903205,-0.81601249
'00:09:34.314,0.061523,0.028320,1.002930,0.121951,1.158537,-0.548781,-4.500000,17.900000,19.893751,28.970,0.57722174,-0.01002536,-0.02902817,-0.81600976
'00:09:34.324,0.061035,0.027832,1.001953,0.548781,1.524390,-0.609756,-4.500000,17.900000,19.893751,29.001,0.57722214,-0.01001465,-0.02903186,-0.81600947
'00:09:34.334,0.061523,0.028809,1.001953,1.158537,2.256098,-0.670732,-4.412500,17.900000,19.818750,28.986,0.57722682,-0.00992537,-0.02905694,-0.81600636
'00:09:34.344,0.058594,0.030273,1.004883,1.341463,2.439024,-0.670732,-4.412500,17.900000,19.818750,28.955,0.57723209,-0.00979187,-0.02908100,-0.81600339
'00:09:34.354,0.056152,0.032715,1.006836,0.609756,1.707317,-0.609756,-4.506250,17.950001,19.912500,28.986,0.57723308,-0.00971995,-0.02908646,-0.81600335
'00:09:34.364,0.057617,0.029297,1.004883,-0.304878,0.670732,-0.548781,-4.506250,17.950001,19.912500,29.046,0.57723582,-0.00979196,-0.02906589,-0.81600129
'00:09:34.376,0.060059,0.028320,1.002441,-0.670732,0.243902,-0.487805,-4.731250,18.337500,20.125000,28.970,0.57723329,-0.00994767,-0.02903134,-0.81600242
'00:09:34.384,0.061035,0.026855,1.000977,-0.243902,0.670732,-0.487805,-4.731250,18.337500,20.125000,28.986,0.57723280,-0.01001749,-0.02901256,-0.81600258
'00:09:34.394,0.062500,0.026855,1.002441,0.182927,1.097561,-0.548781,-4.506250,17.950001,19.850000,28.970,0.57723715,-0.01006802,-0.02901272,-0.81599888
'00:09:34.404,0.061523,0.028320,1.003906,0.243902,1.219512,-0.609756,-4.506250,17.950001,19.850000,29.016,0.57723716,-0.01009404,-0.02901496,-0.81599847
'00:09:34.414,0.061035,0.028320,1.003418,0.121951,1.158537,-0.548781,-4.437500,17.912500,19.893751,28.940,0.57724501,-0.01013174,-0.02901419,-0.81599248
'00:09:34.424,0.062012,0.028320,1.000000,0.487805,1.402439,-0.548781,-4.437500,17.912500,19.893751,28.986,0.57725362,-0.01013938,-0.02903247,-0.81598564
'00:09:34.435,0.059570,0.028809,1.002441,0.975610,2.073171,-0.670732,-4.418750,17.912500,19.868750,28.970,0.57725742,-0.01005092,-0.02904617,-0.81598356
'00:09:34.444,0.057129,0.028320,1.005859,0.853659,1.890244,-0.609756,-4.418750,17.912500,19.868750,28.970,0.57726429,-0.00998573,-0.02904493,-0.81597955
'00:09:34.454,0.057617,0.030273,1.004883,0.060976,0.975610,-0.548781,-4.443750,17.887501,19.837500,28.970,0.57727068,-0.01001233,-0.02904458,-0.81597471
'00:09:34.464,0.059570,0.030273,1.003418,-0.670732,0.243902,-0.487805,-4.443750,17.887501,19.837500,28.986,0.57727874,-0.01013898,-0.02903744,-0.81596770
'00:09:34.474,0.062012,0.027832,1.002441,-0.548781,0.426829,-0.487805,-4.556250,18.100000,20.018751,28.970,0.57728361,-0.01026461,-0.02902117,-0.81596326
'00:09:34.484,0.063477,0.027832,1.001465,0.426829,1.341463,-0.609756,-4.556250,18.100000,20.018751,28.970,0.57728268,-0.01028226,-0.02903470,-0.81596321
'00:09:34.494,0.061523,0.029785,1.002441,1.036585,2.134146,-0.609756,-4.950000,18.600000,20.325001,28.986,0.57726733,-0.01017704,-0.02903505,-0.81597538
'00:09:34.504,0.059570,0.030762,1.004883,0.853659,1.890244,-0.609756,-4.456250,17.943750,19.931250,28.986,0.57727181,-0.01010480,-0.02905576,-0.81597237
'00:09:34.514,0.059570,0.029297,1.004883,0.000000,1.036585,-0.609756,-4.456250,17.943750,19.931250,28.970,0.57727379,-0.01014341,-0.02904993,-0.81597070
'00:09:34.524,0.061035,0.026855,1.002441,-0.121951,0.914634,-0.548781,-4.468750,17.887501,19.881250,28.970,0.57727814,-0.01021367,-0.02903211,-0.81596738
'00:09:34.534,0.061523,0.026367,1.000488,0.853659,1.890244,-0.670732,-4.468750,17.887501,19.881250,29.001,0.57727711,-0.01016928,-0.02903479,-0.81596857
'00:09:34.545,0.060547,0.029785,1.002930,1.402439,2.439024,-0.731707,-4.531250,17.918751,19.856251,29.001,0.57726869,-0.01002151,-0.02906221,-0.81597538
'00:09:34.554,0.057129,0.032715,1.004883,0.731707,1.768293,-0.609756,-4.531250,17.918751,19.856251,28.986,0.57726733,-0.00994756,-0.02907395,-0.81597683
'00:09:34.564,0.058105,0.030762,1.003906,-0.182927,0.853659,-0.548781,-4.662500,18.218750,19.993750,28.986,0.57726458,-0.00998795,-0.02905714,-0.81597888
'00:09:34.574,0.060059,0.028320,1.002930,-0.365854,0.609756,-0.487805,-4.662500,18.218750,19.993750,28.970,0.57726580,-0.01007549,-0.02903402,-0.81597776
'00:09:34.584,0.061035,0.027832,1.002441,0.060976,1.036585,-0.548781,-4.825000,18.431250,20.175001,29.001,0.57725710,-0.01011060,-0.02901349,-0.81598421
'00:09:34.594,0.061523,0.027344,1.001953,0.670732,1.585366,-0.609756,-4.825000,18.431250,20.175001,28.955,0.57724607,-0.01008011,-0.02900845,-0.81599257
'00:09:34.604,0.059570,0.028809,1.002930,0.853659,1.890244,-0.609756,-4.587500,18.056250,19.918751,28.970,0.57724468,-0.01001121,-0.02901156,-0.81599429
'00:09:34.614,0.060547,0.028320,1.004395,0.670732,1.707317,-0.609756,-4.587500,18.056250,19.918751,29.001,0.57724287,-0.00997273,-0.02901147,-0.81599605
'00:09:34.625,0.059570,0.029785,1.002930,0.487805,1.463415,-0.609756,-4.537500,17.931250,19.825001,28.970,0.57724098,-0.00994941,-0.02901770,-0.81599744
'00:09:34.634,0.058594,0.029785,1.004883,0.365854,1.402439,-0.609756,-4.537500,17.931250,19.825001,28.940,0.57723929,-0.00993473,-0.02901344,-0.81599897
'00:09:34.644,0.060059,0.028320,1.005371,0.182927,1.219512,-0.548781,-4.475000,17.887501,19.806250,28.986,0.57724490,-0.00995856,-0.02900616,-0.81599497
'00:09:34.654,0.061035,0.028809,1.003906,0.121951,1.097561,-0.548781,-4.475000,17.887501,19.806250,28.970,0.57724993,-0.00999758,-0.02900812,-0.81599087
'00:09:34.664,0.060059,0.028809,1.002441,0.060976,1.036585,-0.548781,-4.456250,17.893751,19.843750,29.001,0.57725598,-0.01003958,-0.02900689,-0.81598611
'00:09:34.674,0.060547,0.028809,1.001465,0.121951,1.097561,-0.609756,-4.456250,17.893751,19.843750,28.970,0.57725778,-0.01007632,-0.02900928,-0.81598430
'00:09:34.684,0.061035,0.026855,1.001953,0.548781,1.524390,-0.609756,-4.762500,18.337500,20.156250,28.970,0.57724886,-0.01005862,-0.02899659,-0.81599128
'00:09:34.698,0.060547,0.027344,1.002930,0.914634,2.012195,-0.670732,-4.637500,18.168751,19.993750,28.986,0.57724005,-0.00995998,-0.02899046,-0.81599895
'00:09:34.705,0.059570,0.028320,1.004883,0.914634,2.012195,-0.670732,-4.637500,18.168751,19.993750,28.955,0.57723568,-0.00990483,-0.02898824,-0.81600278
'00:09:34.714,0.059082,0.031250,1.004883,0.548781,1.585366,-0.609756,-4.637500,18.168751,19.993750,28.986,0.57723227,-0.00986558,-0.02899470,-0.81600544
'00:09:34.724,0.058594,0.029297,1.004883,0.121951,1.158537,-0.548781,-4.387500,17.937500,19.850000,28.940,0.57724483,-0.00989213,-0.02899455,-0.81599624
'00:09:34.734,0.060059,0.030762,1.003418,-0.121951,0.914634,-0.548781,-4.387500,17.937500,19.850000,29.001,0.57725603,-0.00995041,-0.02900435,-0.81598726
'00:09:34.744,0.060547,0.028320,1.003418,-0.121951,0.853659,-0.548781,-4.393750,17.850000,19.762501,28.970,0.57726542,-0.01002318,-0.02900238,-0.81597980
'00:09:34.754,0.060547,0.027344,1.002930,0.060976,1.097561,-0.487805,-4.393750,17.850000,19.762501,29.016,0.57727997,-0.01007253,-0.02899546,-0.81596914
'00:09:34.764,0.060547,0.027344,1.002930,0.060976,1.097561,-0.487805,-4.443750,17.956251,19.825001,29.016,0.57729295,-0.01011933,-0.02898678,-0.81595969
'00:09:34.774,0.061035,0.028809,1.003418,0.792683,1.829268,-0.670732,-4.656250,18.212500,20.093750,28.970,0.57728479,-0.01006329,-0.02899226,-0.81596596
'00:09:34.784,0.061035,0.028809,1.003418,0.792683,1.829268,-0.670732,-4.656250,18.212500,20.093750,28.970,0.57727675,-0.01000813,-0.02899776,-0.81597213
'00:09:34.794,0.060059,0.028809,1.002930,0.853659,1.890244,-0.609756,-4.418750,17.843750,19.800001,28.986,0.57728296,-0.00995067,-0.02901184,-0.81596794
'00:09:34.804,0.058594,0.029297,1.004395,0.670732,1.707317,-0.609756,-4.418750,17.843750,19.800001,28.955,0.57728859,-0.00990560,-0.02901825,-0.81596428
'00:09:34.814,0.058594,0.029297,1.003418,0.426829,1.402439,-0.548781,-4.562500,18.100000,20.000000,29.001,0.57729239,-0.00989030,-0.02901688,-0.81596183
'00:09:34.824,0.059570,0.028320,1.002930,0.182927,1.280488,-0.609756,-4.562500,18.100000,20.000000,29.001,0.57729151,-0.00990566,-0.02900288,-0.81596276
'00:09:34.834,0.059570,0.029785,1.002441,0.243902,1.280488,-0.548781,-4.475000,17.912500,19.868750,28.970,0.57729720,-0.00991473,-0.02900507,-0.81595854
'00:09:34.844,0.059082,0.029785,1.004395,0.182927,1.097561,-0.548781,-4.475000,17.912500,19.868750,28.970,0.57730238,-0.00993651,-0.02900926,-0.81595447
'00:09:34.854,0.059570,0.030273,1.005371,-0.243902,0.670732,-0.487805,-4.456250,17.925001,19.868750,29.016,0.57731184,-0.01001184,-0.02901059,-0.81594680
'00:09:34.864,0.061035,0.028320,1.003418,-0.548781,0.487805,-0.487805,-4.456250,17.925001,19.868750,29.031,0.57732073,-0.01013110,-0.02899462,-0.81593961
'00:09:34.874,0.061523,0.026855,1.000488,0.182927,1.158537,-0.548781,-4.637500,18.156250,19.950001,28.986,0.57731990,-0.01016482,-0.02898264,-0.81594020
'00:09:34.884,0.061035,0.028320,1.000488,1.097561,2.134146,-0.670732,-4.637500,18.156250,19.950001,28.955,0.57731334,-0.01007366,-0.02899330,-0.81594560
'00:09:34.895,0.059082,0.030273,1.003418,1.280488,2.378049,-0.731707,-4.412500,17.906250,19.781250,28.970,0.57731394,-0.00993545,-0.02902206,-0.81594585
'00:09:34.904,0.057617,0.030273,1.004883,0.731707,1.768293,-0.609756,-4.412500,17.906250,19.781250,28.970,0.57732068,-0.00988064,-0.02903187,-0.81594139
'00:09:34.915,0.059082,0.030273,1.003418,0.182927,1.158537,-0.548781,-4.418750,17.893751,19.918751,28.970,0.57733001,-0.00990211,-0.02904053,-0.81593422
'00:09:34.924,0.060059,0.030273,1.003418,0.000000,1.036585,-0.548781,-4.418750,17.893751,19.918751,28.970,0.57733710,-0.00994045,-0.02904482,-0.81592859
'00:09:34.934,0.060059,0.028320,1.003418,0.243902,1.219512,-0.548781,-4.431250,17.962500,19.881250,28.940,0.57734677,-0.00996520,-0.02904676,-0.81592137
'00:09:34.944,0.059570,0.028320,1.003906,0.365854,1.402439,-0.548781,-4.431250,17.962500,19.881250,28.986,0.57735697,-0.00996749,-0.02904588,-0.81591416
'00:09:34.954,0.061035,0.028809,1.003418,0.426829,1.463415,-0.609756,-4.412500,17.900000,19.806250,28.986,0.57736307,-0.00996874,-0.02905556,-0.81590949
'00:09:34.964,0.060059,0.028320,1.002930,0.670732,1.646341,-0.548781,-4.412500,17.900000,19.806250,28.955,0.57737429,-0.00994140,-0.02906653,-0.81590148
'00:09:34.974,0.060547,0.028320,1.001953,0.792683,1.829268,-0.548781,-4.412500,17.881250,19.768751,28.986,0.57738579,-0.00989792,-0.02907885,-0.81589344
'00:09:34.984,0.058105,0.030273,1.002930,0.792683,1.829268,-0.609756,-4.412500,17.881250,19.768751,28.986,0.57739268,-0.00983272,-0.02909212,-0.81588888
'00:09:34.994,0.059082,0.029785,1.001953,0.731707,1.768293,-0.609756,-4.437500,17.975000,19.868750,29.001,0.57739936,-0.00978359,-0.02910538,-0.81588427
'00:09:35.004,0.058594,0.030273,1.002441,0.609756,1.646341,-0.609756,-4.437500,17.975000,19.868750,29.001,0.57740560,-0.00974509,-0.02911660,-0.81587991
'00:09:35.015,0.061035,0.029785,1.003906,0.182927,1.219512,-0.609756,-4.418750,17.943750,19.875000,28.970,0.57741157,-0.00977844,-0.02912698,-0.81587492
'00:09:35.024,0.060059,0.028809,1.005371,0.487805,1.524390,-0.609756,-4.418750,17.943750,19.875000,28.970,0.57741754,-0.00977026,-0.02913172,-0.81587062
'00:09:35.034,0.061035,0.028320,1.004395,0.182927,1.158537,-0.548781,-4.512500,18.056250,19.906250,29.001,0.57742314,-0.00980598,-0.02913014,-0.81586628
'00:09:35.044,0.060059,0.028320,1.004395,0.243902,1.280488,-0.609756,-4.462500,17.900000,19.762501,28.970,0.57742538,-0.00982454,-0.02912360,-0.81586471
'00:09:35.054,0.058105,0.029785,1.003906,-0.060976,0.975610,-0.609756,-4.462500,17.900000,19.762501,28.986,0.57742633,-0.00986286,-0.02911156,-0.81586401
'00:09:35.064,0.059570,0.028809,1.003906,-0.304878,0.670732,-0.548781,-4.443750,17.956251,19.887501,28.955,0.57743275,-0.00994933,-0.02910031,-0.81585882
'00:09:35.074,0.059570,0.029297,1.000488,-0.060976,0.975610,-0.548781,-4.443750,17.956251,19.887501,28.970,0.57743985,-0.00999919,-0.02909532,-0.81585336
'00:09:35.084,0.061035,0.028320,1.000977,0.670732,1.646341,-0.609756,-4.668750,18.256250,20.068750,28.970,0.57743531,-0.00996591,-0.02909745,-0.81585690
'00:09:35.094,0.059082,0.027344,1.001465,1.219512,2.256098,-0.670732,-4.668750,18.256250,20.068750,28.986,0.57742881,-0.00985495,-0.02909439,-0.81586296
'00:09:35.105,0.056641,0.032227,1.006348,1.097561,2.195122,-0.670732,-4.787500,18.462500,20.187500,29.001,0.57741622,-0.00970406,-0.02909781,-0.81587356
'00:09:35.114,0.061035,0.027344,1.001465,-0.243902,0.670732,-0.548781,-4.787500,18.462500,20.187500,29.031,0.57741028,-0.00978184,-0.02907652,-0.81587759
'00:09:35.124,0.062012,0.026855,1.002930,0.365854,1.402439,-0.609756,-4.443750,17.918751,19.843750,28.970,0.57741471,-0.00980518,-0.02907519,-0.81587422
'00:09:35.134,0.060547,0.029297,1.004395,0.670732,1.646341,-0.609756,-4.443750,17.918751,19.843750,28.955,0.57741953,-0.00977680,-0.02909089,-0.81587059
'00:09:35.144,0.059082,0.031250,1.003906,0.304878,1.219512,-0.609756,-4.537500,17.962500,19.893751,28.955,0.57741680,-0.00977611,-0.02910084,-0.81587218
'00:09:35.154,0.059570,0.030273,1.002930,-0.304878,0.731707,-0.548781,-4.537500,17.962500,19.893751,29.031,0.57741683,-0.00984796,-0.02908850,-0.81587173
'00:09:35.164,0.059570,0.030273,1.000977,-0.304878,0.609756,-0.548781,-4.468750,17.937500,19.762501,29.001,0.57742120,-0.00993147,-0.02908838,-0.81586763
'00:09:35.174,0.061035,0.029785,1.002441,0.121951,1.158537,-0.609756,-4.468750,17.937500,19.762501,29.001,0.57742288,-0.00996295,-0.02909334,-0.81586588
'00:09:35.184,0.060059,0.027832,1.002930,0.609756,1.707317,-0.670732,-4.662500,18.212500,19.975000,28.955,0.57741424,-0.00992453,-0.02908056,-0.81587292
'00:09:35.194,0.059570,0.028320,1.004395,0.914634,1.951220,-0.670732,-4.662500,18.212500,19.975000,29.001,0.57740653,-0.00984905,-0.02907775,-0.81587939
'00:09:35.206,0.057617,0.028320,1.004395,0.731707,1.768293,-0.609756,-4.737500,18.356251,20.162500,28.970,0.57739878,-0.00977101,-0.02905708,-0.81588655
'00:09:35.214,0.058105,0.030762,1.006348,0.182927,1.219512,-0.548781,-4.737500,18.356251,20.162500,28.970,0.57739534,-0.00976741,-0.02904659,-0.81588940
'00:09:35.224,0.058594,0.030762,1.002441,-0.243902,0.731707,-0.548781,-4.518750,17.993750,19.812500,28.986,0.57739787,-0.00983046,-0.02904105,-0.81588705
'00:09:35.234,0.060059,0.029297,1.003418,-0.487805,0.487805,-0.487805,-4.518750,17.993750,19.812500,28.970,0.57740406,-0.00993636,-0.02902740,-0.81588187
'00:09:35.244,0.061035,0.028320,1.002441,-0.487805,0.487805,-0.487805,-4.475000,17.862501,19.862501,28.970,0.57741015,-0.01005163,-0.02901281,-0.81587667
'00:09:35.254,0.061523,0.027344,1.001953,-0.121951,0.853659,-0.609756,-4.475000,17.862501,19.862501,28.970,0.57740877,-0.01012724,-0.02900246,-0.81587708
'00:09:35.264,0.061523,0.027832,1.001465,0.365854,1.341463,-0.548781,-4.468750,17.856251,19.718750,29.001,0.57741407,-0.01014054,-0.02900601,-0.81587304
'00:09:35.274,0.059570,0.028809,1.002441,0.792683,1.829268,-0.609756,-4.468750,17.856251,19.718750,28.970,0.57741648,-0.01008203,-0.02901268,-0.81587182
'00:09:35.284,0.059082,0.029785,1.002930,0.914634,2.012195,-0.609756,-4.468750,17.925001,19.787500,29.001,0.57742060,-0.00999944,-0.02902367,-0.81586953
'00:09:35.294,0.058594,0.030762,1.003906,0.548781,1.646341,-0.548781,-4.675000,18.218750,20.012501,28.940,0.57741906,-0.00994747,-0.02902017,-0.81587138
'00:09:35.304,0.059082,0.030273,1.004883,0.000000,0.975610,-0.548781,-4.675000,18.218750,20.012501,28.970,0.57741555,-0.00997616,-0.02901032,-0.81587386
'00:09:35.314,0.060547,0.029785,1.003906,-0.304878,0.670732,-0.487805,-4.512500,17.975000,19.868750,28.970,0.57742174,-0.01005852,-0.02900519,-0.81586866
'00:09:35.324,0.061523,0.027832,1.001953,-0.182927,0.792683,-0.487805,-4.512500,17.975000,19.868750,28.970,0.57742853,-0.01013871,-0.02899596,-0.81586318
'00:09:35.334,0.062012,0.027344,1.002930,0.121951,1.097561,-0.609756,-4.462500,17.843750,19.825001,28.986,0.57742840,-0.01018628,-0.02899299,-0.81586279
'00:09:35.344,0.061035,0.027344,1.003906,0.243902,1.280488,-0.609756,-4.462500,17.843750,19.825001,28.970,0.57742880,-0.01020822,-0.02898509,-0.81586251
'00:09:35.354,0.059570,0.030273,1.002930,0.304878,1.280488,-0.609756,-4.556250,18.012501,19.868750,29.001,0.57742568,-0.01020305,-0.02898939,-0.81586463
'00:09:35.365,0.059082,0.029297,1.002930,0.121951,1.219512,-0.609756,-4.556250,18.012501,19.868750,29.016,0.57742218,-0.01021371,-0.02897478,-0.81586750
'00:09:35.374,0.059082,0.029785,1.003906,0.121951,1.097561,-0.609756,-4.456250,17.831251,19.781250,28.955,0.57742195,-0.01023142,-0.02897435,-0.81586745
'00:09:35.384,0.059570,0.027832,1.003906,0.182927,1.158537,-0.548781,-4.456250,17.831251,19.781250,28.970,0.57742661,-0.01025440,-0.02896568,-0.81586417
'00:09:35.394,0.060547,0.028809,1.002441,0.365854,1.402439,-0.548781,-4.831250,18.437500,20.187500,28.986,0.57741787,-0.01023822,-0.02895191,-0.81587105
'00:09:35.404,0.061035,0.028320,1.002930,0.426829,1.463415,-0.548781,-4.831250,18.437500,20.187500,29.001,0.57740952,-0.01021946,-0.02893868,-0.81587766
'00:09:35.414,0.060059,0.028809,1.003906,0.426829,1.402439,-0.609756,-4.750000,18.300001,20.081251,29.016,0.57739952,-0.01020043,-0.02893059,-0.81588526
'00:09:35.424,0.061035,0.029785,1.004883,0.182927,1.158537,-0.548781,-4.750000,18.300001,20.081251,28.955,0.57739288,-0.01021280,-0.02892657,-0.81588995
'00:09:35.434,0.059570,0.027832,1.002930,-0.121951,0.853659,-0.609756,-4.456250,17.925001,19.893751,28.970,0.57739398,-0.01027487,-0.02891478,-0.81588881
'00:09:35.444,0.062012,0.027832,1.001465,0.000000,0.975610,-0.548781,-4.456250,17.925001,19.893751,29.001,0.57739959,-0.01033550,-0.02891608,-0.81588403
'00:09:35.454,0.061035,0.028320,1.001953,0.487805,1.463415,-0.609756,-4.512500,17.875000,19.850000,28.986,0.57739750,-0.01032373,-0.02892061,-0.81588550
'00:09:35.464,0.060547,0.028320,1.002441,0.792683,1.890244,-0.609756,-4.512500,17.875000,19.850000,29.016,0.57739681,-0.01026356,-0.02892312,-0.81588666
'00:09:35.474,0.059082,0.030273,1.004395,0.731707,1.768293,-0.609756,-4.493750,17.918751,19.812500,28.986,0.57739795,-0.01020098,-0.02893467,-0.81588622
'00:09:35.484,0.057129,0.029785,1.004395,0.243902,1.341463,-0.609756,-4.493750,17.918751,19.812500,29.001,0.57739788,-0.01018518,-0.02892219,-0.81588692
'00:09:35.494,0.058594,0.028809,1.004883,-0.121951,0.792683,-0.548781,-4.668750,18.256250,20.043751,28.955,0.57739505,-0.01023372,-0.02890509,-0.81588892
'00:09:35.504,0.061523,0.027344,1.003418,-0.060976,0.792683,-0.609756,-4.668750,18.256250,20.043751,29.001,0.57738807,-0.01030089,-0.02889653,-0.81589331
'00:09:35.514,0.061523,0.027344,1.003418,-0.060976,0.792683,-0.609756,-4.731250,18.312500,20.112501,29.001,0.57737775,-0.01036415,-0.02888437,-0.81590024
'00:09:35.524,0.062012,0.027832,1.002930,0.243902,1.280488,-0.548781,-4.731250,18.312500,20.112501,29.001,0.57737309,-0.01037747,-0.02887432,-0.81590373
'00:09:35.534,0.061035,0.029297,1.003418,0.426829,1.402439,-0.609756,-4.500000,17.906250,19.843750,28.970,0.57737226,-0.01036943,-0.02888508,-0.81590404
'00:09:35.544,0.060547,0.029785,1.005371,0.060976,1.036585,-0.609756,-4.500000,17.906250,19.843750,29.001,0.57737012,-0.01040075,-0.02888812,-0.81590505
'00:09:35.554,0.059570,0.028320,1.004395,-0.487805,0.487805,-0.548781,-4.475000,17.881250,19.843750,28.940,0.57737192,-0.01050035,-0.02886896,-0.81590318
'00:09:35.564,0.061523,0.027832,1.002441,-0.548781,0.365854,-0.487805,-4.450000,17.843750,19.768751,28.970,0.57737876,-0.01062473,-0.02885890,-0.81589708
'00:09:35.574,0.062988,0.027832,1.000977,-0.182927,0.792683,-0.487805,-4.450000,17.843750,19.768751,28.986,0.57738667,-0.01070699,-0.02885982,-0.81589038
'00:09:35.584,0.062012,0.027344,1.001465,0.365854,1.341463,-0.548781,-4.687500,18.150000,20.062500,29.001,0.57738133,-0.01070735,-0.02885272,-0.81589440
'00:09:35.594,0.061523,0.026855,1.003418,0.792683,1.829268,-0.609756,-4.687500,18.150000,20.062500,29.031,0.57737346,-0.01065019,-0.02884609,-0.81590096
'00:09:35.604,0.060059,0.028320,1.005371,0.975610,2.012195,-0.670732,-4.762500,18.250000,20.093750,28.970,0.57735880,-0.01055395,-0.02884184,-0.81591273
'00:09:35.614,0.058594,0.028809,1.004883,0.609756,1.646341,-0.609756,-4.762500,18.250000,20.093750,28.986,0.57734738,-0.01049381,-0.02882734,-0.81592210
'00:09:35.624,0.058105,0.029785,1.004883,0.000000,0.975610,-0.548781,-4.612500,18.075001,19.912500,28.970,0.57734508,-0.01051273,-0.02881510,-0.81592391
'00:09:35.634,0.060059,0.028809,1.003906,-0.365854,0.548781,-0.487805,-4.612500,18.075001,19.912500,29.001,0.57734584,-0.01059549,-0.02880108,-0.81592280
'00:09:35.644,0.061035,0.027832,1.002930,-0.487805,0.548781,-0.548781,-4.512500,17.843750,19.887501,29.016,0.57734405,-0.01069581,-0.02877981,-0.81592351
'00:09:35.655,0.061035,0.027344,1.004395,-0.304878,0.609756,-0.548781,-4.512500,17.843750,19.887501,28.986,0.57734240,-0.01079141,-0.02876378,-0.81592398
'00:09:35.665,0.061523,0.027344,1.003418,-0.304878,0.670732,-0.548781,-4.475000,17.812500,19.818750,28.970,0.57734308,-0.01087731,-0.02875106,-0.81592281
'00:09:35.674,0.062500,0.027344,1.002930,-0.304878,0.731707,-0.548781,-4.475000,17.812500,19.818750,29.001,0.57734366,-0.01095460,-0.02874065,-0.81592173
'00:09:35.684,0.061523,0.026855,1.001953,-0.182927,0.853659,-0.548781,-4.456250,17.862501,19.818750,29.016,0.57734716,-0.01102303,-0.02872789,-0.81591878
'00:09:35.694,0.061523,0.026367,1.002441,0.243902,1.219512,-0.548781,-4.456250,17.862501,19.818750,28.970,0.57735199,-0.01104479,-0.02872412,-0.81591521
'00:09:35.704,0.062500,0.025879,1.002441,0.792683,1.768293,-0.609756,-4.768750,18.268751,20.225000,28.986,0.57734033,-0.01099372,-0.02871704,-0.81592439
'00:09:35.715,0.061035,0.027832,1.002930,1.097561,2.134146,-0.670732,-4.768750,18.268751,20.225000,28.970,0.57732383,-0.01087503,-0.02871877,-0.81593760
'00:09:35.724,0.060059,0.027832,1.004395,1.036585,2.012195,-0.670732,-4.812500,18.425001,20.200001,28.970,0.57731082,-0.01078447,-0.02871838,-0.81594802
'00:09:35.734,0.059570,0.027832,1.005371,0.670732,1.646341,-0.609756,-4.812500,18.425001,20.200001,28.970,0.57729966,-0.01072696,-0.02870816,-0.81595703
'00:09:35.744,0.060547,0.028320,1.003418,0.365854,1.280488,-0.548781,-4.431250,17.843750,19.856251,28.955,0.57730631,-0.01073071,-0.02871952,-0.81595187
'00:09:35.754,0.061035,0.027344,1.000977,0.182927,1.158537,-0.548781,-4.431250,17.843750,19.856251,28.970,0.57731260,-0.01075964,-0.02872105,-0.81594699
'00:09:35.764,0.061035,0.027832,1.001465,0.365854,1.341463,-0.548781,-4.468750,17.900000,19.850000,28.955,0.57731799,-0.01076203,-0.02872724,-0.81594293
'00:09:35.774,0.061523,0.026855,1.001465,0.670732,1.585366,-0.609756,-4.468750,17.900000,19.850000,28.970,0.57732009,-0.01073830,-0.02873907,-0.81594134
'00:09:35.784,0.061035,0.027344,1.003418,0.975610,1.951220,-0.609756,-4.393750,17.800001,19.850000,29.016,0.57732640,-0.01067189,-0.02875779,-0.81593709
'00:09:35.794,0.060547,0.027832,1.003906,1.097561,2.073171,-0.609756,-4.393750,17.800001,19.850000,28.970,0.57733312,-0.01058673,-0.02877950,-0.81593268
'00:09:35.804,0.060059,0.028320,1.004395,0.914634,1.951220,-0.609756,-4.731250,18.212500,20.106251,28.986,0.57732415,-0.01050085,-0.02877711,-0.81594021
'00:09:35.814,0.059570,0.029297,1.004883,0.548781,1.524390,-0.548781,-4.731250,18.212500,20.106251,28.955,0.57731812,-0.01045847,-0.02877377,-0.81594514
'00:09:35.825,0.061035,0.028809,1.003906,0.243902,1.219512,-0.548781,-4.762500,18.412500,20.200001,28.970,0.57731258,-0.01046578,-0.02876916,-0.81594913
'00:09:35.834,0.060059,0.028809,1.001953,0.182927,1.158537,-0.548781,-4.493750,17.875000,19.893751,29.001,0.57731490,-0.01048166,-0.02877001,-0.81594726
'00:09:35.844,0.062500,0.028320,1.002441,0.426829,1.402439,-0.548781,-4.493750,17.875000,19.893751,29.001,0.57731825,-0.01048517,-0.02878283,-0.81594439
'00:09:35.854,0.061035,0.027832,1.001953,0.731707,1.707317,-0.609756,-4.493750,17.868750,19.800001,29.001,0.57731871,-0.01044489,-0.02879335,-0.81594421
'00:09:35.865,0.062988,0.028320,1.003418,0.853659,1.890244,-0.609756,-4.493750,17.868750,19.800001,28.970,0.57731968,-0.01038970,-0.02881530,-0.81594345
'00:09:35.874,0.059570,0.028809,1.004395,0.853659,1.890244,-0.670732,-4.562500,18.000000,19.893751,29.001,0.57731466,-0.01032370,-0.02882047,-0.81594766
'00:09:35.884,0.058594,0.027832,1.003906,0.670732,1.646341,-0.609756,-4.562500,18.000000,19.893751,29.001,0.57731302,-0.01027670,-0.02881610,-0.81594957
'00:09:35.894,0.060059,0.028809,1.004395,0.487805,1.463415,-0.609756,-4.656250,18.137501,20.031250,28.970,0.57730662,-0.01025319,-0.02881491,-0.81595443
'00:09:35.904,0.060547,0.028320,1.002930,0.365854,1.402439,-0.548781,-4.656250,18.137501,20.031250,29.031,0.57730444,-0.01024572,-0.02880790,-0.81595632
'00:09:35.914,0.060059,0.027832,1.002441,0.487805,1.524390,-0.609756,-4.737500,18.262501,20.081251,29.001,0.57729555,-0.01021960,-0.02879561,-0.81596337
'00:09:35.924,0.061523,0.027832,1.002441,0.670732,1.707317,-0.609756,-4.737500,18.262501,20.081251,29.001,0.57728732,-0.01017984,-0.02879324,-0.81596977
'00:09:35.934,0.061035,0.028809,1.002930,0.792683,1.768293,-0.670732,-4.481250,18.000000,19.912500,28.970,0.57728738,-0.01013543,-0.02881449,-0.81596953
'00:09:35.944,0.061035,0.028809,1.002441,0.731707,1.768293,-0.609756,-4.481250,18.000000,19.912500,28.970,0.57729177,-0.01009501,-0.02883128,-0.81596633
'00:09:35.954,0.059570,0.028809,1.003418,0.548781,1.585366,-0.609756,-4.487500,17.956251,19.825001,28.986,0.57729462,-0.01006770,-0.02883645,-0.81596447
'00:09:35.964,0.060059,0.028809,1.001953,0.487805,1.402439,-0.609756,-4.487500,17.956251,19.825001,28.970,0.57729695,-0.01005996,-0.02884901,-0.81596248
'00:09:35.974,0.059570,0.028809,1.002441,0.426829,1.463415,-0.548781,-4.437500,17.887501,19.837500,28.970,0.57730567,-0.01005067,-0.02885413,-0.81595624
'00:09:35.988,0.059082,0.028320,1.002930,0.426829,1.463415,-0.609756,-4.437500,17.887501,19.837500,28.986,0.57731196,-0.01003641,-0.02885417,-0.81595197
'00:09:35.994,0.060547,0.028809,1.002930,0.487805,1.524390,-0.609756,-4.468750,17.943750,19.875000,28.970,0.57731401,-0.01002904,-0.02885944,-0.81595042
'00:09:36.004,0.059570,0.029297,1.003906,0.426829,1.402439,-0.609756,-4.468750,17.943750,19.875000,28.970,0.57731701,-0.01002084,-0.02886843,-0.81594808
'00:09:36.014,0.060547,0.029785,1.003906,0.304878,1.280488,-0.609756,-4.787500,18.381250,20.118750,28.986,0.57730628,-0.01001776,-0.02886599,-0.81595579
'00:09:36.024,0.059570,0.028320,1.001953,0.365854,1.341463,-0.548781,-4.787500,18.381250,20.118750,28.970,0.57730046,-0.01000840,-0.02885349,-0.81596047
'00:09:36.034,0.061035,0.028320,1.002930,0.487805,1.402439,-0.548781,-4.650000,18.106251,19.993750,28.955,0.57729867,-0.01000115,-0.02885679,-0.81596171
'00:09:36.044,0.060059,0.029785,1.003418,0.487805,1.463415,-0.609756,-4.650000,18.106251,19.993750,28.970,0.57729243,-0.00997800,-0.02886132,-0.81596625
'00:09:36.054,0.059570,0.030273,1.003906,0.487805,1.463415,-0.609756,-4.418750,17.906250,19.843750,28.970,0.57729840,-0.00996185,-0.02888063,-0.81596153
'00:09:36.066,0.061035,0.028320,1.005371,0.243902,1.219512,-0.548781,-4.418750,17.850000,19.837500,28.970,0.57730873,-0.00999686,-0.02888852,-0.81595352
'00:09:36.075,0.061035,0.028320,1.004395,0.060976,0.975610,-0.548781,-4.418750,17.850000,19.837500,28.955,0.57731567,-0.01004668,-0.02889392,-0.81594780
'00:09:36.084,0.061035,0.027832,0.999512,0.243902,1.219512,-0.548781,-4.412500,17.887501,19.818750,29.016,0.57732447,-0.01007543,-0.02890029,-0.81594100
'00:09:36.094,0.060059,0.028320,1.001953,0.670732,1.646341,-0.609756,-4.412500,17.887501,19.818750,28.986,0.57733123,-0.01004675,-0.02891399,-0.81593609
'00:09:36.105,0.059570,0.028809,1.003418,0.731707,1.707317,-0.609756,-4.612500,18.187500,20.018751,29.001,0.57732986,-0.00999282,-0.02892010,-0.81593750
'00:09:36.114,0.058105,0.028809,1.003906,0.487805,1.524390,-0.670732,-4.612500,18.187500,20.018751,28.970,0.57732438,-0.00996455,-0.02891234,-0.81594200
'00:09:36.124,0.057617,0.028809,1.003906,0.182927,1.097561,-0.548781,-4.781250,18.393751,20.087500,29.001,0.57731852,-0.00996969,-0.02889347,-0.81594675
'00:09:36.134,0.059570,0.029297,1.003906,0.000000,0.975610,-0.609756,-4.781250,18.393751,20.087500,28.955,0.57730775,-0.01000139,-0.02887858,-0.81595451
'00:09:36.145,0.060547,0.028320,1.003906,0.121951,1.158537,-0.609756,-4.456250,17.887501,19.818750,28.986,0.57731016,-0.01003922,-0.02887579,-0.81595244
'00:09:36.154,0.061035,0.029297,1.003418,0.365854,1.463415,-0.609756,-4.456250,17.887501,19.818750,28.986,0.57731273,-0.01003803,-0.02888235,-0.81595040
'00:09:36.164,0.059570,0.028320,1.003418,0.548781,1.524390,-0.609756,-4.462500,17.881250,19.800001,29.016,0.57731567,-0.01001836,-0.02888727,-0.81594839
'00:09:36.174,0.060059,0.029297,1.003906,0.548781,1.524390,-0.609756,-4.462500,17.881250,19.800001,28.970,0.57731840,-0.00999762,-0.02889958,-0.81594628
'00:09:36.187,0.059082,0.028809,1.002930,0.365854,1.341463,-0.548781,-4.475000,17.937500,19.868750,29.001,0.57732708,-0.00999597,-0.02890215,-0.81594007
'00:09:36.194,0.061035,0.028809,1.003906,0.243902,1.158537,-0.609756,-4.475000,17.937500,19.868750,29.001,0.57732824,-0.01001597,-0.02890915,-0.81593875
'00:09:36.204,0.061523,0.028320,1.002930,0.182927,1.097561,-0.609756,-4.550000,18.037500,19.987501,29.001,0.57732620,-0.01005342,-0.02891331,-0.81593959
'00:09:36.214,0.061035,0.028320,1.002441,0.304878,1.280488,-0.609756,-4.550000,18.037500,19.987501,28.970,0.57732468,-0.01006849,-0.02891503,-0.81594041
'00:09:36.225,0.060547,0.028809,1.002930,0.548781,1.524390,-0.609756,-4.693750,18.212500,20.050001,29.001,0.57731696,-0.01003976,-0.02891512,-0.81594623
'00:09:36.234,0.058594,0.029297,1.002930,0.670732,1.585366,-0.609756,-4.693750,18.212500,20.050001,29.001,0.57731090,-0.00999562,-0.02891580,-0.81595103
'00:09:36.244,0.059570,0.029785,1.004395,0.548781,1.524390,-0.609756,-4.556250,18.100000,20.000000,29.001,0.57731102,-0.00996776,-0.02892536,-0.81595095
'00:09:36.254,0.059570,0.029785,1.004395,0.548781,1.524390,-0.609756,-4.556250,18.100000,20.000000,29.001,0.57731117,-0.00994032,-0.02893481,-0.81595084
'00:09:36.267,0.059570,0.029785,1.002441,0.182927,1.158537,-0.609756,-4.431250,17.925001,19.868750,28.955,0.57731682,-0.00997038,-0.02894630,-0.81594608
'00:09:36.274,0.059570,0.029785,1.002441,0.182927,1.158537,-0.609756,-4.431250,17.925001,19.868750,28.955,0.57731979,-0.00998622,-0.02895231,-0.81594357
'00:09:36.284,0.059570,0.029297,1.002930,0.304878,1.280488,-0.609756,-4.487500,17.931250,19.843750,28.970,0.57732080,-0.00999210,-0.02895595,-0.81594265
'00:09:36.294,0.059570,0.028320,1.001953,0.487805,1.463415,-0.609756,-4.487500,17.931250,19.843750,28.955,0.57732262,-0.00997989,-0.02895804,-0.81594144
'00:09:36.305,0.061035,0.029785,1.004395,0.426829,1.402439,-0.609756,-4.450000,17.906250,19.812500,28.986,0.57732642,-0.00997888,-0.02897643,-0.81593811
'00:09:36.314,0.061035,0.029785,1.004395,0.426829,1.402439,-0.609756,-4.450000,17.906250,19.812500,28.986,0.57732949,-0.00997802,-0.02899119,-0.81593542
'00:09:36.324,0.060547,0.028809,1.004883,0.243902,1.219512,-0.548781,-4.750000,18.343750,20.100000,29.001,0.57732468,-0.00998831,-0.02898155,-0.81593904
'00:09:36.334,0.061035,0.028320,1.003418,0.243902,1.219512,-0.609756,-4.750000,18.343750,20.100000,28.970,0.57731562,-0.01000330,-0.02897188,-0.81594561
'00:09:36.346,0.060547,0.028320,1.000977,0.304878,1.341463,-0.548781,-4.756250,18.381250,20.150000,28.970,0.57731064,-0.01000484,-0.02895738,-0.81594963
'00:09:36.354,0.060059,0.028320,1.003418,0.487805,1.524390,-0.609756,-4.431250,17.893751,19.825001,28.986,0.57731478,-0.00999589,-0.02896063,-0.81594670
'00:09:36.364,0.060059,0.028809,1.003906,0.548781,1.524390,-0.609756,-4.431250,17.893751,19.825001,29.016,0.57731989,-0.00997963,-0.02897162,-0.81594289
'00:09:36.374,0.059570,0.029297,1.004395,0.487805,1.463415,-0.548781,-4.425000,17.831251,19.750000,29.001,0.57732842,-0.00996564,-0.02898104,-0.81593669
'00:09:36.386,0.060547,0.028809,1.003906,0.304878,1.280488,-0.487805,-4.425000,17.831251,19.750000,28.970,0.57734316,-0.00998510,-0.02898911,-0.81592574
'00:09:36.394,0.058594,0.029297,1.002930,0.243902,1.158537,-0.548781,-4.462500,17.925001,19.837500,28.970,0.57734839,-0.00999598,-0.02899117,-0.81592183
'00:09:36.404,0.059570,0.028809,1.004395,0.182927,1.219512,-0.609756,-4.462500,17.925001,19.837500,28.986,0.57735072,-0.01001521,-0.02898685,-0.81592010
'00:09:36.414,0.060059,0.028809,1.001953,0.304878,1.280488,-0.548781,-4.906250,18.712500,20.293751,28.986,0.57734284,-0.01001141,-0.02897385,-0.81592618
'00:09:36.426,0.060547,0.028809,1.002441,0.548781,1.524390,-0.609756,-4.906250,18.712500,20.293751,28.986,0.57732924,-0.00997433,-0.02896675,-0.81593651
'00:09:36.435,0.060059,0.028809,1.002441,0.487805,1.524390,-0.609756,-4.762500,18.381250,20.100000,28.986,0.57732191,-0.00995078,-0.02895935,-0.81594225
'00:09:36.444,0.059570,0.028320,1.004395,0.487805,1.463415,-0.609756,-4.762500,18.381250,20.100000,28.986,0.57731464,-0.00993043,-0.02894996,-0.81594797
'00:09:36.454,0.059570,0.028320,1.001953,0.304878,1.341463,-0.609756,-4.431250,17.937500,19.850000,28.970,0.57732020,-0.00994082,-0.02894999,-0.81594391
'00:09:36.466,0.060059,0.028320,1.002930,0.304878,1.219512,-0.548781,-4.431250,17.937500,19.850000,28.940,0.57733164,-0.00996673,-0.02895919,-0.81593517
'00:09:36.474,0.059570,0.028320,1.003906,0.426829,1.402439,-0.609756,-4.493750,18.018751,19.856251,29.031,0.57733411,-0.00996344,-0.02896034,-0.81593343
'00:09:36.484,0.059570,0.028809,1.003906,0.487805,1.524390,-0.609756,-4.493750,18.018751,19.856251,29.031,0.57733744,-0.00994562,-0.02896279,-0.81593120
'00:09:36.494,0.060547,0.029785,1.003906,0.487805,1.463415,-0.548781,-4.437500,17.925001,19.762501,28.986,0.57734697,-0.00993618,-0.02898041,-0.81592394
'00:09:36.506,0.060059,0.029785,1.002930,0.365854,1.341463,-0.609756,-4.437500,17.925001,19.762501,29.016,0.57735268,-0.00993949,-0.02899631,-0.81591930
'00:09:36.514,0.059082,0.029785,1.001465,0.304878,1.341463,-0.609756,-4.475000,17.993750,19.931250,28.970,0.57735497,-0.00993905,-0.02899906,-0.81591759
