# FW/GUI: v9.6.1-multi17-dual (PyQt5)
# StartTime: 2026-04-03 16:17:35
# Slot: 13
# DeviceID: 13
# Label: EMG13
# IP: 192.168.137.206
# TCP: 3333
# DeviceFW: EMG_FW_v9.6_MULTI17_DUALCH_RUNTIMECFG_CHEN
# EMG column notes: EMG_t_s=seconds since this Start; sample_idx=device sample index (ADS frame index); fs=sample rate (SPS); gain=gain; flags=0x01(TEST) 0x02(SHORT) 0x04(RLD); emg_valid=1 valid / 0 invalid (spike-guard decision); ch1_raw_uV=raw uV (after spike guard); ch1_filt_uV=filtered uV; ch1_env_uV=envelope (RMS) uV
EMG_t_s,sample_idx,fs,gain,flags,emg_valid,ch1_raw_uV,ch1_filt_uV,ch1_env_uV,ch2_raw_uV,ch2_filt_uV,ch2_env_uV
0.000000,511651,1000.00,12,0,1,971.708,-3.343,5.757,947.327,0.065,0.989
0.001000,511652,1000.00,12,0,1,970.747,-3.309,5.759,946.318,-1.278,0.967
0.002000,511653,1000.00,12,0,1,969.018,-4.582,5.767,948.528,0.695,0.972
0.003000,511654,1000.00,12,0,1,968.153,-5.520,5.792,949.609,2.046,1.014
0.004000,511655,1000.00,12,0,1,968.826,-4.702,5.799,948.528,0.744,0.989
0.005000,511656,1000.00,12,0,1,973.149,-1.676,5.783,948.120,0.099,0.976
0.006000,511657,1000.00,12,0,1,983.719,6.777,5.849,944.949,-2.185,1.024
0.007000,511658,1000.00,12,0,1,998.876,17.900,6.367,946.511,-1.668,1.050
0.008000,511659,1000.00,12,0,1,1003.079,19.921,6.919,949.273,1.969,1.080
0.009000,511660,1000.00,12,0,1,973.558,-7.205,6.947,946.631,-0.283,1.080
0.010000,511661,1000.00,12,0,1,971.540,-16.764,7.316,946.198,-1.421,1.078
0.011000,511662,1000.00,12,0,1,980.548,-1.340,7.201,947.063,0.092,1.068
0.012000,511663,1000.00,12,0,1,987.490,3.179,7.104,946.463,-0.513,1.057
0.013000,511664,1000.00,12,0,1,990.685,8.594,7.203,947.567,0.351,1.054
0.014000,511665,1000.00,12,0,1,985.184,3.410,7.185,946.799,0.151,1.053
0.015000,511666,1000.00,12,0,1,980.236,-1.271,7.061,945.790,-1.161,1.062
0.016000,511667,1000.00,12,0,1,977.545,-1.830,7.009,946.511,-0.341,1.062
0.017000,511668,1000.00,12,0,1,977.113,-1.707,7.013,946.318,-0.209,1.056
0.018000,511669,1000.00,12,0,1,978.026,1.090,6.991,948.312,1.068,1.057
0.019000,511670,1000.00,12,0,1,978.458,1.465,6.928,947.207,0.910,1.057
0.020000,511671,1000.00,12,0,1,980.740,3.686,6.908,948.000,0.362,1.058
0.021000,511672,1000.00,12,0,1,982.157,4.183,6.933,948.048,1.288,1.062
0.022000,511673,1000.00,12,0,1,982.301,3.131,6.919,947.760,0.216,1.052
0.023000,511674,1000.00,12,0,1,986.721,4.551,6.839,947.591,0.370,1.048
0.024000,511675,1000.00,12,0,1,989.676,5.996,6.807,950.522,2.258,1.096
0.025000,511676,1000.00,12,0,1,991.285,4.199,6.790,948.504,1.400,1.111
0.026000,511677,1000.00,12,0,1,993.807,4.083,6.789,946.294,-1.796,1.132
0.027000,511678,1000.00,12,0,1,993.855,1.988,6.767,946.102,-1.424,1.150
0.028000,511679,1000.00,12,0,1,995.753,1.051,6.767,946.583,-0.871,1.155
0.029000,511680,1000.00,12,0,1,993.111,-1.497,6.709,947.640,0.209,1.145
0.030000,511681,1000.00,12,0,1,993.687,-3.269,6.718,947.111,0.168,1.143
0.031000,511682,1000.00,12,0,1,997.146,0.673,6.632,945.934,-1.197,1.148
0.032000,511683,1000.00,12,0,1,994.023,-1.561,6.584,947.399,0.144,1.125
0.033000,511684,1000.00,12,0,1,995.056,-1.438,6.549,947.063,0.289,1.115
0.034000,511685,1000.00,12,0,1,996.329,1.710,6.477,948.120,0.596,1.110
0.035000,511686,1000.00,12,0,1,1000.797,4.860,6.300,947.495,0.601,1.111
0.036000,511687,1000.00,12,0,1,994.047,1.695,6.132,949.129,1.015,1.112
0.037000,511688,1000.00,12,0,1,977.785,-13.304,6.362,947.015,0.147,1.110
0.038000,511689,1000.00,12,0,1,971.612,-17.607,6.824,947.688,-0.776,1.069
0.039000,511690,1000.00,12,0,1,972.357,-13.235,7.075,947.832,0.504,1.071
0.040000,511691,1000.00,12,0,1,974.182,-9.276,7.187,947.808,-0.326,1.033
0.041000,511692,1000.00,12,0,1,981.821,-1.423,7.159,946.847,-0.650,1.031
0.042000,511693,1000.00,12,0,1,981.821,0.372,7.127,947.640,-0.423,1.026
0.043000,511694,1000.00,12,0,1,980.500,-2.863,7.096,948.360,0.658,1.027
0.044000,511695,1000.00,12,0,1,985.280,0.621,7.065,948.408,0.582,0.995
0.045000,511696,1000.00,12,0,1,993.135,6.207,7.113,946.174,-1.207,0.977
0.046000,511697,1000.00,12,0,1,995.993,7.329,7.152,947.207,-0.770,0.981
0.047000,511698,1000.00,12,0,1,993.111,2.411,6.936,948.072,0.740,0.986
0.048000,511699,1000.00,12,0,1,987.274,-4.348,6.875,948.552,0.852,0.993
0.049000,511700,1000.00,12,0,1,980.980,-10.079,7.021,945.670,-1.179,0.998
0.050000,511701,1000.00,12,0,1,982.277,-8.787,7.115,945.982,-1.702,1.026
0.051000,511702,1000.00,12,0,1,981.509,-6.031,7.150,949.201,1.751,1.040
0.052000,511703,1000.00,12,0,1,978.746,-7.327,7.196,947.399,0.684,1.040
0.053000,511704,1000.00,12,0,1,986.481,1.066,7.155,946.991,-0.836,1.006
0.054000,511705,1000.00,12,0,1,998.563,13.938,7.392,946.943,-0.023,1.000
0.055000,511706,1000.00,12,0,1,998.035,14.764,7.677,948.024,0.153,1.001
0.056000,511707,1000.00,12,0,1,994.720,9.650,7.739,946.775,-0.074,0.952
0.057000,511708,1000.00,12,0,1,989.772,5.742,7.358,946.414,-1.312,0.940
0.058000,511709,1000.00,12,0,1,989.988,4.251,6.824,947.111,-0.079,0.898
0.059000,511710,1000.00,12,0,1,992.438,7.031,6.820,948.288,0.670,0.902
0.060000,511711,1000.00,12,0,1,992.366,5.840,6.448,947.664,0.451,0.882
0.061000,511712,1000.00,12,0,1,994.096,5.469,6.491,946.511,-0.894,0.891
0.062000,511713,1000.00,12,0,1,995.273,5.222,6.518,947.447,-0.171,0.888
0.063000,511714,1000.00,12,0,1,998.251,4.815,6.439,947.688,0.531,0.890
0.064000,511715,1000.00,12,0,1,997.410,2.846,6.434,947.399,-0.048,0.890
0.065000,511716,1000.00,12,0,1,999.068,0.431,6.432,946.775,-0.268,0.875
0.066000,511717,1000.00,12,0,1,999.212,-0.124,6.426,948.528,0.785,0.881
0.067000,511718,1000.00,12,0,1,998.347,-3.552,6.442,947.616,0.860,0.889
0.068000,511719,1000.00,12,0,1,997.314,-4.985,6.478,948.000,0.147,0.876
0.069000,511720,1000.00,12,0,1,995.633,-7.049,6.551,948.024,0.927,0.877
0.070000,511721,1000.00,12,0,1,994.480,-7.719,6.621,946.198,-1.042,0.888
0.071000,511722,1000.00,12,0,1,996.450,-5.247,6.636,946.006,-1.276,0.887
0.072000,511723,1000.00,12,0,1,996.714,-3.324,6.638,945.574,-1.121,0.901
0.073000,511724,1000.00,12,0,1,993.279,-4.956,6.644,946.198,-0.813,0.907
0.074000,511725,1000.00,12,0,1,990.444,-6.185,6.647,946.511,0.076,0.848
0.075000,511726,1000.00,12,0,1,989.676,-4.669,6.654,947.495,0.490,0.828
0.076000,511727,1000.00,12,0,1,990.180,-2.422,6.637,945.982,-0.188,0.788
0.077000,511728,1000.00,12,0,1,985.952,-3.616,6.651,947.423,0.007,0.762
0.078000,511729,1000.00,12,0,1,981.100,-7.126,6.725,946.703,0.533,0.756
0.079000,511730,1000.00,12,0,1,980.836,-5.669,6.770,947.808,0.239,0.756
0.080000,511731,1000.00,12,0,1,977.089,-6.682,6.820,947.063,0.638,0.761
0.081000,511732,1000.00,12,0,1,977.065,-6.759,6.886,947.351,-0.166,0.743
0.082000,511733,1000.00,12,0,1,990.588,5.230,6.922,947.063,0.297,0.743
0.083000,511734,1000.00,12,0,1,1006.178,18.759,7.410,947.808,0.361,0.744
0.084000,511735,1000.00,12,0,1,1010.382,19.823,7.919,947.519,0.571,0.744
0.085000,511736,1000.00,12,0,1,1008.724,13.326,8.111,948.120,0.638,0.744
0.086000,511737,1000.00,12,0,1,1011.342,11.040,8.256,948.768,1.362,0.755
0.087000,511738,1000.00,12,0,1,1009.445,7.143,8.102,946.943,-0.101,0.755
0.088000,511739,1000.00,12,0,1,1004.593,-0.518,7.711,945.622,-1.738,0.787
0.089000,511740,1000.00,12,0,1,1006.298,-0.823,7.481,946.727,-0.384,0.785
0.090000,511741,1000.00,12,0,1,1003.920,-2.076,7.371,947.447,0.439,0.786
0.091000,511742,1000.00,12,0,1,999.716,-6.523,7.426,946.679,-0.042,0.781
0.092000,511743,1000.00,12,0,1,995.393,-8.452,7.521,947.327,0.092,0.779
0.093000,511744,1000.00,12,0,1,992.822,-9.298,7.624,947.279,0.523,0.777
0.094000,511745,1000.00,12,0,1,995.657,-4.516,7.650,946.438,-0.597,0.777
0.095000,511746,1000.00,12,0,1,995.657,-1.529,7.603,946.631,-0.402,0.760
0.096000,511747,1000.00,12,0,1,989.460,-5.361,7.570,946.895,-0.106,0.752
0.097000,511748,1000.00,12,0,1,992.967,-2.193,7.569,947.087,-0.011,0.745
0.098000,511749,1000.00,12,0,1,994.047,1.941,7.549,946.438,-0.468,0.738
0.099000,511750,1000.00,12,0,1,991.790,-0.895,7.414,948.672,0.911,0.731
0.100000,511751,1000.00,12,0,1,1001.326,6.252,7.362,948.120,1.222,0.711
0.101000,511752,1000.00,12,0,1,1005.649,10.857,7.472,948.072,0.054,0.667
0.102000,511753,1000.00,12,0,1,1008.796,9.121,7.512,947.447,0.140,0.660
0.103000,511754,1000.00,12,0,1,1009.637,8.357,7.603,946.366,-1.276,0.674
0.104000,511755,1000.00,12,0,1,1007.931,2.822,7.353,945.814,-1.417,0.703
0.105000,511756,1000.00,12,0,1,1008.916,1.198,7.053,947.183,-0.234,0.703
0.106000,511757,1000.00,12,0,1,1012.928,2.415,6.928,947.399,0.509,0.707
0.107000,511758,1000.00,12,0,1,1013.768,1.862,6.885,947.664,0.469,0.685
0.108000,511759,1000.00,12,0,1,1003.992,-7.292,6.936,947.808,0.757,0.694
0.109000,511760,1000.00,12,0,1,1002.407,-10.994,7.038,948.552,1.184,0.707
0.110000,511761,1000.00,12,0,1,999.957,-9.362,7.114,948.504,1.188,0.724
0.111000,511762,1000.00,12,0,1,1001.134,-8.653,7.177,947.279,-0.048,0.713
0.112000,511763,1000.00,12,0,1,1001.566,-4.226,7.164,945.285,-1.853,0.759
0.113000,511764,1000.00,12,0,1,1002.359,-2.895,7.143,947.591,-0.215,0.756
0.114000,511765,1000.00,12,0,1,1003.440,0.563,7.132,946.775,0.172,0.757
0.115000,511766,1000.00,12,0,1,1005.001,2.753,7.143,948.648,0.500,0.759
0.116000,511767,1000.00,12,0,1,1011.366,8.453,7.242,948.408,1.423,0.777
0.117000,511768,1000.00,12,0,1,1011.222,9.509,7.348,946.559,-1.205,0.786
0.118000,511769,1000.00,12,0,1,1007.403,3.787,7.334,946.150,-1.385,0.810
0.119000,511770,1000.00,12,0,1,998.996,-3.162,7.280,946.943,-0.640,0.805
0.120000,511771,1000.00,12,0,1,1002.239,-3.444,7.214,947.207,-0.215,0.792
0.121000,511772,1000.00,12,0,1,1000.653,-1.830,7.180,946.727,-0.513,0.774
0.122000,511773,1000.00,12,0,1,1006.971,-0.700,7.166,945.165,-1.819,0.800
0.123000,511774,1000.00,12,0,1,1004.617,0.150,7.131,947.880,0.260,0.793
0.124000,511775,1000.00,12,0,1,976.416,-25.282,7.929,947.664,1.135,0.809
0.125000,511776,1000.00,12,0,1,980.067,-26.254,8.731,946.847,-0.392,0.808
0.126000,511777,1000.00,12,0,1,992.102,-6.963,8.779,946.246,-0.431,0.810
0.127000,511778,1000.00,12,0,1,999.116,-2.154,8.770,947.303,0.193,0.810
0.128000,511779,1000.00,12,0,1,1005.770,5.982,8.753,948.336,1.490,0.834
0.129000,511780,1000.00,12,0,1,1003.968,3.945,8.734,948.288,1.295,0.853
0.130000,511781,1000.00,12,0,1,997.843,-1.585,8.685,948.168,0.903,0.858
0.131000,511782,1000.00,12,0,1,1001.926,1.444,8.635,947.543,0.411,0.859
0.132000,511783,1000.00,12,0,1,1003.824,5.775,8.642,946.943,-0.429,0.860
0.133000,511784,1000.00,12,0,1,1000.125,2.703,8.233,947.640,0.221,0.859
0.134000,511785,1000.00,12,0,1,993.567,-1.867,7.746,948.961,1.260,0.874
0.135000,511786,1000.00,12,0,1,990.444,-3.573,7.530,947.832,0.482,0.872
0.136000,511787,1000.00,12,0,1,996.185,2.662,7.376,945.141,-2.259,0.908
0.137000,511788,1000.00,12,0,1,1000.653,8.889,7.414,944.877,-2.519,0.976
0.138000,511789,1000.00,12,0,1,1001.950,9.045,7.523,945.021,-1.765,0.977
0.139000,511790,1000.00,12,0,1,1005.001,10.804,7.676,946.438,-0.555,0.978
0.140000,511791,1000.00,12,0,1,1005.265,9.638,7.790,948.889,1.887,1.012
0.141000,511792,1000.00,12,0,1,1006.923,8.354,7.825,948.480,1.640,1.038
0.142000,511793,1000.00,12,0,1,1009.829,8.851,7.834,948.000,0.537,1.041
0.143000,511794,1000.00,12,0,1,1013.072,8.765,7.822,948.432,0.918,1.047
0.144000,511795,1000.00,12,0,1,1016.867,9.166,7.903,948.456,0.764,1.049
0.145000,511796,1000.00,12,0,1,1018.452,7.711,7.975,947.399,-0.171,1.047
0.146000,511797,1000.00,12,0,1,1014.393,1.610,7.942,947.928,-0.077,1.047
0.147000,511798,1000.00,12,0,1,1013.168,-2.404,7.943,949.681,1.624,1.072
0.148000,511799,1000.00,12,0,1,1013.624,-2.406,7.946,948.096,0.469,1.072
0.149000,511800,1000.00,12,0,1,1013.816,-2.975,7.956,947.087,-1.096,1.076
0.150000,511801,1000.00,12,0,1,1009.901,-5.688,7.947,947.135,-0.615,1.065
0.151000,511802,1000.00,12,0,1,1008.172,-7.404,7.868,948.672,0.478,1.067
0.152000,511803,1000.00,12,0,1,1005.986,-7.072,7.825,946.583,-0.540,1.070
0.153000,511804,1000.00,12,0,1,1011.607,-2.082,7.741,945.958,-1.988,1.091
0.154000,511805,1000.00,12,0,1,1007.739,-1.454,7.734,948.168,0.543,1.076
0.155000,511806,1000.00,12,0,1,999.957,-9.081,7.838,948.913,1.326,1.091
0.156000,511807,1000.00,12,0,1,1003.295,-4.834,7.860,946.102,-1.101,1.100
0.157000,511808,1000.00,12,0,1,1005.577,-0.097,7.856,946.847,-1.202,1.111
0.158000,511809,1000.00,12,0,1,1004.809,-1.007,7.789,945.718,-1.083,1.117
0.159000,511810,1000.00,12,0,1,1003.608,-1.395,7.635,945.766,-1.786,1.132
0.160000,511811,1000.00,12,0,1,1005.073,-1.112,7.521,948.841,1.353,1.136
0.161000,511812,1000.00,12,0,1,1004.424,-1.048,7.422,947.688,0.872,1.143
0.162000,511813,1000.00,12,0,1,1004.424,-2.725,7.408,947.135,-0.641,1.116
0.163000,511814,1000.00,12,0,1,1002.719,-3.884,7.417,947.447,0.249,1.116
0.164000,511815,1000.00,12,0,1,1004.448,-4.029,7.438,948.048,0.309,1.117
0.165000,511816,1000.00,12,0,1,1005.986,-2.013,7.434,950.114,2.208,1.157
0.166000,511817,1000.00,12,0,1,1006.802,-2.254,7.344,948.264,0.836,1.146
0.167000,511818,1000.00,12,0,1,1005.313,-3.184,7.234,945.934,-1.886,1.164
0.168000,511819,1000.00,12,0,1,1004.857,-3.911,7.235,946.487,-1.184,1.160
0.169000,511820,1000.00,12,0,1,1009.108,0.207,7.221,949.129,1.276,1.170
0.170000,511821,1000.00,12,0,1,1011.462,3.607,7.223,946.607,-0.074,1.170
0.171000,511822,1000.00,12,0,1,1009.853,2.224,7.225,946.054,-1.686,1.192
0.172000,511823,1000.00,12,0,1,1006.250,-0.113,7.224,947.543,0.521,1.166
0.173000,511824,1000.00,12,0,1,1004.737,-1.035,7.226,946.511,-0.288,1.166
0.174000,511825,1000.00,12,0,1,997.579,-4.562,6.312,945.382,-1.411,1.172
0.175000,511826,1000.00,12,0,1,990.925,-9.783,5.289,946.847,-0.068,1.171
0.176000,511827,1000.00,12,0,1,990.997,-7.010,5.290,947.111,0.591,1.172
0.177000,511828,1000.00,12,0,1,992.558,-3.070,5.299,947.495,0.551,1.174
0.178000,511829,1000.00,12,0,1,992.582,-1.364,5.235,947.159,0.414,1.157
0.179000,511830,1000.00,12,0,1,1004.208,7.945,5.325,946.511,-0.426,1.144
0.180000,511831,1000.00,12,0,1,1010.382,14.998,5.727,949.321,1.581,1.159
0.181000,511832,1000.00,12,0,1,1008.628,10.011,5.896,947.111,0.621,1.160
0.182000,511833,1000.00,12,0,1,1009.493,7.981,5.947,945.886,-1.920,1.190
0.183000,511834,1000.00,12,0,1,1015.978,10.793,6.128,946.222,-0.666,1.194
0.184000,511835,1000.00,12,0,1,1018.573,11.070,6.320,948.456,0.732,1.185
0.185000,511836,1000.00,12,0,1,1020.518,8.913,6.424,948.192,1.348,1.198
0.186000,511837,1000.00,12,0,1,1021.455,7.356,6.497,948.120,0.393,1.156
0.187000,511838,1000.00,12,0,1,1020.734,4.214,6.402,948.552,1.086,1.110
0.188000,511839,1000.00,12,0,1,1021.791,3.027,6.288,947.904,0.393,1.083
0.189000,511840,1000.00,12,0,1,1014.345,-2.949,6.113,949.033,0.946,1.089
0.190000,511841,1000.00,12,0,1,1014.369,-5.574,6.011,950.642,2.609,1.118
0.191000,511842,1000.00,12,0,1,1017.444,0.005,5.894,949.009,0.962,1.102
0.192000,511843,1000.00,12,0,1,1015.450,-1.612,5.764,948.600,-0.031,1.100
0.193000,511844,1000.00,12,0,1,1013.744,-2.310,5.639,946.559,-1.334,1.108
0.194000,511845,1000.00,12,0,1,1005.337,-7.540,5.590,946.703,-1.824,1.133
0.195000,511846,1000.00,12,0,1,1003.199,-9.751,5.654,945.862,-1.557,1.154
0.196000,511847,1000.00,12,0,1,1005.529,-4.346,5.682,946.030,-1.856,1.183
0.197000,511848,1000.00,12,0,1,1003.608,-4.820,5.713,947.856,0.247,1.161
0.198000,511849,1000.00,12,0,1,999.260,-7.505,5.801,947.928,0.506,1.161
0.199000,511850,1000.00,12,0,1,998.491,-7.873,5.892,945.838,-1.460,1.169
0.200000,511851,1000.00,12,0,1,997.482,-7.217,5.925,945.838,-1.686,1.190
0.201000,511852,1000.00,12,0,1,999.356,-5.837,5.890,946.847,-0.436,1.190
0.202000,511853,1000.00,12,0,1,994.288,-8.372,5.924,948.000,0.607,1.191
0.203000,511854,1000.00,12,0,1,999.764,-6.080,5.979,947.832,0.550,1.159
0.204000,511855,1000.00,12,0,1,1007.739,3.308,5.994,947.303,-0.133,1.157
0.205000,511856,1000.00,12,0,1,1011.871,5.152,5.900,948.841,0.940,1.149
0.206000,511857,1000.00,12,0,1,1014.081,6.115,5.923,948.985,1.467,1.158
0.207000,511858,1000.00,12,0,1,1008.844,0.953,5.925,949.537,1.227,1.158
0.208000,511859,1000.00,12,0,1,1004.232,-4.711,5.961,948.048,0.428,1.150
0.209000,511860,1000.00,12,0,1,1004.809,-2.970,5.972,946.390,-1.635,1.145
0.210000,511861,1000.00,12,0,1,1005.265,-1.301,5.973,947.591,-0.350,1.130
0.211000,511862,1000.00,12,0,1,1012.423,5.501,6.021,947.952,0.459,1.125
0.212000,511863,1000.00,12,0,1,1015.906,10.622,6.194,948.817,0.871,1.128
0.213000,511864,1000.00,12,0,1,1010.694,5.952,6.227,947.495,0.278,1.128
0.214000,511865,1000.00,12,0,1,1004.641,0.486,6.201,946.655,-1.124,1.139
0.215000,511866,1000.00,12,0,1,1004.713,0.971,6.196,947.952,0.346,1.096
0.216000,511867,1000.00,12,0,1,1006.082,3.517,6.208,949.849,1.888,1.122
0.217000,511868,1000.00,12,0,1,1003.848,2.109,6.199,949.177,1.418,1.108
0.218000,511869,1000.00,12,0,1,998.203,-2.778,6.186,947.688,-0.513,1.098
0.219000,511870,1000.00,12,0,1,1000.005,-2.117,6.194,947.880,-0.546,1.086
0.220000,511871,1000.00,12,0,1,1009.901,6.556,6.242,946.919,-1.068,1.096
0.221000,511872,1000.00,12,0,1,1017.948,12.639,6.485,948.240,-0.528,1.072
0.222000,511873,1000.00,12,0,1,1017.468,9.720,6.629,947.039,-0.611,1.073
0.223000,511874,1000.00,12,0,1,1015.810,4.406,6.657,946.607,-1.888,1.105
0.224000,511875,1000.00,12,0,1,1020.782,5.583,6.672,946.006,-1.479,1.107
0.225000,511876,1000.00,12,0,1,1018.140,2.560,6.537,946.919,-1.113,1.118
0.226000,511877,1000.00,12,0,1,1012.856,-5.393,6.506,948.216,0.704,1.119
0.227000,511878,1000.00,12,0,1,1015.210,-4.101,6.518,947.616,0.207,1.117
0.228000,511879,1000.00,12,0,1,1017.372,-1.618,6.519,947.952,0.206,1.116
0.229000,511880,1000.00,12,0,1,1017.059,-1.978,6.428,947.904,0.600,1.118
0.230000,511881,1000.00,12,0,1,1014.009,-3.782,6.091,947.952,0.277,1.096
0.231000,511882,1000.00,12,0,1,1010.454,-6.200,5.989,948.360,0.911,1.100
0.232000,511883,1000.00,12,0,1,1006.370,-7.651,5.980,949.129,1.299,1.081
0.233000,511884,1000.00,12,0,1,1004.665,-7.439,5.877,946.871,-0.204,1.078
0.234000,511885,1000.00,12,0,1,1005.025,-4.450,5.699,947.519,-0.599,1.076
0.235000,511886,1000.00,12,0,1,1009.084,0.517,5.559,947.351,0.318,1.060
0.236000,511887,1000.00,12,0,1,1011.583,4.492,5.497,946.438,-1.063,1.069
0.237000,511888,1000.00,12,0,1,1013.336,5.502,5.520,947.159,-0.200,1.058
0.238000,511889,1000.00,12,0,1,1015.978,7.193,5.597,947.351,0.166,1.057
0.239000,511890,1000.00,12,0,1,1021.527,10.112,5.761,948.312,0.653,1.053
0.240000,511891,1000.00,12,0,1,999.236,-7.415,5.803,947.880,0.641,0.990
0.241000,511892,1000.00,12,0,1,993.951,-19.195,6.406,948.336,0.266,0.981
0.242000,511893,1000.00,12,0,1,1000.917,-7.602,6.492,946.390,-0.731,0.987
0.243000,511894,1000.00,12,0,1,1008.436,-2.486,6.493,947.255,-1.062,0.980
0.244000,511895,1000.00,12,0,1,1012.567,2.340,6.414,947.399,0.202,0.946
0.245000,511896,1000.00,12,0,1,1013.240,1.291,6.266,946.511,-1.158,0.935
0.246000,511897,1000.00,12,0,1,1017.155,3.041,6.251,946.126,-1.102,0.910
0.247000,511898,1000.00,12,0,1,1019.870,5.530,6.263,947.808,0.233,0.910
0.248000,511899,1000.00,12,0,1,1019.798,3.648,6.194,947.832,0.836,0.915
0.249000,511900,1000.00,12,0,1,1022.824,5.827,6.148,949.249,1.451,0.915
0.250000,511901,1000.00,12,0,1,1018.308,2.320,6.072,949.033,1.742,0.917
0.251000,511902,1000.00,12,0,1,1009.253,-5.737,6.070,949.201,1.135,0.929
0.252000,511903,1000.00,12,0,1,1008.964,-5.649,6.007,949.393,1.437,0.947
0.253000,511904,1000.00,12,0,1,1006.947,-3.610,5.967,948.288,0.291,0.945
0.254000,511905,1000.00,12,0,1,1005.265,-4.507,5.982,947.303,-0.833,0.952
0.255000,511906,1000.00,12,0,1,1005.601,-1.504,5.942,946.583,-1.199,0.958
0.256000,511907,1000.00,12,0,1,1003.872,-1.705,5.883,947.327,-0.729,0.941
0.257000,511908,1000.00,12,0,1,1002.767,-1.774,5.887,948.480,0.716,0.930
0.258000,511909,1000.00,12,0,1,1004.328,0.154,5.849,948.168,0.323,0.929
0.259000,511910,1000.00,12,0,1,1008.052,3.349,5.853,945.550,-1.795,0.935
0.260000,511911,1000.00,12,0,1,1006.538,2.177,5.859,946.318,-1.741,0.966
0.261000,511912,1000.00,12,0,1,1007.259,0.359,5.807,947.832,0.442,0.965
0.262000,511913,1000.00,12,0,1,1011.535,3.504,5.631,949.657,1.545,0.982
0.263000,511914,1000.00,12,0,1,1015.522,5.131,5.615,948.120,0.691,0.986
0.264000,511915,1000.00,12,0,1,1015.066,3.372,5.635,948.288,-0.296,0.974
0.265000,511916,1000.00,12,0,1,1011.198,-2.002,5.640,949.393,1.162,0.987
0.266000,511917,1000.00,12,0,1,1010.838,-3.704,5.642,950.474,1.607,0.977
0.267000,511918,1000.00,12,0,1,1008.268,-5.041,5.680,949.105,0.575,0.959
0.268000,511919,1000.00,12,0,1,1004.761,-8.136,5.782,950.162,0.585,0.960
0.269000,511920,1000.00,12,0,1,1003.127,-7.746,5.877,948.648,0.055,0.957
0.270000,511921,1000.00,12,0,1,1009.277,-1.403,5.807,947.471,-1.776,0.978
0.271000,511922,1000.00,12,0,1,1011.895,4.171,5.556,947.543,-1.158,0.989
0.272000,511923,1000.00,12,0,1,1017.059,7.842,5.496,947.712,-0.839,0.992
0.273000,511924,1000.00,12,0,1,1006.971,2.668,5.474,948.240,-0.245,0.956
0.274000,511925,1000.00,12,0,1,999.692,-6.430,5.492,949.393,0.941,0.942
0.275000,511926,1000.00,12,0,1,1005.097,0.982,5.482,948.024,-0.064,0.929
0.276000,511927,1000.00,12,0,1,1006.682,4.350,5.464,949.249,0.361,0.925
0.277000,511928,1000.00,12,0,1,1005.265,2.607,5.445,948.913,0.749,0.931
0.278000,511929,1000.00,12,0,1,1005.986,3.255,5.460,948.072,-0.641,0.935
0.279000,511930,1000.00,12,0,1,1005.313,2.019,5.460,946.943,-1.317,0.949
0.280000,511931,1000.00,12,0,1,1005.001,0.855,5.435,949.489,0.324,0.950
0.281000,511932,1000.00,12,0,1,1005.938,0.424,5.365,950.186,1.712,0.972
0.282000,511933,1000.00,12,0,1,1011.246,3.581,5.279,949.225,0.114,0.954
0.283000,511934,1000.00,12,0,1,1013.072,4.348,5.209,947.832,-1.086,0.966
0.284000,511935,1000.00,12,0,1,1017.492,5.110,5.221,949.369,-0.213,0.963
0.285000,511936,1000.00,12,0,1,1019.389,5.949,5.288,949.681,0.636,0.966
0.286000,511937,1000.00,12,0,1,1018.717,2.740,5.264,948.913,-0.437,0.956
0.287000,511938,1000.00,12,0,1,1019.437,2.002,5.214,947.736,-1.340,0.974
0.288000,511939,1000.00,12,0,1,1018.669,0.851,5.115,946.294,-2.400,1.032
0.289000,511940,1000.00,12,0,1,1016.267,-1.719,4.917,947.471,-1.405,1.046
0.290000,511941,1000.00,12,0,1,1016.171,-1.523,4.809,947.616,-0.273,1.043
0.291000,511942,1000.00,12,0,1,1013.264,-2.597,3.986,947.880,-0.413,1.044
0.292000,511943,1000.00,12,0,1,1009.733,-4.847,3.899,948.192,0.471,1.041
0.293000,511944,1000.00,12,0,1,1010.574,-2.733,3.903,946.871,-0.687,1.035
0.294000,511945,1000.00,12,0,1,1011.102,-0.129,3.889,948.504,0.457,1.036
0.295000,511946,1000.00,12,0,1,1000.341,-7.321,4.020,946.871,0.037,1.023
0.296000,511947,1000.00,12,0,1,1003.608,-6.026,4.087,945.742,-1.824,1.044
0.297000,511948,1000.00,12,0,1,1007.763,2.035,4.022,946.943,-0.117,1.043
0.298000,511949,1000.00,12,0,1,1003.776,-2.172,4.000,946.895,0.024,1.037
0.299000,511950,1000.00,12,0,1,1004.689,-2.013,3.925,946.991,-0.025,1.016
0.300000,511951,1000.00,12,0,1,1006.850,0.299,3.911,949.585,2.065,1.028
0.301000,511952,1000.00,12,0,1,1005.697,-1.686,3.834,948.168,1.317,1.033
0.302000,511953,1000.00,12,0,1,1009.685,0.230,3.749,949.177,0.843,1.019
0.303000,511954,1000.00,12,0,1,1011.919,1.908,3.724,947.760,0.588,1.022
0.304000,511955,1000.00,12,0,1,1012.712,0.685,3.671,949.393,0.505,1.018
0.305000,511956,1000.00,12,0,1,1015.138,1.542,3.671,947.712,0.429,1.005
0.306000,511957,1000.00,12,0,1,1011.967,-1.303,3.668,946.871,-1.658,1.027
0.307000,511958,1000.00,12,0,1,1011.703,-3.333,3.689,948.744,0.655,1.026
0.308000,511959,1000.00,12,0,1,1013.913,-0.098,3.689,949.009,1.065,1.036
0.309000,511960,1000.00,12,0,1,1015.426,1.282,3.663,947.231,-0.631,1.009
0.310000,511961,1000.00,12,0,1,1008.196,-2.968,3.674,945.334,-2.086,1.022
0.311000,511962,1000.00,12,0,1,1003.319,-7.555,3.826,945.718,-1.824,1.052
0.312000,511963,1000.00,12,0,1,1001.134,-6.049,3.889,947.808,0.722,1.034
0.313000,511964,1000.00,12,0,1,998.683,-5.981,3.913,946.487,-0.036,1.029
0.314000,511965,1000.00,12,0,1,1000.341,-2.327,3.898,946.655,-0.360,1.030
0.315000,511966,1000.00,12,0,1,1002.166,1.849,3.897,946.126,-0.148,1.017
0.316000,511967,1000.00,12,0,1,1002.887,3.171,3.887,947.039,0.138,0.991
0.317000,511968,1000.00,12,0,1,1010.285,9.270,4.040,947.664,1.197,1.002
0.318000,511969,1000.00,12,0,1,1013.048,12.039,4.230,947.327,0.543,1.002
0.319000,511970,1000.00,12,0,1,1012.808,8.886,4.275,946.847,0.032,1.002
0.320000,511971,1000.00,12,0,1,1012.928,6.957,4.382,946.414,-0.419,0.972
0.321000,511972,1000.00,12,0,1,1012.375,4.065,4.380,947.039,-0.071,0.958
0.322000,511973,1000.00,12,0,1,1013.624,2.656,4.254,949.201,1.805,0.984
0.323000,511974,1000.00,12,0,1,1015.498,2.626,4.254,948.120,1.059,0.995
0.324000,511975,1000.00,12,0,1,1014.849,0.284,4.155,945.886,-1.452,1.007
0.325000,511976,1000.00,12,0,1,1010.309,-4.672,4.205,947.688,-0.161,1.007
0.326000,511977,1000.00,12,0,1,1008.340,-7.563,4.295,948.961,1.626,1.032
0.327000,511978,1000.00,12,0,1,1013.696,-2.522,4.294,947.399,0.011,1.026
0.328000,511979,1000.00,12,0,1,1008.172,-4.719,4.322,949.201,1.028,1.033
0.329000,511980,1000.00,12,0,1,1001.854,-11.036,4.586,949.129,1.697,1.044
0.330000,511981,1000.00,12,0,1,1001.878,-8.134,4.726,946.270,-1.286,1.058
0.331000,511982,1000.00,12,0,1,997.915,-8.317,4.870,947.447,-0.599,1.034
0.332000,511983,1000.00,12,0,1,996.353,-7.885,4.970,947.808,0.605,1.037
0.333000,511984,1000.00,12,0,1,998.876,-2.378,4.944,947.231,-0.340,1.027
0.334000,511985,1000.00,12,0,1,999.764,0.636,4.891,947.567,0.163,1.027
0.335000,511986,1000.00,12,0,1,1001.013,2.886,4.836,946.414,-0.684,1.027
0.336000,511987,1000.00,12,0,1,1004.040,6.032,4.895,946.487,-0.923,1.034
0.337000,511988,1000.00,12,0,1,1004.328,6.525,4.973,947.015,-0.063,1.016
0.338000,511989,1000.00,12,0,1,1004.304,5.085,5.024,949.009,1.263,0.974
0.339000,511990,1000.00,12,0,1,1007.235,6.364,5.098,948.768,1.469,0.976
0.340000,511991,1000.00,12,0,1,1009.733,7.124,5.192,948.576,0.363,0.977
0.341000,511992,1000.00,12,0,1,1012.423,7.060,5.274,949.393,1.091,0.987
0.342000,511993,1000.00,12,0,1,1013.384,5.990,5.298,950.618,1.697,1.014
0.343000,511994,1000.00,12,0,1,1015.138,4.688,5.325,949.825,0.964,1.018
0.344000,511995,1000.00,12,0,1,1014.393,2.760,5.339,950.186,0.464,1.018
0.345000,511996,1000.00,12,0,1,1006.538,-5.274,5.291,949.009,-0.204,1.019
0.346000,511997,1000.00,12,0,1,1009.877,-4.640,5.263,947.808,-1.767,1.017
0.347000,511998,1000.00,12,0,1,1024.458,9.127,5.411,946.967,-2.082,1.058
0.348000,511999,1000.00,12,0,1,1027.388,12.390,5.679,947.808,-1.313,1.075
0.349000,512000,1000.00,12,0,1,1004.280,-7.665,5.775,948.432,-0.182,1.075
0.350000,512001,1000.00,12,0,1,1006.682,-10.567,5.965,948.817,0.172,1.035
0.351000,512002,1000.00,12,0,1,1014.417,3.453,5.980,948.744,0.258,1.019
0.352000,512003,1000.00,12,0,1,1008.412,-2.105,5.988,948.000,-0.317,1.013
0.353000,512004,1000.00,12,0,1,1000.293,-7.785,6.082,945.310,-2.422,1.066
0.354000,512005,1000.00,12,0,1,1001.013,-6.409,6.148,946.679,-1.598,1.087
0.355000,512006,1000.00,12,0,1,1004.857,-0.609,6.145,948.696,1.090,1.096
0.356000,512007,1000.00,12,0,1,1007.043,2.254,6.151,947.591,0.108,1.071
0.357000,512008,1000.00,12,0,1,1001.830,-1.867,6.138,946.631,-1.078,1.078
0.358000,512009,1000.00,12,0,1,1002.214,-3.023,6.153,946.487,-0.990,1.076
0.359000,512010,1000.00,12,0,1,1006.370,1.029,6.152,949.321,1.072,1.083
0.360000,512011,1000.00,12,0,1,1010.382,3.545,6.158,947.712,0.643,1.046
0.361000,512012,1000.00,12,0,1,1011.727,3.358,6.083,947.808,-0.772,1.020
0.362000,512013,1000.00,12,0,1,1008.556,-0.763,6.024,947.495,0.021,1.015
0.363000,512014,1000.00,12,0,1,1010.285,-1.845,5.970,946.535,-1.483,1.036
0.364000,512015,1000.00,12,0,1,1012.207,0.299,5.961,948.000,0.010,1.035
0.365000,512016,1000.00,12,0,1,1012.279,-1.112,5.957,949.633,1.671,1.061
0.366000,512017,1000.00,12,0,1,1010.766,-2.117,5.948,946.631,-0.645,1.065
0.367000,512018,1000.00,12,0,1,1012.135,-1.604,5.806,945.045,-2.596,1.114
0.368000,512019,1000.00,12,0,1,1008.076,-3.016,5.567,946.102,-1.038,1.121
0.369000,512020,1000.00,12,0,1,1002.671,-7.660,5.531,946.198,-0.328,1.122
0.370000,512021,1000.00,12,0,1,1000.533,-7.133,5.535,945.574,-0.758,1.125
0.371000,512022,1000.00,12,0,1,1007.139,0.065,5.505,945.310,-0.590,1.128
0.372000,512023,1000.00,12,0,1,1013.384,8.347,5.618,946.631,0.554,1.102
0.373000,512024,1000.00,12,0,1,1007.307,4.258,5.638,946.727,1.242,1.106
0.374000,512025,1000.00,12,0,1,1008.532,3.131,5.655,947.111,1.049,1.097
0.375000,512026,1000.00,12,0,1,997.170,-2.572,5.628,947.567,1.677,1.122
0.376000,512027,1000.00,12,0,1,999.236,-5.428,5.579,947.111,0.938,1.106
0.377000,512028,1000.00,12,0,1,1009.901,8.100,5.684,948.360,1.585,1.128
0.378000,512029,1000.00,12,0,1,1010.237,6.966,5.730,946.607,0.444,1.121
0.379000,512030,1000.00,12,0,1,1008.196,3.159,5.531,947.832,0.228,1.095
0.380000,512031,1000.00,12,0,1,1006.298,0.157,5.410,949.273,2.233,1.125
0.381000,512032,1000.00,12,0,1,1004.881,-2.877,5.297,950.522,2.315,1.169
0.382000,512033,1000.00,12,0,1,1005.169,-3.104,5.196,950.066,2.019,1.200
0.383000,512034,1000.00,12,0,1,1009.084,-1.097,5.188,948.768,0.070,1.199
0.384000,512035,1000.00,12,0,1,1013.240,2.674,5.201,948.504,-0.349,1.200
0.385000,512036,1000.00,12,0,1,1011.871,0.595,5.185,947.928,-0.712,1.200
0.386000,512037,1000.00,12,0,1,1010.021,-1.846,5.121,947.640,-1.113,1.204
0.387000,512038,1000.00,12,0,1,1001.926,-7.680,5.153,948.000,-0.469,1.205
0.388000,512039,1000.00,12,0,1,1003.416,-7.276,5.206,946.775,-1.267,1.205
0.389000,512040,1000.00,12,0,1,1003.295,-2.977,5.144,949.633,0.762,1.192
0.390000,512041,1000.00,12,0,1,1003.343,-2.895,5.061,947.976,0.649,1.195
0.391000,512042,1000.00,12,0,1,1002.647,-0.439,4.962,946.799,-1.655,1.208
0.392000,512043,1000.00,12,0,1,1003.608,0.933,4.891,947.495,-0.233,1.184
0.393000,512044,1000.00,12,0,1,1000.365,0.546,4.847,948.072,0.118,1.176
0.394000,512045,1000.00,12,0,1,995.297,-3.462,4.856,947.351,-0.270,1.175
0.395000,512046,1000.00,12,0,1,990.757,-5.899,4.870,947.952,-0.127,1.175
0.396000,512047,1000.00,12,0,1,987.970,-6.864,4.922,948.480,0.521,1.150
0.397000,512048,1000.00,12,0,1,995.273,-0.323,4.750,949.009,0.683,1.116
0.398000,512049,1000.00,12,0,1,999.572,5.849,4.492,948.168,-0.094,1.101
0.399000,512050,1000.00,12,0,1,1001.230,4.976,4.416,946.294,-1.898,1.133
0.400000,512051,1000.00,12,0,1,1002.959,5.893,4.238,948.408,-0.590,1.136
0.401000,512052,1000.00,12,0,1,1006.802,6.596,4.312,947.399,-0.283,1.136
0.402000,512053,1000.00,12,0,1,1010.382,8.392,4.462,947.928,-1.054,1.145
0.403000,512054,1000.00,12,0,1,1014.489,9.108,4.512,947.832,0.019,1.092
0.404000,512055,1000.00,12,0,1,1020.038,11.620,4.716,947.808,-0.722,1.073
0.405000,512056,1000.00,12,0,1,1021.143,10.598,4.947,948.600,0.483,1.064
0.406000,512057,1000.00,12,0,1,1017.444,4.838,4.984,947.495,-0.336,1.065
0.407000,512058,1000.00,12,0,1,1016.050,1.875,4.984,947.231,-0.805,1.060
0.408000,512059,1000.00,12,0,1,1013.624,-0.134,4.966,946.030,-1.100,1.063
0.409000,512060,1000.00,12,0,1,1008.052,-4.627,5.007,947.231,-0.534,1.054
0.410000,512061,1000.00,12,0,1,1003.392,-7.755,5.101,948.408,1.473,1.071
0.411000,512062,1000.00,12,0,1,1003.295,-6.048,5.150,948.408,1.058,1.076
0.412000,512063,1000.00,12,0,1,1004.472,-2.696,5.163,948.024,0.862,1.083
0.413000,512064,1000.00,12,0,1,1000.533,-3.937,5.187,945.189,-1.529,1.084
0.414000,512065,1000.00,12,0,1,1002.767,-2.149,5.195,946.679,-0.923,1.092
0.415000,512066,1000.00,12,0,1,1007.403,3.941,5.223,946.847,0.466,1.068
0.416000,512067,1000.00,12,0,1,1000.941,-1.121,5.217,946.222,-0.852,1.071
0.417000,512068,1000.00,12,0,1,999.116,-4.837,5.257,948.937,1.572,1.030
0.418000,512069,1000.00,12,0,1,1000.029,-2.761,5.254,947.111,0.570,1.023
0.419000,512070,1000.00,12,0,1,1004.809,-0.291,5.141,946.126,-1.477,1.043
0.420000,512071,1000.00,12,0,1,1007.475,2.406,5.053,948.961,1.331,1.054
0.421000,512072,1000.00,12,0,1,1007.307,0.009,5.053,948.072,0.897,1.059
0.422000,512073,1000.00,12,0,1,1008.484,-0.353,4.913,947.856,-0.181,1.056
0.423000,512074,1000.00,12,0,1,1011.414,0.904,4.878,946.871,-0.433,1.043
0.424000,512075,1000.00,12,0,1,1010.309,-0.557,4.858,948.024,-0.155,1.033
0.425000,512076,1000.00,12,0,1,1007.283,-4.119,4.879,948.192,0.864,1.013
0.426000,512077,1000.00,12,0,1,1007.931,-3.735,4.847,946.414,-1.029,1.014
0.427000,512078,1000.00,12,0,1,1008.820,-1.574,4.715,945.910,-1.363,1.008
0.428000,512079,1000.00,12,0,1,1005.145,-3.629,4.640,947.255,0.089,1.006
0.429000,512080,1000.00,12,0,1,1002.983,-4.505,4.662,946.631,0.080,1.006
0.430000,512081,1000.00,12,0,1,1007.571,0.979,4.664,948.720,1.335,0.973
0.431000,512082,1000.00,12,0,1,1013.216,7.908,4.779,949.729,2.870,1.002
0.432000,512083,1000.00,12,0,1,1003.560,1.549,4.764,947.231,0.276,0.962
0.433000,512084,1000.00,12,0,1,1002.599,-1.778,4.768,948.696,0.671,0.966
0.434000,512085,1000.00,12,0,1,1003.968,2.944,4.771,947.712,0.808,0.972
0.435000,512086,1000.00,12,0,1,1004.472,2.284,4.781,947.519,-0.644,0.971
0.436000,512087,1000.00,12,0,1,1007.331,5.117,4.829,949.153,1.310,0.976
0.437000,512088,1000.00,12,0,1,1009.901,6.339,4.790,947.952,0.082,0.973
0.438000,512089,1000.00,12,0,1,1012.039,6.408,4.765,946.438,-1.635,0.984
0.439000,512090,1000.00,12,0,1,1014.441,6.511,4.835,947.856,-0.553,0.982
0.440000,512091,1000.00,12,0,1,1013.336,3.321,4.840,947.399,-0.403,0.979
0.441000,512092,1000.00,12,0,1,1006.010,-4.674,4.885,946.631,-1.491,0.974
0.442000,512093,1000.00,12,0,1,1007.139,-6.723,4.975,947.880,-0.293,0.974
0.443000,512094,1000.00,12,0,1,1008.003,-4.304,5.011,949.321,1.159,0.988
0.444000,512095,1000.00,12,0,1,1008.652,-5.350,5.044,948.192,0.255,0.987
0.445000,512096,1000.00,12,0,1,1009.973,-3.122,4.994,948.168,-0.247,0.988
0.446000,512097,1000.00,12,0,1,1011.438,-2.016,4.907,947.808,-0.133,0.985
0.447000,512098,1000.00,12,0,1,1012.447,-0.263,4.907,946.895,-1.026,0.991
0.448000,512099,1000.00,12,0,1,1010.285,-1.247,4.840,946.991,-0.794,0.997
0.449000,512100,1000.00,12,0,1,1009.445,-1.629,4.794,946.871,-0.496,0.963
0.450000,512101,1000.00,12,0,1,1009.156,-0.049,4.721,948.648,0.817,0.967
0.451000,512102,1000.00,12,0,1,1014.729,4.780,4.677,949.129,1.828,1.000
0.452000,512103,1000.00,12,0,1,1016.555,8.559,4.683,946.751,-0.575,0.992
0.453000,512104,1000.00,12,0,1,1010.382,2.481,4.516,946.535,-1.100,1.004
0.454000,512105,1000.00,12,0,1,1004.424,-2.940,4.227,947.231,-0.074,0.999
0.455000,512106,1000.00,12,0,1,1003.824,-3.317,3.981,948.889,1.112,1.009
0.456000,512107,1000.00,12,0,1,1003.680,-2.337,3.935,947.567,0.440,1.010
0.457000,512108,1000.00,12,0,1,1004.809,-1.633,3.933,949.129,0.601,1.007
0.458000,512109,1000.00,12,0,1,1003.992,-1.983,3.943,948.672,1.145,1.008
0.459000,512110,1000.00,12,0,1,1006.923,-0.937,3.891,948.432,-0.261,1.006
0.460000,512111,1000.00,12,0,1,1012.784,3.753,3.770,948.096,-0.054,0.984
0.461000,512112,1000.00,12,0,1,1010.285,1.012,3.675,947.519,-0.974,0.982
0.462000,512113,1000.00,12,0,1,997.651,-11.270,3.987,946.919,-1.286,0.991
0.463000,512114,1000.00,12,0,1,1009.829,-4.244,3.994,945.430,-2.296,1.021
0.464000,512115,1000.00,12,0,1,1004.136,-2.418,3.997,946.438,-1.587,1.037
0.465000,512116,1000.00,12,0,1,1001.086,-10.825,4.243,947.039,-0.064,1.035
0.466000,512117,1000.00,12,0,1,1011.030,1.729,4.248,948.768,0.926,1.036
0.467000,512118,1000.00,12,0,1,1018.597,8.475,4.360,946.342,-0.050,1.012
0.468000,512119,1000.00,12,0,1,1016.939,7.576,4.473,947.231,-0.679,1.013
0.469000,512120,1000.00,12,0,1,1012.808,3.045,4.493,947.664,1.167,1.005
0.470000,512121,1000.00,12,0,1,1010.646,1.084,4.483,947.255,0.024,0.987
0.471000,512122,1000.00,12,0,1,1003.968,-2.591,4.498,949.273,1.896,1.015
0.472000,512123,1000.00,12,0,1,998.876,-7.178,4.611,948.192,1.343,1.032
0.473000,512124,1000.00,12,0,1,994.672,-7.353,4.725,947.880,0.053,1.031
0.474000,512125,1000.00,12,0,1,994.071,-7.067,4.829,947.880,0.610,1.034
0.475000,512126,1000.00,12,0,1,998.035,-0.876,4.795,950.234,1.714,1.055
0.476000,512127,1000.00,12,0,1,994.120,-2.441,4.778,950.018,2.270,1.093
0.477000,512128,1000.00,12,0,1,993.207,-4.057,4.808,949.801,0.718,1.081
0.478000,512129,1000.00,12,0,1,1007.331,7.928,4.910,951.171,1.975,1.116
0.479000,512130,1000.00,12,0,1,1011.607,13.035,5.206,948.768,-0.177,1.116
0.480000,512131,1000.00,12,0,1,1013.744,9.941,5.390,946.607,-2.810,1.170
0.481000,512132,1000.00,12,0,1,1014.465,9.303,5.435,949.009,-0.626,1.101
0.482000,512133,1000.00,12,0,1,1015.690,6.327,5.504,947.279,-1.143,1.112
0.483000,512134,1000.00,12,0,1,1022.656,9.940,5.675,948.432,-1.222,1.121
0.484000,512135,1000.00,12,0,1,1032.841,16.117,6.101,947.880,-0.288,1.116
0.485000,512136,1000.00,12,0,1,1032.000,13.428,6.382,948.889,-0.454,1.114
0.486000,512137,1000.00,12,0,1,1022.656,1.790,6.346,947.303,-0.561,1.102
0.487000,512138,1000.00,12,0,1,1023.713,-0.258,6.282,945.910,-2.551,1.159
0.488000,512139,1000.00,12,0,1,1021.743,0.140,6.216,950.234,1.371,1.152
0.489000,512140,1000.00,12,0,1,1016.098,-5.939,6.205,948.841,1.488,1.169
0.490000,512141,1000.00,12,0,1,1009.445,-9.473,6.330,947.111,-1.566,1.188
0.491000,512142,1000.00,12,0,1,1004.208,-12.731,6.548,947.543,-0.312,1.170
0.492000,512143,1000.00,12,0,1,1003.175,-10.668,6.652,948.865,0.379,1.171
0.493000,512144,1000.00,12,0,1,1006.370,-5.486,6.670,946.631,-0.683,1.163
0.494000,512145,1000.00,12,0,1,1008.868,-1.036,6.628,947.375,-1.195,1.175
0.495000,512146,1000.00,12,0,1,1008.124,-0.810,6.614,946.967,-0.246,1.175
0.496000,512147,1000.00,12,0,1,1003.271,-4.690,6.641,946.703,-1.240,1.188
0.497000,512148,1000.00,12,0,1,1007.187,-2.585,6.651,946.991,-0.381,1.180
0.498000,512149,1000.00,12,0,1,1007.475,-0.646,6.650,949.081,1.096,1.185
0.499000,512150,1000.00,12,0,1,1004.376,-5.304,6.688,946.847,-0.071,1.183
0.500000,512151,1000.00,12,0,1,1004.088,-5.979,6.741,947.399,-0.761,1.182
0.501000,512152,1000.00,12,0,1,1006.274,-4.550,6.738,947.351,0.276,1.154
0.502000,512153,1000.00,12,0,1,1006.682,-4.196,6.655,948.552,0.569,1.154
0.503000,512154,1000.00,12,0,1,1007.307,-4.155,6.672,949.129,1.631,1.166
0.504000,512155,1000.00,12,0,1,1012.303,-0.234,6.659,949.249,1.271,1.180
0.505000,512156,1000.00,12,0,1,1015.522,3.400,6.659,947.159,-0.363,1.171
0.506000,512157,1000.00,12,0,1,1016.050,3.137,6.666,946.390,-1.423,1.186
0.507000,512158,1000.00,12,0,1,1007.259,-2.993,6.675,948.360,0.462,1.185
0.508000,512159,1000.00,12,0,1,1006.226,-5.291,6.711,947.640,0.568,1.177
0.509000,512160,1000.00,12,0,1,1005.722,-1.406,6.713,947.808,-0.125,1.176
0.510000,512161,1000.00,12,0,1,1011.174,3.020,6.706,948.961,1.474,1.195
0.511000,512162,1000.00,12,0,1,1021.575,14.540,7.012,946.871,-0.428,1.188
0.512000,512163,1000.00,12,0,1,1015.426,10.585,6.991,946.847,-0.933,1.182
0.513000,512164,1000.00,12,0,1,1008.460,1.588,6.969,947.399,0.075,1.136
0.514000,512165,1000.00,12,0,1,1007.403,1.854,6.965,947.255,-0.192,1.114
0.515000,512166,1000.00,12,0,1,1006.658,0.919,6.796,948.192,0.543,1.117
0.516000,512167,1000.00,12,0,1,1006.082,0.683,6.793,947.471,0.174,1.109
0.517000,512168,1000.00,12,0,1,1006.850,0.494,6.686,949.009,0.749,1.114
0.518000,512169,1000.00,12,0,1,1004.569,-1.534,6.604,947.760,0.489,1.112
0.519000,512170,1000.00,12,0,1,1002.335,-4.983,6.627,947.183,-1.097,1.111
0.520000,512171,1000.00,12,0,1,1004.040,-4.108,6.651,949.105,0.984,1.120
0.521000,512172,1000.00,12,0,1,1007.619,-1.486,6.644,947.664,0.005,1.087
0.522000,512173,1000.00,12,0,1,1007.763,-1.781,6.571,947.760,-0.694,1.075
0.523000,512174,1000.00,12,0,1,1007.739,-3.026,6.502,949.273,1.162,1.087
0.524000,512175,1000.00,12,0,1,1013.985,1.443,6.428,948.288,0.247,1.084
0.525000,512176,1000.00,12,0,1,1019.173,6.310,6.488,949.369,0.682,1.061
0.526000,512177,1000.00,12,0,1,1019.798,5.679,6.529,948.720,0.702,1.016
0.527000,512178,1000.00,12,0,1,1017.612,3.236,6.520,948.072,-0.524,1.014
0.528000,512179,1000.00,12,0,1,1014.081,-0.105,6.423,947.327,-0.704,0.980
0.529000,512180,1000.00,12,0,1,1012.639,-0.911,6.154,947.447,-0.846,0.987
0.530000,512181,1000.00,12,0,1,1010.478,-1.162,5.993,946.366,-1.172,0.918
0.531000,512182,1000.00,12,0,1,1008.868,-1.553,5.851,948.841,0.363,0.916
0.532000,512183,1000.00,12,0,1,1007.259,-1.090,5.784,948.841,1.437,0.924
0.533000,512184,1000.00,12,0,1,1006.202,-0.944,5.613,947.279,-0.754,0.914
0.534000,512185,1000.00,12,0,1,1004.400,-1.062,5.131,945.670,-1.836,0.949
0.535000,512186,1000.00,12,0,1,1007.211,1.284,4.770,945.406,-2.155,0.995
0.536000,512187,1000.00,12,0,1,1002.359,-0.940,4.765,947.087,-0.416,0.993
0.537000,512188,1000.00,12,0,1,998.155,-6.496,4.853,946.919,0.027,0.925
0.538000,512189,1000.00,12,0,1,996.570,-6.626,4.942,948.144,0.404,0.907
0.539000,512190,1000.00,12,0,1,996.498,-6.987,4.970,946.631,0.010,0.882
0.540000,512191,1000.00,12,0,1,998.011,-5.287,4.844,947.039,-0.801,0.861
0.541000,512192,1000.00,12,0,1,999.692,-3.827,4.529,949.105,1.784,0.896
0.542000,512193,1000.00,12,0,1,1002.575,-1.924,4.279,948.600,1.130,0.909
0.543000,512194,1000.00,12,0,1,1008.364,2.642,4.225,948.480,0.609,0.908
0.544000,512195,1000.00,12,0,1,1010.886,4.450,4.269,949.105,1.181,0.907
0.545000,512196,1000.00,12,0,1,1010.646,3.099,4.290,948.889,0.855,0.915
0.546000,512197,1000.00,12,0,1,1014.585,5.235,4.303,948.624,0.493,0.901
0.547000,512198,1000.00,12,0,1,1011.655,3.935,4.323,948.552,0.328,0.900
0.548000,512199,1000.00,12,0,1,1002.022,-5.092,4.382,946.054,-1.462,0.910
0.549000,512200,1000.00,12,0,1,998.924,-6.892,4.426,946.246,-1.850,0.947
0.550000,512201,1000.00,12,0,1,994.192,-7.303,4.465,946.390,-0.639,0.945
0.551000,512202,1000.00,12,0,1,990.973,-8.257,4.570,947.471,-0.113,0.945
0.552000,512203,1000.00,12,0,1,992.126,-3.712,4.562,947.760,0.822,0.949
0.553000,512204,1000.00,12,0,1,991.886,-1.055,4.526,945.982,-0.929,0.929
0.554000,512205,1000.00,12,0,1,994.552,2.489,4.540,948.168,0.456,0.914
0.555000,512206,1000.00,12,0,1,998.299,7.227,4.629,947.519,0.925,0.922
0.556000,512207,1000.00,12,0,1,995.753,5.253,4.667,946.030,-1.397,0.921
0.557000,512208,1000.00,12,0,1,993.279,1.687,4.654,947.736,0.312,0.920
0.558000,512209,1000.00,12,0,1,993.447,1.320,4.597,947.567,0.448,0.919
0.559000,512210,1000.00,12,0,1,996.906,3.055,4.613,947.111,-0.406,0.920
0.560000,512211,1000.00,12,0,1,998.347,3.667,4.622,946.847,-0.432,0.898
0.561000,512212,1000.00,12,0,1,1003.800,5.574,4.214,947.039,-0.453,0.899
0.562000,512213,1000.00,12,0,1,1006.706,7.397,4.076,947.159,-0.082,0.889
0.563000,512214,1000.00,12,0,1,999.236,-0.975,4.072,946.631,-0.540,0.892
0.564000,512215,1000.00,12,0,1,1004.713,0.078,4.063,947.207,-0.073,0.892
0.565000,512216,1000.00,12,0,1,1011.823,8.151,4.222,946.895,0.069,0.889
0.566000,512217,1000.00,12,0,1,1011.919,6.256,4.312,946.342,-0.557,0.892
0.567000,512218,1000.00,12,0,1,1012.639,5.982,4.394,946.631,-0.073,0.885
0.568000,512219,1000.00,12,0,1,1013.456,6.236,4.476,947.279,0.609,0.887
0.569000,512220,1000.00,12,0,1,1012.519,5.265,4.483,947.616,1.020,0.885
0.570000,512221,1000.00,12,0,1,1003.560,-1.444,4.450,946.078,-0.173,0.874
0.571000,512222,1000.00,12,0,1,998.828,-6.219,4.531,947.399,0.399,0.876
0.572000,512223,1000.00,12,0,1,1005.145,1.295,4.528,947.015,0.918,0.880
0.573000,512224,1000.00,12,0,1,1008.940,6.601,4.603,948.168,0.909,0.874
0.574000,512225,1000.00,12,0,1,1004.520,2.918,4.617,947.808,1.340,0.894
0.575000,512226,1000.00,12,0,1,994.960,-5.598,4.599,945.165,-1.580,0.916
0.576000,512227,1000.00,12,0,1,990.276,-10.122,4.749,946.727,-0.613,0.915
0.577000,512228,1000.00,12,0,1,990.588,-8.460,4.876,946.919,0.452,0.914
0.578000,512229,1000.00,12,0,1,994.240,-4.944,4.926,947.640,0.189,0.909
0.579000,512230,1000.00,12,0,1,995.104,-3.425,4.948,948.913,1.738,0.934
0.580000,512231,1000.00,12,0,1,995.200,-4.547,4.987,947.591,0.265,0.920
0.581000,512232,1000.00,12,0,1,1001.446,-0.271,4.982,946.943,-0.696,0.924
0.582000,512233,1000.00,12,0,1,1005.673,3.224,5.000,947.904,0.169,0.902
0.583000,512234,1000.00,12,0,1,1007.403,2.512,5.011,948.480,0.758,0.902
0.584000,512235,1000.00,12,0,1,1004.112,-0.888,5.010,948.312,0.514,0.867
0.585000,512236,1000.00,12,0,1,1002.166,-4.386,5.045,948.120,0.200,0.812
0.586000,512237,1000.00,12,0,1,1008.316,1.061,5.046,947.159,-0.507,0.813
0.587000,512238,1000.00,12,0,1,1013.792,6.818,5.054,947.928,-0.144,0.813
0.588000,512239,1000.00,12,0,1,1019.870,11.098,5.209,949.057,1.239,0.830
0.589000,512240,1000.00,12,0,1,1004.929,0.813,5.116,946.967,-0.465,0.832
0.590000,512241,1000.00,12,0,1,977.377,-24.241,6.112,946.607,-1.316,0.845
0.591000,512242,1000.00,12,0,1,981.629,-19.601,6.690,947.591,0.079,0.807
0.592000,512243,1000.00,12,0,1,990.588,-2.756,6.696,947.519,0.034,0.791
0.593000,512244,1000.00,12,0,1,997.915,4.265,6.712,946.222,-0.985,0.799
0.594000,512245,1000.00,12,0,1,1001.230,10.397,6.843,948.240,0.269,0.782
0.595000,512246,1000.00,12,0,1,1001.854,9.243,6.953,947.760,0.720,0.779
0.596000,512247,1000.00,12,0,1,998.924,6.646,6.977,946.318,-1.343,0.799
0.597000,512248,1000.00,12,0,1,997.554,3.121,6.968,947.567,-0.195,0.798
0.598000,512249,1000.00,12,0,1,994.840,0.253,6.931,946.222,-0.826,0.780
0.599000,512250,1000.00,12,0,1,997.963,0.513,6.863,948.432,0.068,0.734
0.600000,512251,1000.00,12,0,1,999.957,2.024,6.791,947.832,0.877,0.739
0.601000,512252,1000.00,12,0,1,1000.317,0.066,6.689,948.000,-0.395,0.741
0.602000,512253,1000.00,12,0,1,1000.821,-0.966,6.670,949.033,1.273,0.754
0.603000,512254,1000.00,12,0,1,1004.496,0.679,6.669,947.135,-0.617,0.747
0.604000,512255,1000.00,12,0,1,1006.730,1.958,6.666,948.240,-0.213,0.745
0.605000,512256,1000.00,12,0,1,1001.878,-2.519,6.596,948.624,0.950,0.746
0.606000,512257,1000.00,12,0,1,1000.917,-4.833,6.590,948.504,0.203,0.720
0.607000,512258,1000.00,12,0,1,999.836,-3.376,6.603,947.303,-0.282,0.720
0.608000,512259,1000.00,12,0,1,1001.061,-2.274,6.608,948.456,0.016,0.717
0.609000,512260,1000.00,12,0,1,1001.134,0.659,6.595,945.598,-1.164,0.733
0.610000,512261,1000.00,12,0,1,993.687,-4.213,6.601,945.430,-2.512,0.812
0.611000,512262,1000.00,12,0,1,988.547,-7.358,6.636,948.168,1.021,0.823
0.612000,512263,1000.00,12,0,1,992.342,-1.666,6.557,946.775,0.117,0.823
0.613000,512264,1000.00,12,0,1,991.669,1.144,6.558,946.511,-0.790,0.827
0.614000,512265,1000.00,12,0,1,988.595,-1.080,6.560,946.126,-0.379,0.829
0.615000,512266,1000.00,12,0,1,988.523,-0.124,6.458,947.111,-0.174,0.829
0.616000,512267,1000.00,12,0,1,990.036,1.734,6.401,947.207,0.656,0.830
0.617000,512268,1000.00,12,0,1,992.318,3.387,6.363,947.832,0.412,0.832
0.618000,512269,1000.00,12,0,1,992.510,3.037,6.317,948.528,1.343,0.849
0.619000,512270,1000.00,12,0,1,991.237,0.248,6.273,946.751,-0.433,0.839
0.620000,512271,1000.00,12,0,1,992.438,-0.187,6.269,948.672,0.462,0.841
0.621000,512272,1000.00,12,0,1,994.912,0.763,6.208,946.655,-0.114,0.840
0.622000,512273,1000.00,12,0,1,1002.094,5.023,6.246,949.297,0.354,0.831
0.623000,512274,1000.00,12,0,1,1007.499,8.802,6.300,948.408,1.533,0.849
0.624000,512275,1000.00,12,0,1,1007.979,6.877,6.361,945.958,-2.158,0.882
0.625000,512276,1000.00,12,0,1,1007.667,4.589,6.345,946.006,-1.376,0.875
0.626000,512277,1000.00,12,0,1,1013.985,8.104,6.287,946.847,-0.499,0.874
0.627000,512278,1000.00,12,0,1,1014.489,9.082,6.304,945.189,-1.303,0.891
0.628000,512279,1000.00,12,0,1,1008.532,2.285,6.274,947.231,-0.003,0.890
0.629000,512280,1000.00,12,0,1,998.828,-5.471,6.303,946.318,0.456,0.858
0.630000,512281,1000.00,12,0,1,996.570,-7.265,6.353,947.351,0.336,0.859
0.631000,512282,1000.00,12,0,1,996.546,-3.778,6.376,947.808,1.614,0.883
0.632000,512283,1000.00,12,0,1,999.164,-0.332,6.360,945.886,-0.419,0.885
0.633000,512284,1000.00,12,0,1,996.618,0.223,6.350,945.910,-0.749,0.885
0.634000,512285,1000.00,12,0,1,993.999,-2.326,6.357,945.766,-0.258,0.882
0.635000,512286,1000.00,12,0,1,994.312,-1.031,6.328,946.679,-0.034,0.882
0.636000,512287,1000.00,12,0,1,992.486,-2.012,6.333,948.000,1.595,0.907
0.637000,512288,1000.00,12,0,1,988.547,-5.838,6.313,947.159,0.512,0.910
0.638000,512289,1000.00,12,0,1,987.682,-6.869,6.192,947.784,0.613,0.897
0.639000,512290,1000.00,12,0,1,996.089,-0.682,6.192,949.897,2.296,0.952
0.640000,512291,1000.00,12,0,1,1005.433,7.490,5.263,949.345,1.815,0.968
0.641000,512292,1000.00,12,0,1,1000.653,1.902,4.483,948.024,-0.082,0.968
0.642000,512293,1000.00,12,0,1,1001.302,-1.951,4.474,947.543,-0.550,0.971
0.643000,512294,1000.00,12,0,1,1007.043,2.929,4.453,945.886,-1.801,0.994
0.644000,512295,1000.00,12,0,1,1005.962,0.896,4.205,947.519,-0.754,0.999
0.645000,512296,1000.00,12,0,1,998.035,-6.686,4.107,948.817,1.269,1.010
0.646000,512297,1000.00,12,0,1,996.690,-8.541,4.176,947.135,-0.359,0.994
0.647000,512298,1000.00,12,0,1,999.260,-3.841,4.188,947.183,-0.576,0.997
0.648000,512299,1000.00,12,0,1,1001.182,-0.508,4.189,948.480,0.894,0.998
0.649000,512300,1000.00,12,0,1,998.731,-0.452,4.188,946.607,-0.415,0.999
0.650000,512301,1000.00,12,0,1,1002.839,3.395,4.206,947.159,-0.598,0.995
0.651000,512302,1000.00,12,0,1,1002.959,6.643,4.310,947.712,0.640,0.998
0.652000,512303,1000.00,12,0,1,1001.686,4.929,4.364,946.318,-0.804,0.988
0.653000,512304,1000.00,12,0,1,999.933,4.644,4.412,944.877,-2.001,1.024
0.654000,512305,1000.00,12,0,1,999.332,3.706,4.434,947.447,-0.031,1.024
0.655000,512306,1000.00,12,0,1,1005.649,8.411,4.577,945.406,-0.614,1.018
0.656000,512307,1000.00,12,0,1,1000.413,5.085,4.583,944.349,-2.677,1.086
0.657000,512308,1000.00,12,0,1,1000.365,0.222,4.558,946.078,-0.404,1.087
0.658000,512309,1000.00,12,0,1,997.074,-0.871,4.548,946.054,-0.187,1.087
0.659000,512310,1000.00,12,0,1,997.290,-4.869,4.599,948.144,1.081,1.086
0.660000,512311,1000.00,12,0,1,1001.494,-0.659,4.561,947.880,1.598,1.050
0.661000,512312,1000.00,12,0,1,1003.440,-0.878,4.443,946.775,-0.342,1.042
0.662000,512313,1000.00,12,0,1,1007.283,0.612,4.437,946.198,-0.431,1.043
0.663000,512314,1000.00,12,0,1,1008.460,0.921,4.436,948.264,0.827,1.044
0.664000,512315,1000.00,12,0,1,1002.287,-5.751,4.507,948.000,1.466,1.063
0.665000,512316,1000.00,12,0,1,998.876,-9.458,4.702,948.312,0.791,1.068
0.666000,512317,1000.00,12,0,1,995.777,-10.444,4.922,946.487,-0.001,1.064
0.667000,512318,1000.00,12,0,1,998.635,-6.941,4.996,947.519,-0.086,1.063
0.668000,512319,1000.00,12,0,1,1001.734,-1.080,4.980,947.183,0.759,1.051
0.669000,512320,1000.00,12,0,1,993.759,-5.339,5.037,948.144,0.708,1.054
0.670000,512321,1000.00,12,0,1,993.471,-5.621,5.099,948.120,1.384,1.070
0.671000,512322,1000.00,12,0,1,1001.518,5.093,5.148,948.192,0.792,1.076
0.672000,512323,1000.00,12,0,1,1004.328,9.136,5.260,947.255,0.199,1.075
0.673000,512324,1000.00,12,0,1,1001.013,6.604,5.196,946.847,-0.539,1.056
0.674000,512325,1000.00,12,0,1,995.609,1.539,5.108,948.889,1.013,1.021
0.675000,512326,1000.00,12,0,1,995.849,1.109,5.069,949.201,1.666,1.029
0.676000,512327,1000.00,12,0,1,998.035,3.543,4.964,947.183,-0.768,1.033
0.677000,512328,1000.00,12,0,1,1005.169,7.857,4.922,947.471,-0.826,1.023
0.678000,512329,1000.00,12,0,1,1008.027,9.942,5.108,948.024,-0.202,1.023
0.679000,512330,1000.00,12,0,1,1007.739,5.939,5.119,949.129,0.489,1.024
0.680000,512331,1000.00,12,0,1,1009.829,5.121,5.067,949.585,0.901,1.030
0.681000,512332,1000.00,12,0,1,1001.638,-3.078,5.057,948.312,-0.403,1.006
0.682000,512333,1000.00,12,0,1,996.714,-10.963,5.289,948.720,-0.531,1.008
0.683000,512334,1000.00,12,0,1,999.524,-7.648,5.399,948.913,0.065,1.002
0.684000,512335,1000.00,12,0,1,1006.899,-1.553,5.393,949.513,0.179,1.002
0.685000,512336,1000.00,12,0,1,1007.403,0.510,5.392,949.561,0.555,1.005
0.686000,512337,1000.00,12,0,1,986.697,-16.113,5.846,946.703,-1.874,1.014
0.687000,512338,1000.00,12,0,1,993.231,-13.850,6.110,946.487,-2.412,1.068
0.688000,512339,1000.00,12,0,1,999.092,0.418,6.033,946.751,-1.192,1.077
0.689000,512340,1000.00,12,0,1,987.946,-9.267,6.173,947.736,-0.464,1.029
0.690000,512341,1000.00,12,0,1,985.904,-9.152,6.217,947.231,-0.134,0.997
0.691000,512342,1000.00,12,0,1,993.879,1.106,6.214,946.871,-0.826,1.004
0.692000,512343,1000.00,12,0,1,998.611,7.820,6.305,947.279,-0.097,1.001
0.693000,512344,1000.00,12,0,1,999.452,9.044,6.420,945.093,-1.653,0.996
0.694000,512345,1000.00,12,0,1,1009.637,15.745,6.794,945.382,-1.900,1.026
0.695000,512346,1000.00,12,0,1,1013.216,19.673,7.281,947.712,0.816,1.017
0.696000,512347,1000.00,12,0,1,1008.532,11.058,7.348,948.865,1.707,1.044
0.697000,512348,1000.00,12,0,1,1004.496,5.104,7.364,946.991,0.151,1.041
0.698000,512349,1000.00,12,0,1,1002.983,1.028,7.365,949.129,0.868,1.040
0.699000,512350,1000.00,12,0,1,1003.175,-0.256,7.364,947.880,0.930,1.047
0.700000,512351,1000.00,12,0,1,1001.686,-2.808,7.359,947.808,-0.639,1.047
0.701000,512352,1000.00,12,0,1,1004.040,-2.696,7.309,946.847,-0.425,1.045
0.702000,512353,1000.00,12,0,1,1007.091,-0.172,7.276,948.432,-0.045,1.039
0.703000,512354,1000.00,12,0,1,1004.088,-3.503,7.263,946.438,-0.430,1.002
0.704000,512355,1000.00,12,0,1,1006.226,-3.228,7.259,946.390,-1.596,1.027
0.705000,512356,1000.00,12,0,1,1003.896,-3.432,7.177,947.279,0.272,1.024
0.706000,512357,1000.00,12,0,1,1001.518,-6.475,7.199,945.670,-0.959,0.961
0.707000,512358,1000.00,12,0,1,1003.247,-3.255,7.214,947.784,0.393,0.961
0.708000,512359,1000.00,12,0,1,1003.992,-1.185,7.215,949.225,2.761,1.037
0.709000,512360,1000.00,12,0,1,1013.024,6.429,7.239,947.760,0.826,1.032
0.710000,512361,1000.00,12,0,1,1020.999,15.113,7.548,948.576,1.324,1.024
0.711000,512362,1000.00,12,0,1,1013.408,7.948,7.630,948.336,1.262,1.038
0.712000,512363,1000.00,12,0,1,1005.938,-0.974,7.630,947.399,0.074,1.037
0.713000,512364,1000.00,12,0,1,995.849,-8.154,7.716,946.607,-0.656,1.034
0.714000,512365,1000.00,12,0,1,988.403,-14.785,7.953,945.670,-1.440,1.034
0.715000,512366,1000.00,12,0,1,990.613,-10.716,7.985,946.294,-1.004,1.037
0.716000,512367,1000.00,12,0,1,999.596,-1.271,7.849,947.447,0.301,1.038
0.717000,512368,1000.00,12,0,1,1005.385,4.858,7.818,949.249,1.557,1.061
0.718000,512369,1000.00,12,0,1,1003.920,2.652,7.825,950.018,2.230,1.102
0.719000,512370,1000.00,12,0,1,1000.965,-1.821,7.793,950.090,1.621,1.121
0.720000,512371,1000.00,12,0,1,993.831,-8.055,7.835,947.399,-0.677,1.108
0.721000,512372,1000.00,12,0,1,998.948,-6.124,7.850,946.631,-2.156,1.144
0.722000,512373,1000.00,12,0,1,1009.012,4.637,7.771,946.799,-1.299,1.158
0.723000,512374,1000.00,12,0,1,1009.060,3.924,7.734,947.712,-0.615,1.159
0.724000,512375,1000.00,12,0,1,1011.078,3.359,7.746,947.952,0.108,1.150
0.725000,512376,1000.00,12,0,1,1006.802,0.632,7.745,947.231,-0.530,1.128
0.726000,512377,1000.00,12,0,1,1003.728,-4.093,7.750,947.952,0.029,1.123
0.727000,512378,1000.00,12,0,1,1001.854,-3.536,7.687,947.928,0.517,1.119
0.728000,512379,1000.00,12,0,1,999.332,-5.067,7.591,947.880,0.160,1.119
0.729000,512380,1000.00,12,0,1,1000.365,-2.393,7.552,946.871,-0.258,1.117
0.730000,512381,1000.00,12,0,1,1004.737,3.026,7.529,947.135,-0.454,1.112
0.731000,512382,1000.00,12,0,1,1003.103,3.566,7.533,947.880,0.682,1.115
0.732000,512383,1000.00,12,0,1,996.882,-1.549,7.375,947.712,0.380,1.113
0.733000,512384,1000.00,12,0,1,1001.326,1.797,7.300,948.528,0.856,1.120
0.734000,512385,1000.00,12,0,1,1003.848,6.507,7.355,946.126,-0.796,1.125
0.735000,512386,1000.00,12,0,1,993.927,-2.535,7.363,946.823,-1.261,1.137
0.736000,512387,1000.00,12,0,1,994.600,-4.024,7.025,947.543,0.393,1.107
0.737000,512388,1000.00,12,0,1,995.321,-0.946,6.747,947.327,-0.416,1.054
0.738000,512389,1000.00,12,0,1,995.561,-2.465,6.756,948.768,0.845,1.048
0.739000,512390,1000.00,12,0,1,994.600,-2.524,6.637,948.264,0.580,1.049
0.740000,512391,1000.00,12,0,1,994.552,-3.900,6.533,946.342,-1.489,1.070
0.741000,512392,1000.00,12,0,1,994.960,-3.258,6.548,946.511,-1.375,1.081
0.742000,512393,1000.00,12,0,1,1005.073,3.787,6.476,947.327,-0.326,1.082
0.743000,512394,1000.00,12,0,1,1015.306,13.142,6.615,947.688,0.167,1.056
0.744000,512395,1000.00,12,0,1,1003.872,2.941,6.242,949.585,1.596,1.046
0.745000,512396,1000.00,12,0,1,993.015,-10.410,5.779,948.216,1.022,1.050
0.746000,512397,1000.00,12,0,1,996.594,-5.755,5.622,948.000,-0.142,1.022
0.747000,512398,1000.00,12,0,1,1001.806,0.802,5.577,948.600,1.013,1.032
0.748000,512399,1000.00,12,0,1,997.218,-0.972,5.577,948.120,0.359,1.026
0.749000,512400,1000.00,12,0,1,992.750,-4.918,5.620,949.489,1.317,1.034
0.750000,512401,1000.00,12,0,1,990.348,-4.332,5.639,948.528,0.951,1.039
0.751000,512402,1000.00,12,0,1,990.228,-2.876,5.641,947.327,-0.826,1.044
0.752000,512403,1000.00,12,0,1,988.090,-2.002,5.648,947.447,-0.434,1.046
0.753000,512404,1000.00,12,0,1,991.141,1.003,5.628,949.057,0.694,1.048
0.754000,512405,1000.00,12,0,1,990.925,3.327,5.629,948.168,0.408,1.025
0.755000,512406,1000.00,12,0,1,993.375,4.095,5.638,946.342,-1.789,1.055
0.756000,512407,1000.00,12,0,1,990.588,3.139,5.581,946.655,-1.466,1.067
0.757000,512408,1000.00,12,0,1,987.946,-1.301,5.565,948.120,-0.014,1.066
0.758000,512409,1000.00,12,0,1,991.982,1.832,5.568,945.646,-1.655,1.019
0.759000,512410,1000.00,12,0,1,996.450,5.334,5.545,948.168,-0.572,1.015
0.760000,512411,1000.00,12,0,1,1002.046,7.961,5.239,946.607,-0.169,0.998
0.761000,512412,1000.00,12,0,1,996.810,3.385,5.139,945.334,-2.662,1.052
0.762000,512413,1000.00,12,0,1,996.401,-1.480,5.142,946.535,-0.642,1.056
0.763000,512414,1000.00,12,0,1,999.092,2.074,5.020,947.255,0.082,1.052
0.764000,512415,1000.00,12,0,1,997.795,-0.395,4.564,946.799,-0.090,1.032
0.765000,512416,1000.00,12,0,1,998.131,-0.354,4.305,948.841,1.423,1.042
0.766000,512417,1000.00,12,0,1,1007.667,7.126,4.418,949.225,2.216,1.087
0.767000,512418,1000.00,12,0,1,1014.753,14.196,4.804,950.090,2.279,1.112
0.768000,512419,1000.00,12,0,1,1010.502,9.473,4.973,950.066,2.342,1.117
0.769000,512420,1000.00,12,0,1,1004.809,2.537,4.979,946.150,-1.107,1.104
0.770000,512421,1000.00,12,0,1,1010.982,6.901,4.944,946.342,-1.883,1.132
0.771000,512422,1000.00,12,0,1,1024.482,18.439,5.522,948.384,0.992,1.099
0.772000,512423,1000.00,12,0,1,1009.781,7.553,5.586,949.297,1.420,1.102
0.773000,512424,1000.00,12,0,1,981.076,-21.456,6.333,948.841,1.187,1.111
0.774000,512425,1000.00,12,0,1,986.025,-18.165,6.818,948.913,0.596,1.114
0.775000,512426,1000.00,12,0,1,994.552,-3.887,6.839,949.393,1.045,1.121
0.776000,512427,1000.00,12,0,1,995.080,-4.020,6.838,948.432,0.020,1.121
0.777000,512428,1000.00,12,0,1,991.597,-5.681,6.867,948.072,-0.711,1.124
0.778000,512429,1000.00,12,0,1,994.912,-4.659,6.861,948.432,-0.303,1.124
0.779000,512430,1000.00,12,0,1,1001.374,1.876,6.858,947.543,-1.052,1.133
0.780000,512431,1000.00,12,0,1,1005.241,3.783,6.866,947.087,-1.582,1.153
0.781000,512432,1000.00,12,0,1,1007.259,3.716,6.867,948.528,-0.296,1.150
0.782000,512433,1000.00,12,0,1,999.452,-3.645,6.883,949.801,1.061,1.159
0.783000,512434,1000.00,12,0,1,1000.749,-6.204,6.934,951.050,1.796,1.180
0.784000,512435,1000.00,12,0,1,1006.658,1.010,6.874,949.009,0.277,1.175
0.785000,512436,1000.00,12,0,1,1008.316,1.441,6.868,949.057,-0.693,1.166
0.786000,512437,1000.00,12,0,1,1014.489,6.025,6.897,949.369,0.315,1.165
0.787000,512438,1000.00,12,0,1,1016.651,8.409,6.998,948.744,-0.561,1.166
0.788000,512439,1000.00,12,0,1,1013.192,4.154,7.014,949.297,-0.030,1.160
0.789000,512440,1000.00,12,0,1,1006.418,-1.482,7.008,947.423,-1.143,1.169
0.790000,512441,1000.00,12,0,1,1000.821,-6.177,7.040,945.838,-2.877,1.219
0.791000,512442,1000.00,12,0,1,999.164,-5.793,7.073,948.576,-0.184,1.204
0.792000,512443,1000.00,12,0,1,996.209,-5.974,7.103,949.321,1.229,1.216
0.793000,512444,1000.00,12,0,1,995.200,-5.554,6.900,947.616,-0.557,1.218
0.794000,512445,1000.00,12,0,1,997.002,-2.105,6.894,946.078,-1.891,1.226
0.795000,512446,1000.00,12,0,1,1001.398,2.279,6.743,947.808,-0.537,1.220
0.796000,512447,1000.00,12,0,1,1004.016,4.992,6.731,948.288,0.606,1.223
0.797000,512448,1000.00,12,0,1,1000.365,1.027,6.731,949.033,0.645,1.218
0.798000,512449,1000.00,12,0,1,1002.118,0.088,6.730,948.456,0.514,1.219
0.799000,512450,1000.00,12,0,1,1001.422,-0.076,6.694,946.631,-1.469,1.223
0.800000,512451,1000.00,12,0,1,1000.245,-3.581,6.685,946.919,-1.331,1.230
0.801000,512452,1000.00,12,0,1,1003.968,-1.061,6.674,946.727,-0.906,1.231
0.802000,512453,1000.00,12,0,1,1005.529,-0.161,6.668,947.399,-0.611,1.232
0.803000,512454,1000.00,12,0,1,1002.407,-3.775,6.688,946.847,-0.359,1.230
0.804000,512455,1000.00,12,0,1,1001.950,-5.013,6.709,948.480,0.409,1.230
0.805000,512456,1000.00,12,0,1,1006.418,-0.853,6.685,947.712,0.792,1.208
0.806000,512457,1000.00,12,0,1,1012.591,5.035,6.708,946.511,-1.021,1.199
0.807000,512458,1000.00,12,0,1,1008.412,2.542,6.715,946.511,-0.479,1.201
0.808000,512459,1000.00,12,0,1,997.170,-7.481,6.793,948.312,0.973,1.186
0.809000,512460,1000.00,12,0,1,991.886,-10.989,6.928,947.567,0.986,1.192
0.810000,512461,1000.00,12,0,1,999.692,-1.965,6.841,945.670,-1.049,1.201
0.811000,512462,1000.00,12,0,1,999.212,2.143,6.831,946.511,-0.345,1.141
0.812000,512463,1000.00,12,0,1,997.939,0.341,6.828,946.126,0.069,1.137
0.813000,512464,1000.00,12,0,1,998.275,2.847,6.834,948.408,1.264,1.151
0.814000,512465,1000.00,12,0,1,1001.734,5.388,6.876,950.162,3.556,1.256
0.815000,512466,1000.00,12,0,1,1000.149,5.183,6.915,949.129,1.857,1.268
0.816000,512467,1000.00,12,0,1,1000.893,3.573,6.860,947.111,-0.131,1.228
0.817000,512468,1000.00,12,0,1,1002.094,4.554,6.591,948.624,0.408,1.187
0.818000,512469,1000.00,12,0,1,1001.182,2.080,6.460,947.952,0.590,1.143
0.819000,512470,1000.00,12,0,1,1002.695,1.448,6.453,948.168,-0.250,1.132
0.820000,512471,1000.00,12,0,1,1002.190,0.401,6.379,949.393,1.195,1.114
0.821000,512472,1000.00,12,0,1,1003.896,-0.685,5.823,948.168,0.022,1.105
0.822000,512473,1000.00,12,0,1,1005.842,0.872,5.725,949.633,0.515,1.089
0.823000,512474,1000.00,12,0,1,1006.610,-0.182,4.855,948.480,0.419,1.077
0.824000,512475,1000.00,12,0,1,1008.940,1.219,4.123,948.264,-0.940,1.082
0.825000,512476,1000.00,12,0,1,1005.097,-1.870,4.095,949.249,0.655,1.076
0.826000,512477,1000.00,12,0,1,999.740,-7.106,4.178,948.168,-0.450,1.078
0.827000,512478,1000.00,12,0,1,1001.037,-5.042,4.162,947.591,-1.038,1.083
0.828000,512479,1000.00,12,0,1,1009.421,3.604,4.141,949.225,0.418,1.084
0.829000,512480,1000.00,12,0,1,1009.493,6.125,4.222,949.273,0.855,1.081
0.830000,512481,1000.00,12,0,1,999.572,-2.567,4.204,947.880,-0.598,1.060
0.831000,512482,1000.00,12,0,1,997.530,-4.512,4.219,949.105,0.135,1.060
0.832000,512483,1000.00,12,0,1,1001.638,1.460,4.193,948.768,0.471,1.051
0.833000,512484,1000.00,12,0,1,1001.854,2.924,4.121,949.849,0.534,1.023
0.834000,512485,1000.00,12,0,1,1008.604,7.637,4.257,948.264,-0.005,1.022
0.835000,512486,1000.00,12,0,1,1010.261,10.186,4.490,947.640,-1.628,1.043
0.836000,512487,1000.00,12,0,1,999.284,-1.162,4.411,947.135,-1.252,1.057
0.837000,512488,1000.00,12,0,1,994.792,-7.552,4.380,949.081,-0.202,1.055
0.838000,512489,1000.00,12,0,1,996.113,-5.511,4.410,949.225,0.769,1.060
0.839000,512490,1000.00,12,0,1,1003.319,-0.419,4.406,947.808,-1.052,1.058
0.840000,512491,1000.00,12,0,1,1014.225,8.742,4.492,947.640,-1.208,0.992
0.841000,512492,1000.00,12,0,1,1018.164,10.490,4.659,948.913,0.023,0.991
0.842000,512493,1000.00,12,0,1,1015.090,4.822,4.632,946.823,-1.311,0.994
0.843000,512494,1000.00,12,0,1,1016.171,2.550,4.579,949.033,-0.251,0.991
0.844000,512495,1000.00,12,0,1,1012.567,-0.662,4.570,948.720,0.827,0.961
0.845000,512496,1000.00,12,0,1,1003.776,-9.563,4.755,948.793,-0.177,0.959
0.846000,512497,1000.00,12,0,1,1002.239,-10.773,4.943,948.000,-0.041,0.955
0.847000,512498,1000.00,12,0,1,1000.317,-9.279,5.112,948.793,-0.000,0.951
0.848000,512499,1000.00,12,0,1,991.717,-14.386,5.502,947.952,0.056,0.948
0.849000,512500,1000.00,12,0,1,983.526,-18.504,6.093,948.624,0.013,0.925
0.850000,512501,1000.00,12,0,1,979.275,-18.003,6.584,947.399,-0.262,0.906
0.851000,512502,1000.00,12,0,1,980.115,-12.812,6.827,948.768,0.157,0.897
0.852000,512503,1000.00,12,0,1,986.601,-3.321,6.843,949.057,1.230,0.910
0.853000,512504,1000.00,12,0,1,993.231,5.487,6.866,950.594,1.730,0.941
0.854000,512505,1000.00,12,0,1,1000.533,12.095,7.041,950.954,2.348,0.996
0.855000,512506,1000.00,12,0,1,1006.082,16.490,7.416,949.321,0.387,0.991
0.856000,512507,1000.00,12,0,1,1012.760,19.222,7.866,949.369,-0.175,0.981
0.857000,512508,1000.00,12,0,1,1012.255,16.738,8.207,947.952,-0.851,0.986
0.858000,512509,1000.00,12,0,1,1015.018,13.495,8.359,947.567,-1.932,1.014
0.859000,512510,1000.00,12,0,1,1009.373,7.534,8.282,947.736,-0.996,1.014
0.860000,512511,1000.00,12,0,1,1003.416,-2.669,8.286,946.583,-2.077,1.045
0.861000,512512,1000.00,12,0,1,1003.440,-3.353,8.294,948.504,-0.444,1.046
0.862000,512513,1000.00,12,0,1,1005.361,-2.441,8.301,948.216,0.148,1.046
0.863000,512514,1000.00,12,0,1,1004.761,-2.910,8.302,949.369,0.331,1.032
0.864000,512515,1000.00,12,0,1,1003.728,-3.923,8.285,948.672,0.620,0.905
0.865000,512516,1000.00,12,0,1,1004.929,-2.644,8.261,946.006,-2.223,0.922
0.866000,512517,1000.00,12,0,1,1011.607,3.705,8.262,947.183,-1.220,0.938
0.867000,512518,1000.00,12,0,1,1024.890,14.866,8.501,948.072,0.400,0.937
0.868000,512519,1000.00,12,0,1,1032.024,21.249,9.012,948.793,0.683,0.939
0.869000,512520,1000.00,12,0,1,1000.149,-5.405,9.042,947.808,0.370,0.939
0.870000,512521,1000.00,12,0,1,983.526,-26.174,9.770,947.447,-0.536,0.927
0.871000,512522,1000.00,12,0,1,988.258,-15.138,10.002,950.330,2.087,0.973
0.872000,512523,1000.00,12,0,1,995.128,-6.441,10.042,949.345,1.732,1.001
0.873000,512524,1000.00,12,0,1,992.534,-4.751,10.065,948.024,-0.394,1.001
0.874000,512525,1000.00,12,0,1,989.916,-7.246,10.115,948.841,0.492,0.994
0.875000,512526,1000.00,12,0,1,991.069,-4.714,10.134,948.528,0.277,0.991
0.876000,512527,1000.00,12,0,1,996.426,0.322,10.084,948.793,0.181,0.989
0.877000,512528,1000.00,12,0,1,997.170,1.460,10.061,949.681,1.021,0.989
0.878000,512529,1000.00,12,0,1,1000.725,2.611,10.055,948.312,-0.122,0.987
0.879000,512530,1000.00,12,0,1,997.074,-0.204,10.017,947.543,-1.216,0.994
0.880000,512531,1000.00,12,0,1,993.831,-5.473,10.040,948.072,-0.524,0.994
0.881000,512532,1000.00,12,0,1,1001.086,0.151,10.020,949.825,0.918,1.002
0.882000,512533,1000.00,12,0,1,1007.043,6.201,10.056,948.360,0.141,1.000
0.883000,512534,1000.00,12,0,1,1006.778,4.482,10.068,946.487,-2.080,1.040
0.884000,512535,1000.00,12,0,1,1002.527,0.490,10.010,947.591,-0.924,1.048
0.885000,512536,1000.00,12,0,1,998.299,-3.833,9.921,947.279,-0.538,1.025
0.886000,512537,1000.00,12,0,1,990.637,-8.292,9.988,945.934,-1.828,1.042
0.887000,512538,1000.00,12,0,1,990.324,-8.156,9.998,947.327,-0.500,1.044
0.888000,512539,1000.00,12,0,1,995.224,-0.029,9.967,950.330,2.361,1.091
0.889000,512540,1000.00,12,0,1,1001.470,6.726,10.013,949.129,1.710,1.107
0.890000,512541,1000.00,12,0,1,994.888,3.953,9.952,947.928,-0.287,1.095
0.891000,512542,1000.00,12,0,1,984.511,-5.968,9.877,949.081,0.852,1.101
0.892000,512543,1000.00,12,0,1,984.295,-4.808,9.876,950.642,2.065,1.124
0.893000,512544,1000.00,12,0,1,991.093,3.047,9.879,947.616,-0.234,1.124
0.894000,512545,1000.00,12,0,1,992.558,5.668,9.911,948.961,-0.417,1.120
0.895000,512546,1000.00,12,0,1,988.715,1.665,9.821,950.114,1.742,1.146
0.896000,512547,1000.00,12,0,1,983.070,-3.897,9.718,952.324,2.482,1.199
0.897000,512548,1000.00,12,0,1,983.070,-4.644,9.651,949.537,0.937,1.206
0.898000,512549,1000.00,12,0,1,989.700,1.028,9.436,948.648,-1.513,1.225
0.899000,512550,1000.00,12,0,1,1001.734,10.522,9.187,949.921,0.360,1.226
0.900000,512551,1000.00,12,0,1,1005.337,12.864,9.013,950.474,0.619,1.228
0.901000,512552,1000.00,12,0,1,1003.512,7.540,8.893,949.681,-0.094,1.228
0.902000,512553,1000.00,12,0,1,1006.562,7.342,8.941,949.033,-0.794,1.221
0.903000,512554,1000.00,12,0,1,1004.689,5.149,8.937,948.168,-1.519,1.215
0.904000,512555,1000.00,12,0,1,998.083,-2.548,8.779,948.672,-0.987,1.178
0.905000,512556,1000.00,12,0,1,1001.662,-0.405,8.464,948.408,-0.887,1.183
0.906000,512557,1000.00,12,0,1,1004.929,4.360,8.039,950.474,0.616,1.186
0.907000,512558,1000.00,12,0,1,1002.479,2.209,7.689,948.168,-0.486,1.182
0.908000,512559,1000.00,12,0,1,993.831,-4.109,7.471,949.489,-0.700,1.154
0.909000,512560,1000.00,12,0,1,991.910,-5.898,7.441,950.594,1.470,1.164
0.910000,512561,1000.00,12,0,1,994.960,-0.356,7.432,949.201,-0.362,1.128
0.911000,512562,1000.00,12,0,1,997.915,3.321,7.432,947.519,-1.771,1.153
0.912000,512563,1000.00,12,0,1,1006.730,10.627,7.574,947.399,-1.875,1.183
0.913000,512564,1000.00,12,0,1,997.314,4.754,7.593,948.528,-0.646,1.186
0.914000,512565,1000.00,12,0,1,987.105,-8.559,7.669,948.552,-0.139,1.183
0.915000,512566,1000.00,12,0,1,984.944,-8.674,7.757,948.696,-0.339,1.141
0.916000,512567,1000.00,12,0,1,981.749,-11.003,7.894,948.408,-0.133,1.128
0.917000,512568,1000.00,12,0,1,985.664,-7.691,7.687,948.648,-0.280,1.128
0.918000,512569,1000.00,12,0,1,985.400,-5.749,7.121,948.288,-0.100,1.124
0.919000,512570,1000.00,12,0,1,977.858,-12.902,7.312,950.882,1.474,1.141
0.920000,512571,1000.00,12,0,1,972.573,-16.705,6.733,949.537,1.360,1.155
0.921000,512572,1000.00,12,0,1,978.674,-10.724,6.562,949.585,-0.044,1.117
0.922000,512573,1000.00,12,0,1,987.226,-0.362,6.498,949.849,1.038,1.099
0.923000,512574,1000.00,12,0,1,987.154,0.585,6.464,950.618,0.959,1.106
0.924000,512575,1000.00,12,0,1,995.273,6.051,6.440,949.441,0.427,1.106
0.925000,512576,1000.00,12,0,1,996.954,10.177,6.565,950.954,0.803,1.111
0.926000,512577,1000.00,12,0,1,990.324,2.703,6.576,949.729,0.620,1.114
0.927000,512578,1000.00,12,0,1,996.666,7.337,6.654,950.210,-0.104,1.105
0.928000,512579,1000.00,12,0,1,1000.557,13.197,6.901,948.360,-0.728,1.109
0.929000,512580,1000.00,12,0,1,1000.125,11.199,7.080,949.561,-0.775,1.102
0.930000,512581,1000.00,12,0,1,1000.797,11.708,7.230,951.026,1.422,1.117
0.931000,512582,1000.00,12,0,1,997.723,8.544,7.330,949.873,0.132,1.110
0.932000,512583,1000.00,12,0,1,998.924,7.939,7.363,950.306,-0.039,1.110
0.933000,512584,1000.00,12,0,1,990.588,2.206,7.343,948.312,-0.993,1.079
0.934000,512585,1000.00,12,0,1,981.797,-7.902,7.427,947.447,-2.653,1.135
0.935000,512586,1000.00,12,0,1,982.229,-6.506,7.464,946.991,-1.924,1.165
0.936000,512587,1000.00,12,0,1,985.592,-2.848,7.382,947.327,-1.959,1.169
0.937000,512588,1000.00,12,0,1,993.783,3.550,7.309,949.970,0.886,1.173
0.938000,512589,1000.00,12,0,1,996.089,5.763,7.354,950.738,1.783,1.153
0.939000,512590,1000.00,12,0,1,995.176,1.706,7.297,949.970,0.757,1.132
0.940000,512591,1000.00,12,0,1,999.909,3.754,7.294,949.129,-0.113,1.132
0.941000,512592,1000.00,12,0,1,1003.968,5.695,7.290,948.552,-0.721,1.130
0.942000,512593,1000.00,12,0,1,1006.634,5.455,7.299,946.727,-1.936,1.125
0.943000,512594,1000.00,12,0,1,1004.088,1.886,7.291,947.063,-1.880,1.156
0.944000,512595,1000.00,12,0,1,999.044,-4.437,7.274,948.793,0.330,1.155
0.945000,512596,1000.00,12,0,1,998.900,-5.045,7.305,951.050,2.174,1.170
0.946000,512597,1000.00,12,0,1,1005.697,1.203,7.287,949.393,1.217,1.129
0.947000,512598,1000.00,12,0,1,1002.503,0.722,7.258,947.832,-1.023,1.131
0.948000,512599,1000.00,12,0,1,997.242,-4.985,7.290,946.511,-1.594,1.133
0.949000,512600,1000.00,12,0,1,997.338,-3.165,7.151,948.841,-0.024,1.132
0.950000,512601,1000.00,12,0,1,997.242,-1.488,6.919,948.672,0.983,1.137
0.951000,512602,1000.00,12,0,1,997.410,-0.319,6.836,945.958,-1.885,1.168
0.952000,512603,1000.00,12,0,1,987.802,-6.056,6.811,948.216,-0.216,1.163
0.953000,512604,1000.00,12,0,1,979.635,-13.620,7.041,949.393,1.847,1.172
0.954000,512605,1000.00,12,0,1,984.511,-7.232,7.105,948.240,0.219,1.164
0.955000,512606,1000.00,12,0,1,987.826,-1.615,7.109,948.793,0.631,1.161
0.956000,512607,1000.00,12,0,1,986.289,-2.878,7.094,949.273,1.047,1.167
0.957000,512608,1000.00,12,0,1,984.848,-4.245,7.112,950.498,1.782,1.192
0.958000,512609,1000.00,12,0,1,985.160,-4.311,7.115,949.729,1.253,1.201
0.959000,512610,1000.00,12,0,1,989.604,-1.026,7.067,949.537,0.335,1.184
0.960000,512611,1000.00,12,0,1,993.711,2.303,7.074,947.567,-0.886,1.189
0.961000,512612,1000.00,12,0,1,992.846,0.582,7.059,948.096,-1.198,1.175
0.962000,512613,1000.00,12,0,1,992.486,-1.309,6.900,949.129,0.530,1.147
0.963000,512614,1000.00,12,0,1,998.467,2.975,6.880,951.026,1.659,1.167
0.964000,512615,1000.00,12,0,1,1003.295,7.346,6.852,948.600,0.270,1.168
0.965000,512616,1000.00,12,0,1,992.438,-1.541,6.745,949.873,-0.062,1.167
0.966000,512617,1000.00,12,0,1,989.267,-6.825,6.633,949.321,0.779,1.172
0.967000,512618,1000.00,12,0,1,993.063,-0.100,6.543,949.537,-0.202,1.171
0.968000,512619,1000.00,12,0,1,985.472,-4.252,6.521,947.832,-0.738,1.176
0.969000,512620,1000.00,12,0,1,985.112,-4.687,6.295,947.880,-1.503,1.177
0.970000,512621,1000.00,12,0,1,987.946,1.958,5.841,948.672,-0.092,1.161
0.971000,512622,1000.00,12,0,1,984.463,0.346,5.641,948.480,-0.247,1.161
0.972000,512623,1000.00,12,0,1,979.323,-2.613,5.653,948.048,-0.703,1.156
0.973000,512624,1000.00,12,0,1,979.539,-1.642,5.657,949.537,0.592,1.151
0.974000,512625,1000.00,12,0,1,984.775,4.262,5.625,947.928,-0.394,1.151
0.975000,512626,1000.00,12,0,1,990.300,9.206,5.591,947.471,-1.378,1.162
0.976000,512627,1000.00,12,0,1,988.355,6.975,5.665,948.696,0.037,1.159
0.977000,512628,1000.00,12,0,1,978.146,-3.495,5.591,949.225,0.642,1.162
0.978000,512629,1000.00,12,0,1,981.461,-3.747,5.296,947.567,-0.783,1.163
0.979000,512630,1000.00,12,0,1,992.198,6.598,5.140,947.255,-1.301,1.172
0.980000,512631,1000.00,12,0,1,995.417,7.850,4.991,947.712,-0.549,1.158
0.981000,512632,1000.00,12,0,1,999.068,7.806,4.966,949.369,0.858,1.164
0.982000,512633,1000.00,12,0,1,1000.197,7.269,4.946,949.105,0.998,1.172
0.983000,512634,1000.00,12,0,1,999.332,3.722,4.964,949.994,1.129,1.175
0.984000,512635,1000.00,12,0,1,996.353,0.347,4.837,950.474,1.839,1.143
0.985000,512636,1000.00,12,0,1,994.120,-2.662,4.763,952.948,3.145,1.196
0.986000,512637,1000.00,12,0,1,998.587,1.306,4.750,951.435,2.349,1.210
0.987000,512638,1000.00,12,0,1,996.017,1.292,4.727,949.105,-0.897,1.210
0.988000,512639,1000.00,12,0,1,986.361,-6.988,4.760,948.480,-1.249,1.197
0.989000,512640,1000.00,12,0,1,982.710,-8.819,4.915,947.327,-1.992,1.225
0.990000,512641,1000.00,12,0,1,982.037,-6.178,4.963,950.858,0.557,1.227
0.991000,512642,1000.00,12,0,1,981.605,-4.226,4.934,949.201,0.716,1.227
0.992000,512643,1000.00,12,0,1,981.773,-1.911,4.881,947.976,-2.004,1.229
0.993000,512644,1000.00,12,0,1,978.554,-2.867,4.890,949.801,0.485,1.202
0.994000,512645,1000.00,12,0,1,982.950,0.479,4.850,948.865,-0.293,1.202
0.995000,512646,1000.00,12,0,1,981.076,1.428,4.802,947.495,-1.702,1.187
0.996000,512647,1000.00,12,0,1,980.764,-1.529,4.804,947.928,-1.204,1.186
0.997000,512648,1000.00,12,0,1,981.821,0.262,4.803,948.264,-0.639,1.181
0.998000,512649,1000.00,12,0,1,983.502,-0.164,4.751,947.519,-1.069,1.169
0.999000,512650,1000.00,12,0,1,980.428,-2.811,4.746,949.177,0.006,1.169
1.000000,512651,1000.00,12,0,1,982.421,-3.558,4.768,949.297,0.856,1.167
1.001000,512652,1000.00,12,0,1,987.322,1.027,4.770,949.825,0.518,1.139
1.002000,512653,1000.00,12,0,1,986.865,0.183,4.693,949.609,0.817,1.144
1.003000,512654,1000.00,12,0,1,992.030,2.522,4.294,949.489,0.116,1.114
1.004000,512655,1000.00,12,0,1,994.432,5.996,4.256,948.937,-0.049,1.114
1.005000,512656,1000.00,12,0,1,993.327,3.228,4.274,947.976,-1.036,1.120
1.006000,512657,1000.00,12,0,1,990.204,1.428,4.259,946.967,-1.663,1.134
1.007000,512658,1000.00,12,0,1,990.757,1.288,4.221,946.535,-1.779,1.134
1.008000,512659,1000.00,12,0,1,993.087,5.171,4.240,948.240,-0.148,1.121
1.009000,512660,1000.00,12,0,1,989.628,3.253,4.263,947.832,0.326,1.121
1.010000,512661,1000.00,12,0,1,986.193,0.470,4.251,948.456,0.225,1.114
1.011000,512662,1000.00,12,0,1,986.217,1.745,4.257,948.576,1.041,1.111
1.012000,512663,1000.00,12,0,1,983.406,0.659,4.254,948.144,0.183,1.109
1.013000,512664,1000.00,12,0,1,975.840,-5.011,4.292,949.129,1.072,1.094
1.014000,512665,1000.00,12,0,1,970.483,-9.294,4.367,946.847,-0.507,1.096
1.015000,512666,1000.00,12,0,1,967.457,-10.061,4.588,947.591,-0.822,1.102
1.016000,512667,1000.00,12,0,1,966.568,-9.810,4.695,948.889,1.251,1.110
1.017000,512668,1000.00,12,0,1,965.367,-9.220,4.872,947.640,-0.191,1.110
1.018000,512669,1000.00,12,0,1,971.636,-4.277,4.873,948.793,0.444,1.107
1.019000,512670,1000.00,12,0,1,982.998,6.222,4.907,948.264,0.532,1.089
1.020000,512671,1000.00,12,0,1,987.442,9.201,5.069,947.808,-0.546,1.092
1.021000,512672,1000.00,12,0,1,993.207,10.496,5.282,946.679,-0.960,1.100
1.022000,512673,1000.00,12,0,1,994.071,10.107,5.459,947.567,-0.711,1.100
1.023000,512674,1000.00,12,0,1,984.751,-0.605,5.455,948.360,0.730,1.102
1.024000,512675,1000.00,12,0,1,1003.800,10.720,5.630,948.600,0.609,1.103
1.025000,512676,1000.00,12,0,1,1015.258,24.831,6.506,948.216,0.468,1.088
1.026000,512677,1000.00,12,0,1,1000.605,7.772,6.524,949.873,1.450,1.107
1.027000,512678,1000.00,12,0,1,995.873,-0.013,6.505,948.072,0.574,1.107
1.028000,512679,1000.00,12,0,1,992.150,-0.617,6.484,948.528,-0.147,1.101
1.029000,512680,1000.00,12,0,1,990.108,-3.141,6.432,949.681,1.601,1.109
1.030000,512681,1000.00,12,0,1,996.834,4.715,6.371,949.465,1.025,1.116
1.031000,512682,1000.00,12,0,1,1002.575,10.673,6.453,949.009,0.476,1.111
1.032000,512683,1000.00,12,0,1,979.515,-6.362,6.434,949.393,0.625,1.106
1.033000,512684,1000.00,12,0,1,979.659,-12.505,6.652,950.162,1.118,1.105
1.034000,512685,1000.00,12,0,1,983.502,-1.316,6.654,949.393,0.538,1.077
1.035000,512686,1000.00,12,0,1,983.959,-3.850,6.666,948.336,-0.890,0.989
1.036000,512687,1000.00,12,0,1,988.739,1.434,6.666,948.768,-0.465,0.934
1.037000,512688,1000.00,12,0,1,975.672,-9.014,6.785,947.712,-1.152,0.940
1.038000,512689,1000.00,12,0,1,979.779,-11.118,6.894,948.000,-1.226,0.939
1.039000,512690,1000.00,12,0,1,989.484,1.534,6.784,948.985,0.020,0.896
1.040000,512691,1000.00,12,0,1,988.595,-2.327,6.735,950.570,1.156,0.907
1.041000,512692,1000.00,12,0,1,982.421,-7.931,6.802,948.552,-0.153,0.902
1.042000,512693,1000.00,12,0,1,983.454,-9.534,6.929,948.384,-1.272,0.875
1.043000,512694,1000.00,12,0,1,986.193,-5.170,6.956,947.928,-0.807,0.879
1.044000,512695,1000.00,12,0,1,984.607,-6.307,7.012,949.681,0.043,0.878
1.045000,512696,1000.00,12,0,1,985.400,-5.028,7.045,947.519,-0.646,0.850
1.046000,512697,1000.00,12,0,1,986.409,-1.959,7.047,949.705,-0.215,0.833
1.047000,512698,1000.00,12,0,1,982.566,-3.528,7.065,946.607,-0.843,0.837
1.048000,512699,1000.00,12,0,1,984.439,-0.690,7.066,948.192,-1.536,0.851
1.049000,512700,1000.00,12,0,1,982.854,1.563,7.058,951.002,2.724,0.934
1.050000,512701,1000.00,12,0,1,988.763,6.474,7.099,950.714,1.768,0.960
1.051000,512702,1000.00,12,0,1,990.805,11.747,7.290,948.480,-0.247,0.957
1.052000,512703,1000.00,12,0,1,983.118,4.581,7.318,950.330,0.673,0.955
1.053000,512704,1000.00,12,0,1,976.176,-1.584,7.313,949.873,0.992,0.965
1.054000,512705,1000.00,12,0,1,974.591,-2.265,7.271,947.327,-1.671,0.994
1.055000,512706,1000.00,12,0,1,980.308,2.740,7.267,946.390,-2.606,1.050
1.056000,512707,1000.00,12,0,1,988.523,10.159,7.405,946.559,-1.813,1.055
1.057000,512708,1000.00,12,0,1,981.365,3.523,7.419,947.616,-0.907,1.032
1.058000,512709,1000.00,12,0,1,984.439,0.868,7.384,949.825,1.443,1.052
1.059000,512710,1000.00,12,0,1,991.165,7.312,7.442,949.369,1.106,1.063
1.060000,512711,1000.00,12,0,1,1000.533,10.969,7.602,948.528,-0.027,1.062
1.061000,512712,1000.00,12,0,1,1010.766,17.442,7.988,947.279,-1.022,1.062
1.062000,512713,1000.00,12,0,1,1001.158,6.731,8.044,948.480,-0.294,1.062
1.063000,512714,1000.00,12,0,1,993.351,-6.232,8.061,948.937,0.695,1.056
1.064000,512715,1000.00,12,0,1,1003.151,1.596,7.956,949.201,0.505,1.056
1.065000,512716,1000.00,12,0,1,1003.440,3.296,7.842,947.231,-0.767,1.055
1.066000,512717,1000.00,12,0,1,997.362,-3.765,7.737,948.913,-0.141,1.040
1.067000,512718,1000.00,12,0,1,987.370,-10.725,7.775,948.672,0.816,1.046
1.068000,512719,1000.00,12,0,1,986.001,-11.595,7.923,948.768,-0.014,1.044
1.069000,512720,1000.00,12,0,1,988.186,-5.194,7.908,950.330,1.720,1.070
1.070000,512721,1000.00,12,0,1,979.275,-9.470,7.915,949.585,1.104,1.078
1.071000,512722,1000.00,12,0,1,980.067,-8.445,7.866,948.793,-0.129,1.070
1.072000,512723,1000.00,12,0,1,988.307,3.063,7.747,948.408,-0.195,1.066
1.073000,512724,1000.00,12,0,1,994.264,8.760,7.845,950.090,0.780,1.066
1.074000,512725,1000.00,12,0,1,995.849,10.188,7.830,949.129,0.731,1.068
1.075000,512726,1000.00,12,0,1,972.741,-9.008,7.114,948.408,-0.855,1.073
1.076000,512727,1000.00,12,0,1,971.996,-15.753,7.373,949.994,0.857,1.060
1.077000,512728,1000.00,12,0,1,982.157,-1.333,7.375,950.642,1.365,1.074
1.078000,512729,1000.00,12,0,1,992.774,5.003,7.409,950.738,1.112,1.085
1.079000,512730,1000.00,12,0,1,994.192,6.964,7.461,950.450,0.682,1.066
1.080000,512731,1000.00,12,0,1,993.351,1.571,7.434,950.138,0.050,1.056
1.081000,512732,1000.00,12,0,1,1001.878,6.466,7.337,949.609,-0.413,1.055
1.082000,512733,1000.00,12,0,1,987.202,-4.437,7.308,949.753,-0.557,1.055
1.083000,512734,1000.00,12,0,1,973.822,-21.481,7.714,949.321,-0.657,1.047
1.084000,512735,1000.00,12,0,1,987.346,-7.298,7.781,950.282,-0.213,1.045
1.085000,512736,1000.00,12,0,1,1007.403,12.548,7.962,949.801,-0.073,1.037
1.086000,512737,1000.00,12,0,1,1023.016,25.959,8.765,948.504,-1.582,1.059
1.087000,512738,1000.00,12,0,1,987.442,-1.390,8.674,948.817,-1.163,1.059
1.088000,512739,1000.00,12,0,1,970.435,-25.596,9.267,949.609,-0.199,1.045
1.089000,512740,1000.00,12,0,1,975.768,-11.106,9.397,949.777,0.047,1.045
1.090000,512741,1000.00,12,0,1,973.438,-9.898,9.494,949.393,-0.222,1.033
1.091000,512742,1000.00,12,0,1,970.243,-8.769,9.509,947.736,-1.537,1.055
1.092000,512743,1000.00,12,0,1,969.931,-5.678,9.447,949.057,-0.685,1.044
1.093000,512744,1000.00,12,0,1,965.799,-6.233,9.460,948.600,-0.156,1.038
1.094000,512745,1000.00,12,0,1,972.693,0.364,9.418,949.153,-0.360,1.039
1.095000,512746,1000.00,12,0,1,982.902,11.072,9.521,947.928,-0.545,1.038
1.096000,512747,1000.00,12,0,1,994.648,19.295,9.900,948.168,-1.060,1.049
1.097000,512748,1000.00,12,0,1,1002.935,23.544,10.433,949.009,0.371,1.043
1.098000,512749,1000.00,12,0,1,997.771,15.267,10.654,947.736,-0.708,1.025
1.099000,512750,1000.00,12,0,1,994.600,5.655,10.682,947.952,-0.822,0.957
1.100000,512751,1000.00,12,0,1,991.958,1.743,10.645,949.489,0.927,0.933
1.101000,512752,1000.00,12,0,1,992.510,-1.848,10.518,950.474,1.616,0.960
1.102000,512753,1000.00,12,0,1,1001.926,5.097,10.523,950.882,1.895,0.992
1.103000,512754,1000.00,12,0,1,1013.288,13.248,10.686,950.378,1.100,0.994
1.104000,512755,1000.00,12,0,1,1019.822,16.806,10.942,949.129,-0.113,0.966
1.105000,512756,1000.00,12,0,1,988.379,-9.010,11.009,947.351,-1.734,0.926
1.106000,512757,1000.00,12,0,1,978.770,-24.969,11.472,946.366,-2.432,0.954
1.107000,512758,1000.00,12,0,1,980.788,-13.383,11.617,947.976,-0.838,0.953
1.108000,512759,1000.00,12,0,1,976.272,-15.492,11.821,949.753,1.281,0.948
1.109000,512760,1000.00,12,0,1,975.840,-11.091,11.880,950.570,1.873,0.972
1.110000,512761,1000.00,12,0,1,976.656,-6.273,11.811,950.738,1.868,1.007
1.111000,512762,1000.00,12,0,1,978.098,-2.410,11.556,948.841,0.139,0.997
1.112000,512763,1000.00,12,0,1,993.639,11.916,11.639,948.288,-0.867,1.004
1.113000,512764,1000.00,12,0,1,995.609,16.319,11.833,946.991,-1.376,1.018
1.114000,512765,1000.00,12,0,1,980.596,0.478,11.831,948.360,-0.724,1.020
1.115000,512766,1000.00,12,0,1,962.676,-16.517,12.050,948.720,0.562,1.018
1.116000,512767,1000.00,12,0,1,970.027,-11.976,12.157,947.279,-1.080,1.029
1.117000,512768,1000.00,12,0,1,984.727,4.189,12.077,947.471,-0.889,1.030
1.118000,512769,1000.00,12,0,1,990.877,8.177,12.021,946.703,-1.046,1.040
1.119000,512770,1000.00,12,0,1,985.544,1.648,12.000,949.753,0.916,1.020
1.120000,512771,1000.00,12,0,1,974.351,-10.328,12.015,949.705,2.088,1.050
1.121000,512772,1000.00,12,0,1,984.055,-5.190,11.978,949.057,0.203,1.050
1.122000,512773,1000.00,12,0,1,992.246,5.875,11.998,948.600,0.340,1.051
1.123000,512774,1000.00,12,0,1,993.447,4.005,11.948,950.090,0.885,1.053
1.124000,512775,1000.00,12,0,1,994.600,5.387,11.885,949.994,1.405,1.066
1.125000,512776,1000.00,12,0,1,989.267,0.680,11.817,949.369,0.171,1.060
1.126000,512777,1000.00,12,0,1,988.523,-0.453,11.605,948.913,-0.096,1.053
1.127000,512778,1000.00,12,0,1,992.967,5.440,11.629,947.832,-0.990,1.045
1.128000,512779,1000.00,12,0,1,987.202,2.697,11.614,947.808,-1.121,1.045
1.129000,512780,1000.00,12,0,1,980.548,-2.972,11.580,948.768,0.130,1.041
1.130000,512781,1000.00,12,0,1,974.831,-5.129,11.600,948.240,-0.173,1.041
1.131000,512782,1000.00,12,0,1,973.342,-4.878,11.585,947.616,-0.716,1.044
1.132000,512783,1000.00,12,0,1,975.672,-0.295,11.568,948.624,0.112,1.041
1.133000,512784,1000.00,12,0,1,972.813,-0.781,11.162,950.426,1.864,1.070
1.134000,512785,1000.00,12,0,1,973.630,-0.922,11.115,948.913,0.693,1.074
1.135000,512786,1000.00,12,0,1,975.648,1.962,10.976,947.399,-1.229,1.088
1.136000,512787,1000.00,12,0,1,972.309,-1.857,10.347,948.360,-0.333,1.066
1.137000,512788,1000.00,12,0,1,987.202,7.337,10.397,948.672,0.252,1.054
1.138000,512789,1000.00,12,0,1,1002.407,20.999,10.189,948.841,0.116,1.053
1.139000,512790,1000.00,12,0,1,1004.208,17.437,10.365,951.050,1.844,1.085
1.140000,512791,1000.00,12,0,1,1004.929,12.447,10.420,949.105,0.594,1.088
1.141000,512792,1000.00,12,0,1,1010.502,12.600,10.498,949.033,-0.693,1.070
1.142000,512793,1000.00,12,0,1,995.897,-0.931,10.468,949.345,0.334,1.067
1.143000,512794,1000.00,12,0,1,992.846,-10.081,10.528,947.207,-1.739,1.095
1.144000,512795,1000.00,12,0,1,997.146,-2.817,10.536,948.793,-0.740,1.099
1.145000,512796,1000.00,12,0,1,995.128,-4.506,10.438,948.600,0.170,1.096
1.146000,512797,1000.00,12,0,1,995.128,-3.580,10.088,947.519,-1.390,1.104
1.147000,512798,1000.00,12,0,1,997.987,0.874,9.523,946.919,-1.297,1.118
1.148000,512799,1000.00,12,0,1,1004.689,7.266,9.332,948.240,-0.361,1.114
1.149000,512800,1000.00,12,0,1,979.419,-8.841,9.381,947.952,0.232,1.109
1.150000,512801,1000.00,12,0,1,962.460,-27.983,10.179,948.552,0.178,1.101
1.151000,512802,1000.00,12,0,1,973.101,-11.856,10.313,947.712,0.153,1.077
1.152000,512803,1000.00,12,0,1,985.040,2.568,10.294,946.559,-1.268,1.059
1.153000,512804,1000.00,12,0,1,989.484,7.957,10.184,946.246,-1.189,1.061
1.154000,512805,1000.00,12,0,1,986.169,4.429,9.923,947.447,-0.083,1.061
1.155000,512806,1000.00,12,0,1,986.265,1.582,9.843,947.087,0.076,1.032
1.156000,512807,1000.00,12,0,1,987.514,2.169,9.193,947.543,0.106,0.973
1.157000,512808,1000.00,12,0,1,995.417,5.126,9.025,947.664,0.535,0.969
1.158000,512809,1000.00,12,0,1,1004.520,11.712,8.911,948.336,0.788,0.958
1.159000,512810,1000.00,12,0,1,998.876,3.801,8.788,949.225,1.573,0.947
1.160000,512811,1000.00,12,0,1,984.343,-12.254,8.913,948.192,0.660,0.915
1.161000,512812,1000.00,12,0,1,984.607,-14.655,9.145,947.616,-0.373,0.916
1.162000,512813,1000.00,12,0,1,988.234,-8.506,9.068,948.192,0.322,0.909
1.163000,512814,1000.00,12,0,1,989.267,-7.200,8.829,948.288,0.366,0.889
1.164000,512815,1000.00,12,0,1,992.030,-3.220,8.840,948.720,0.671,0.888
1.165000,512816,1000.00,12,0,1,983.430,-7.414,8.590,948.024,0.200,0.885
1.166000,512817,1000.00,12,0,1,981.629,-9.240,8.522,947.952,-0.143,0.872
1.167000,512818,1000.00,12,0,1,973.558,-9.449,8.606,949.153,1.018,0.875
1.168000,512819,1000.00,12,0,1,966.784,-14.254,8.763,950.114,1.848,0.901
1.169000,512820,1000.00,12,0,1,965.991,-8.897,8.850,948.648,0.589,0.896
1.170000,512821,1000.00,12,0,1,972.909,-0.097,8.728,945.886,-2.050,0.894
1.171000,512822,1000.00,12,0,1,1003.295,26.932,9.495,947.015,-1.334,0.913
1.172000,512823,1000.00,12,0,1,1008.772,35.964,10.739,947.760,0.232,0.913
1.173000,512824,1000.00,12,0,1,969.186,-3.136,10.733,947.904,-0.013,0.904
1.174000,512825,1000.00,12,0,1,985.592,-0.122,10.706,947.303,-0.185,0.882
1.175000,512826,1000.00,12,0,1,996.522,19.670,11.061,948.600,0.408,0.884
1.176000,512827,1000.00,12,0,1,991.669,5.700,11.091,948.000,0.506,0.887
1.177000,512828,1000.00,12,0,1,986.721,1.354,11.066,948.408,0.011,0.875
1.178000,512829,1000.00,12,0,1,982.518,-6.547,11.098,949.033,0.941,0.871
1.179000,512830,1000.00,12,0,1,981.797,-7.975,11.147,949.441,0.840,0.879
1.180000,512831,1000.00,12,0,1,977.497,-11.088,11.233,948.528,0.101,0.879
1.181000,512832,1000.00,12,0,1,971.876,-16.596,11.455,946.511,-1.827,0.910
1.182000,512833,1000.00,12,0,1,980.139,-8.144,11.513,945.886,-2.448,0.974
1.183000,512834,1000.00,12,0,1,996.738,7.773,11.565,947.207,-0.861,0.945
1.184000,512835,1000.00,12,0,1,997.482,11.229,11.672,949.633,1.356,0.960
1.185000,512836,1000.00,12,0,1,986.433,-0.697,11.669,948.360,0.852,0.951
1.186000,512837,1000.00,12,0,1,985.448,-1.414,11.668,946.054,-1.814,0.984
1.187000,512838,1000.00,12,0,1,987.874,3.037,11.630,945.574,-1.843,1.018
1.188000,512839,1000.00,12,0,1,982.229,0.414,11.245,946.607,-0.720,1.023
1.189000,512840,1000.00,12,0,1,978.218,-2.735,10.978,945.694,-0.774,0.995
1.190000,512841,1000.00,12,0,1,978.674,0.035,10.836,947.591,0.334,0.992
1.191000,512842,1000.00,12,0,1,973.222,-2.450,10.694,948.288,1.876,1.023
1.192000,512843,1000.00,12,0,1,961.331,-11.425,10.814,949.393,1.959,1.058
1.193000,512844,1000.00,12,0,1,965.487,-8.088,10.781,948.216,1.414,1.049
1.194000,512845,1000.00,12,0,1,977.954,5.881,10.805,948.288,0.422,1.045
1.195000,512846,1000.00,12,0,1,978.026,6.333,10.824,948.913,1.285,1.061
1.196000,512847,1000.00,12,0,1,977.858,2.875,10.820,947.952,0.193,1.043
1.197000,512848,1000.00,12,0,1,974.687,-0.131,10.819,946.823,-1.066,1.037
1.198000,512849,1000.00,12,0,1,971.636,-5.581,10.799,946.438,-1.266,1.051
1.199000,512850,1000.00,12,0,1,973.053,-4.644,10.746,946.246,-1.368,1.069
1.200000,512851,1000.00,12,0,1,996.858,12.606,10.149,947.519,-0.121,1.068
1.201000,512852,1000.00,12,0,1,992.126,13.234,10.183,945.814,-1.027,1.078
1.202000,512853,1000.00,12,0,1,994.360,4.821,10.199,947.351,-0.447,1.065
1.203000,512854,1000.00,12,0,1,999.596,12.962,10.301,946.847,0.340,1.053
1.204000,512855,1000.00,12,0,1,1000.917,9.665,10.373,949.393,1.324,1.069
1.205000,512856,1000.00,12,0,1,986.553,-0.753,10.371,949.081,2.310,1.118
1.206000,512857,1000.00,12,0,1,976.176,-12.362,10.513,947.351,-0.368,1.119
1.207000,512858,1000.00,12,0,1,978.386,-7.210,10.537,946.006,-1.146,1.128
1.208000,512859,1000.00,12,0,1,983.262,0.659,10.407,949.105,0.990,1.131
1.209000,512860,1000.00,12,0,1,989.147,6.777,10.437,947.063,0.529,1.112
1.210000,512861,1000.00,12,0,1,991.910,11.280,10.415,944.829,-2.575,1.166
1.211000,512862,1000.00,12,0,1,994.047,10.995,10.324,945.406,-1.445,1.183
1.212000,512863,1000.00,12,0,1,988.643,7.159,10.304,946.511,-0.149,1.182
1.213000,512864,1000.00,12,0,1,979.395,-3.983,10.269,944.445,-1.481,1.199
1.214000,512865,1000.00,12,0,1,971.204,-10.681,10.369,945.478,-1.046,1.205
1.215000,512866,1000.00,12,0,1,970.723,-12.273,10.461,946.174,0.419,1.206
1.216000,512867,1000.00,12,0,1,983.839,-0.674,10.380,946.823,0.639,1.209
1.217000,512868,1000.00,12,0,1,964.718,-12.887,10.453,948.168,1.804,1.227
1.218000,512869,1000.00,12,0,1,979.587,-10.319,10.361,947.640,1.411,1.216
1.219000,512870,1000.00,12,0,1,981.533,2.444,10.290,946.198,-0.395,1.214
1.220000,512871,1000.00,12,0,1,980.139,-8.026,10.352,946.150,-0.425,1.180
1.221000,512872,1000.00,12,0,1,989.532,3.460,9.638,946.991,0.256,1.166
1.222000,512873,1000.00,12,0,1,986.073,-0.067,8.187,945.790,-0.344,1.166
1.223000,512874,1000.00,12,0,1,991.814,1.585,8.178,946.727,-0.189,1.167
1.224000,512875,1000.00,12,0,1,977.809,-4.616,8.204,945.574,-0.160,1.167
1.225000,512876,1000.00,12,0,1,980.332,-9.115,7.825,943.940,-2.170,1.205
1.226000,512877,1000.00,12,0,1,992.654,9.813,7.906,945.886,-0.123,1.203
1.227000,512878,1000.00,12,0,1,1008.244,20.051,8.397,946.919,1.375,1.218
1.228000,512879,1000.00,12,0,1,998.371,16.542,8.668,948.024,1.894,1.240
1.229000,512880,1000.00,12,0,1,976.128,-8.031,8.669,947.904,2.061,1.269
1.230000,512881,1000.00,12,0,1,980.836,-4.072,8.545,946.438,0.252,1.269
1.231000,512882,1000.00,12,0,1,982.085,2.696,8.225,946.631,0.218,1.243
1.232000,512883,1000.00,12,0,1,974.423,-5.296,8.179,948.648,1.854,1.222
1.233000,512884,1000.00,12,0,1,972.309,-5.580,8.143,949.513,2.624,1.271
1.234000,512885,1000.00,12,0,1,972.837,-4.844,8.016,947.856,0.790,1.262
1.235000,512886,1000.00,12,0,1,975.191,-2.062,8.020,948.624,0.624,1.259
1.236000,512887,1000.00,12,0,1,982.614,2.970,8.029,948.793,1.137,1.243
1.237000,512888,1000.00,12,0,1,984.559,4.685,8.045,945.117,-2.286,1.258
1.238000,512889,1000.00,12,0,1,977.497,-4.048,8.065,945.958,-2.282,1.295
1.239000,512890,1000.00,12,0,1,963.205,-17.128,8.412,948.841,1.112,1.300
1.240000,512891,1000.00,12,0,1,962.700,-19.330,8.845,947.399,-0.001,1.299
1.241000,512892,1000.00,12,0,1,964.742,-13.169,9.032,945.550,-2.070,1.305
1.242000,512893,1000.00,12,0,1,964.526,-12.345,9.056,946.318,-1.271,1.287
1.243000,512894,1000.00,12,0,1,963.805,-10.037,9.095,946.679,-0.480,1.274
1.244000,512895,1000.00,12,0,1,959.049,-11.202,9.195,947.159,-0.155,1.272
1.245000,512896,1000.00,12,0,1,959.818,-8.493,9.230,945.886,-0.809,1.265
1.246000,512897,1000.00,12,0,1,977.954,9.844,9.325,947.087,-0.330,1.265
1.247000,512898,1000.00,12,0,1,979.899,16.679,9.619,946.943,0.446,1.258
1.248000,512899,1000.00,12,0,1,967.961,4.718,9.610,945.261,-1.428,1.261
1.249000,512900,1000.00,12,0,1,966.712,3.610,9.601,945.838,-0.865,1.252
1.250000,512901,1000.00,12,0,1,976.801,13.963,9.638,947.808,1.128,1.262
1.251000,512902,1000.00,12,0,1,986.193,22.608,9.981,946.727,0.490,1.256
1.252000,512903,1000.00,12,0,1,982.445,18.780,10.305,947.591,0.493,1.256
1.253000,512904,1000.00,12,0,1,982.085,13.578,10.321,946.607,0.345,1.256
1.254000,512905,1000.00,12,0,1,989.267,18.222,10.550,945.670,-1.168,1.253
1.255000,512906,1000.00,12,0,1,987.346,14.059,10.735,947.111,0.293,1.210
1.256000,512907,1000.00,12,0,1,984.583,6.832,10.636,946.607,0.255,1.210
1.257000,512908,1000.00,12,0,1,981.028,1.595,10.589,948.216,0.868,1.205
1.258000,512909,1000.00,12,0,1,978.026,-4.150,10.605,948.096,1.555,1.217
1.259000,512910,1000.00,12,0,1,975.455,-7.318,10.612,947.928,0.380,1.216
1.260000,512911,1000.00,12,0,1,979.155,-5.962,10.526,948.096,0.896,1.167
1.261000,512912,1000.00,12,0,1,982.133,-2.675,10.417,948.312,0.595,1.152
1.262000,512913,1000.00,12,0,1,985.928,-0.978,10.369,946.679,-0.510,1.154
1.263000,512914,1000.00,12,0,1,987.346,0.563,10.354,947.063,-0.798,1.140
1.264000,512915,1000.00,12,0,1,980.788,-5.266,10.270,948.841,1.187,1.143
1.265000,512916,1000.00,12,0,1,978.002,-8.393,10.191,949.369,1.574,1.163
1.266000,512917,1000.00,12,0,1,977.113,-6.519,10.233,949.657,1.416,1.177
1.267000,512918,1000.00,12,0,1,981.341,-2.298,10.074,948.672,0.582,1.152
1.268000,512919,1000.00,12,0,1,992.510,9.243,10.053,947.519,-0.919,1.142
1.269000,512920,1000.00,12,0,1,970.051,-5.571,10.078,947.351,-0.924,1.148
1.270000,512921,1000.00,12,0,1,955.398,-23.121,10.534,947.135,-1.048,1.156
1.271000,512922,1000.00,12,0,1,975.888,-1.073,10.524,947.399,-0.736,1.160
1.272000,512923,1000.00,12,0,1,978.338,7.310,10.575,947.495,-0.489,1.161
1.273000,512924,1000.00,12,0,1,970.699,-2.572,10.579,947.616,-0.407,1.162
1.274000,512925,1000.00,12,0,1,974.375,0.971,10.559,948.000,-0.044,1.162
1.275000,512926,1000.00,12,0,1,978.602,4.644,10.501,948.841,0.594,1.124
1.276000,512927,1000.00,12,0,1,980.019,4.693,10.430,947.736,-0.183,1.124
1.277000,512928,1000.00,12,0,1,977.089,0.754,10.038,948.961,0.163,1.107
1.278000,512929,1000.00,12,0,1,978.074,-0.957,9.762,947.327,-0.371,1.076
1.279000,512930,1000.00,12,0,1,985.520,4.410,9.716,948.168,-0.821,1.042
1.280000,512931,1000.00,12,0,1,990.108,7.246,9.753,947.423,-0.248,1.042
1.281000,512932,1000.00,12,0,1,986.601,2.428,9.751,948.000,-0.734,1.047
1.282000,512933,1000.00,12,0,1,986.745,-0.202,9.723,947.471,-0.222,1.014
1.283000,512934,1000.00,12,0,1,948.768,-27.449,10.439,948.240,-0.256,0.944
1.284000,512935,1000.00,12,0,1,970.964,-19.232,10.766,947.976,0.225,0.938
1.285000,512936,1000.00,12,0,1,983.598,10.770,10.869,946.006,-1.648,0.962
1.286000,512937,1000.00,12,0,1,979.275,-1.005,10.862,946.246,-1.566,0.974
1.287000,512938,1000.00,12,0,1,977.089,2.378,10.847,946.487,-0.542,0.922
1.288000,512939,1000.00,12,0,1,967.649,-5.719,10.862,946.366,-0.825,0.872
1.289000,512940,1000.00,12,0,1,961.764,-9.770,10.678,949.681,2.097,0.907
1.290000,512941,1000.00,12,0,1,958.665,-8.005,10.384,946.631,0.386,0.909
1.291000,512942,1000.00,12,0,1,961.403,-5.217,10.243,946.607,-1.257,0.879
1.292000,512943,1000.00,12,0,1,968.538,5.184,10.119,948.408,1.442,0.884
1.293000,512944,1000.00,12,0,1,984.968,16.908,10.301,948.120,0.800,0.889
1.294000,512945,1000.00,12,0,1,986.457,20.938,10.600,947.327,0.011,0.888
1.295000,512946,1000.00,12,0,1,986.673,13.206,10.696,947.447,-0.042,0.881
1.296000,512947,1000.00,12,0,1,991.741,16.492,10.859,948.648,0.875,0.888
1.297000,512948,1000.00,12,0,1,991.141,11.484,10.723,948.913,1.296,0.905
1.298000,512949,1000.00,12,0,1,989.387,6.289,10.739,949.946,1.511,0.908
1.299000,512950,1000.00,12,0,1,981.965,-2.161,10.731,947.640,0.079,0.899
1.300000,512951,1000.00,12,0,1,980.836,-6.632,10.590,948.432,-0.574,0.889
1.301000,512952,1000.00,12,0,1,1002.190,10.395,10.202,949.129,1.131,0.900
1.302000,512953,1000.00,12,0,1,966.712,-12.722,10.013,947.135,-1.109,0.911
1.303000,512954,1000.00,12,0,1,960.010,-31.511,10.790,947.159,-1.190,0.925
1.304000,512955,1000.00,12,0,1,985.352,1.939,10.482,948.913,0.621,0.915
1.305000,512956,1000.00,12,0,1,993.759,10.215,10.392,947.712,-0.061,0.914
1.306000,512957,1000.00,12,0,1,985.736,3.745,10.361,946.991,-1.117,0.927
1.307000,512958,1000.00,12,0,1,978.554,-3.601,10.371,948.096,0.055,0.919
1.308000,512959,1000.00,12,0,1,974.326,-6.288,10.392,947.063,-0.396,0.894
1.309000,512960,1000.00,12,0,1,975.143,-3.633,10.354,946.775,-1.122,0.906
1.310000,512961,1000.00,12,0,1,976.705,-1.115,10.320,947.087,-0.311,0.898
1.311000,512962,1000.00,12,0,1,978.674,2.059,10.318,947.447,-0.176,0.895
1.312000,512963,1000.00,12,0,1,977.089,0.569,10.317,947.543,0.157,0.892
1.313000,512964,1000.00,12,0,1,978.698,1.467,10.319,946.679,-0.657,0.890
1.314000,512965,1000.00,12,0,1,980.188,2.349,10.297,947.976,0.184,0.874
1.315000,512966,1000.00,12,0,1,975.191,-2.239,10.233,945.478,-1.111,0.860
1.316000,512967,1000.00,12,0,1,975.936,-4.186,10.209,946.847,-1.172,0.852
1.317000,512968,1000.00,12,0,1,986.457,4.823,10.227,948.913,1.904,0.890
1.318000,512969,1000.00,12,0,1,996.161,11.925,10.282,948.336,0.859,0.889
1.319000,512970,1000.00,12,0,1,970.219,-8.893,10.329,948.624,0.867,0.888
1.320000,512971,1000.00,12,0,1,968.201,-19.335,10.172,946.342,-0.734,0.881
1.321000,512972,1000.00,12,0,1,976.080,-4.441,10.190,948.648,0.150,0.876
1.322000,512973,1000.00,12,0,1,976.440,-5.416,10.166,949.129,2.007,0.918
1.323000,512974,1000.00,12,0,1,970.771,-7.339,10.213,948.720,0.429,0.918
1.324000,512975,1000.00,12,0,1,962.821,-13.265,10.383,949.561,1.534,0.943
1.325000,512976,1000.00,12,0,1,950.546,-20.126,10.746,947.880,-0.005,0.940
1.326000,512977,1000.00,12,0,1,964.046,-7.591,10.779,947.375,-0.925,0.948
1.327000,512978,1000.00,12,0,1,971.516,6.997,10.824,948.552,0.439,0.950
1.328000,512979,1000.00,12,0,1,975.167,8.653,10.892,947.928,0.021,0.949
1.329000,512980,1000.00,12,0,1,979.875,14.198,11.058,946.006,-1.649,0.970
1.330000,512981,1000.00,12,0,1,980.380,13.873,11.184,944.709,-2.744,1.044
1.331000,512982,1000.00,12,0,1,973.414,6.626,11.217,945.237,-1.927,1.074
1.332000,512983,1000.00,12,0,1,964.982,-1.648,11.220,947.471,0.284,1.074
1.333000,512984,1000.00,12,0,1,965.943,-2.319,10.532,948.576,1.612,1.098
1.334000,512985,1000.00,12,0,1,962.460,-2.545,10.181,948.240,0.986,1.106
1.335000,512986,1000.00,12,0,1,961.692,-5.591,10.098,947.616,0.243,1.082
1.336000,512987,1000.00,12,0,1,973.990,5.817,10.130,946.246,-1.003,1.068
1.337000,512988,1000.00,12,0,1,983.983,14.208,10.322,947.760,-0.108,1.066
1.338000,512989,1000.00,12,0,1,988.931,15.729,10.528,947.928,0.748,1.064
1.339000,512990,1000.00,12,0,1,987.466,11.744,10.568,947.351,-0.324,1.023
1.340000,512991,1000.00,12,0,1,990.156,9.671,10.596,945.670,-1.337,1.039
1.341000,512992,1000.00,12,0,1,990.036,8.694,10.641,947.591,-0.281,1.025
1.342000,512993,1000.00,12,0,1,984.944,1.553,10.618,949.994,2.621,1.070
1.343000,512994,1000.00,12,0,1,985.472,0.464,10.346,948.985,1.530,1.086
1.344000,512995,1000.00,12,0,1,991.429,5.491,9.944,948.432,0.467,1.088
1.345000,512996,1000.00,12,0,1,996.858,9.781,9.864,946.366,-0.868,1.095
1.346000,512997,1000.00,12,0,1,992.654,6.036,9.622,948.072,-0.266,1.089
1.347000,512998,1000.00,12,0,1,984.511,-2.826,9.493,949.225,1.885,1.106
1.348000,512999,1000.00,12,0,1,984.151,-3.443,9.463,946.511,-0.903,1.092
1.349000,513000,1000.00,12,0,1,985.616,-0.854,9.459,946.919,-0.959,1.101
1.350000,513001,1000.00,12,0,1,976.825,-7.159,9.467,947.231,0.042,1.098
1.351000,513002,1000.00,12,0,1,966.015,-16.683,9.645,947.399,-0.207,1.086
1.352000,513003,1000.00,12,0,1,967.553,-14.245,9.688,945.045,-1.578,1.098
1.353000,513004,1000.00,12,0,1,972.357,-6.994,8.658,945.189,-2.209,1.129
1.354000,513005,1000.00,12,0,1,975.023,-4.061,8.673,943.964,-1.962,1.159
1.355000,513006,1000.00,12,0,1,975.263,-3.416,8.566,947.087,-0.250,1.160
1.356000,513007,1000.00,12,0,1,984.127,2.310,8.555,948.192,2.215,1.191
1.357000,513008,1000.00,12,0,1,989.916,7.988,8.615,947.039,0.198,1.191
1.358000,513009,1000.00,12,0,1,988.643,3.965,8.587,948.913,1.574,1.211
1.359000,513010,1000.00,12,0,1,989.315,2.173,8.577,948.216,1.422,1.217
1.360000,513011,1000.00,12,0,1,991.910,3.050,8.586,948.360,0.414,1.218
1.361000,513012,1000.00,12,0,1,992.150,2.105,8.587,948.072,0.833,1.223
1.362000,513013,1000.00,12,0,1,992.150,1.007,8.588,948.072,0.029,1.223
1.363000,513014,1000.00,12,0,1,978.242,-9.517,8.690,948.288,0.686,1.223
1.364000,513015,1000.00,12,0,1,969.234,-18.595,9.073,948.312,0.358,1.224
1.365000,513016,1000.00,12,0,1,964.214,-17.809,9.411,949.057,1.058,1.223
1.366000,513017,1000.00,12,0,1,964.214,-15.051,9.630,949.057,1.077,1.221
1.367000,513018,1000.00,12,0,1,979.611,1.595,9.609,945.886,-1.535,1.211
1.368000,513019,1000.00,12,0,1,976.104,4.766,9.484,946.174,-1.883,1.234
1.369000,513020,1000.00,12,0,1,971.372,-2.513,9.406,947.640,0.305,1.228
1.370000,513021,1000.00,12,0,1,974.278,3.194,9.012,946.799,-0.350,1.225
1.371000,513022,1000.00,12,0,1,979.179,6.853,9.042,945.069,-1.839,1.252
1.372000,513023,1000.00,12,0,1,974.615,4.450,9.031,946.487,-0.755,1.224
1.373000,513024,1000.00,12,0,1,975.672,1.990,8.976,946.366,-0.092,1.223
1.374000,513025,1000.00,12,0,1,986.505,11.241,8.920,946.679,-0.359,1.204
1.375000,513026,1000.00,12,0,1,996.017,17.655,8.815,948.889,1.660,1.227
1.376000,513027,1000.00,12,0,1,992.486,11.966,8.912,949.297,2.037,1.254
1.377000,513028,1000.00,12,0,1,983.406,-0.053,8.856,948.793,0.914,1.259
1.378000,513029,1000.00,12,0,1,972.669,-10.985,8.908,948.841,0.727,1.263
1.379000,513030,1000.00,12,0,1,972.645,-12.225,8.849,948.432,0.116,1.241
1.380000,513031,1000.00,12,0,1,976.705,-6.447,8.677,948.480,-0.050,1.179
1.381000,513032,1000.00,12,0,1,978.218,-4.086,8.646,949.201,0.479,1.149
1.382000,513033,1000.00,12,0,1,971.852,-7.873,8.714,949.513,0.777,1.154
1.383000,513034,1000.00,12,0,1,967.360,-11.130,8.849,947.231,-1.087,1.141
1.384000,513035,1000.00,12,0,1,976.176,-1.841,8.845,946.511,-2.082,1.170
1.385000,513036,1000.00,12,0,1,982.229,7.241,8.869,947.736,-0.459,1.172
1.386000,513037,1000.00,12,0,1,971.444,-0.967,8.832,945.838,-1.452,1.181
1.387000,513038,1000.00,12,0,1,966.424,-6.192,8.645,947.207,-0.862,1.187
1.388000,513039,1000.00,12,0,1,969.835,-0.464,8.354,948.072,1.085,1.193
1.389000,513040,1000.00,12,0,1,970.940,2.336,8.194,947.351,-0.021,1.192
1.390000,513041,1000.00,12,0,1,966.111,-0.779,8.080,948.552,0.998,1.185
1.391000,513042,1000.00,12,0,1,964.262,-2.593,7.994,949.681,2.029,1.219
1.392000,513043,1000.00,12,0,1,972.309,4.522,8.017,951.171,2.737,1.224
1.393000,513044,1000.00,12,0,1,978.002,10.334,8.149,946.727,-0.635,1.208
1.394000,513045,1000.00,12,0,1,977.041,7.442,8.180,947.279,-2.075,1.241
1.395000,513046,1000.00,12,0,1,982.421,9.060,8.163,949.225,1.076,1.244
1.396000,513047,1000.00,12,0,1,984.872,10.270,8.247,950.210,0.999,1.252
1.397000,513048,1000.00,12,0,1,977.978,1.643,8.241,949.441,0.642,1.227
1.398000,513049,1000.00,12,0,1,991.309,8.218,8.308,948.384,-0.967,1.227
1.399000,513050,1000.00,12,0,1,982.734,5.175,8.339,948.648,-0.757,1.225
1.400000,513051,1000.00,12,0,1,954.173,-24.324,8.964,948.504,-0.623,1.228
1.401000,513052,1000.00,12,0,1,961.091,-19.414,9.073,948.504,-0.831,1.233
1.402000,513053,1000.00,12,0,1,996.161,15.638,9.119,947.616,-1.074,1.222
1.403000,513054,1000.00,12,0,1,1000.845,23.698,9.665,947.567,-1.392,1.198
1.404000,513055,1000.00,12,0,1,979.827,1.103,9.649,948.432,-0.039,1.165
1.405000,513056,1000.00,12,0,1,971.756,-8.607,9.713,947.567,-0.572,1.168
1.406000,513057,1000.00,12,0,1,980.548,0.952,9.709,949.009,0.418,1.126
1.407000,513058,1000.00,12,0,1,979.803,3.190,9.653,948.120,0.480,1.128
1.408000,513059,1000.00,12,0,1,978.266,0.462,9.637,949.273,0.530,1.108
1.409000,513060,1000.00,12,0,1,986.313,7.484,9.690,947.567,0.176,1.090
1.410000,513061,1000.00,12,0,1,983.238,6.301,9.722,947.832,-0.840,1.095
1.411000,513062,1000.00,12,0,1,985.040,3.547,9.730,947.760,0.153,1.089
1.412000,513063,1000.00,12,0,1,982.614,3.239,9.740,948.336,-0.089,1.089
1.413000,513064,1000.00,12,0,1,974.855,-6.613,9.692,948.961,0.841,1.091
1.414000,513065,1000.00,12,0,1,987.610,2.118,9.333,946.318,-1.405,1.108
1.415000,513066,1000.00,12,0,1,989.796,6.769,9.038,949.201,-0.043,1.098
1.416000,513067,1000.00,12,0,1,989.075,0.588,8.784,947.231,0.115,1.087
1.417000,513068,1000.00,12,0,1,989.051,0.861,8.782,946.967,-2.103,1.106
1.418000,513069,1000.00,12,0,1,984.679,-5.260,8.787,949.801,1.609,1.098
1.419000,513070,1000.00,12,0,1,980.596,-9.143,8.875,948.648,0.455,1.099
1.420000,513071,1000.00,12,0,1,982.878,-7.426,8.925,949.417,0.435,1.099
1.421000,513072,1000.00,12,0,1,981.196,-6.715,8.923,948.048,0.063,1.068
1.422000,513073,1000.00,12,0,1,972.213,-13.389,9.100,947.279,-1.485,1.083
1.423000,513074,1000.00,12,0,1,962.268,-20.014,9.526,946.198,-1.399,1.101
1.424000,513075,1000.00,12,0,1,958.713,-19.671,9.796,947.543,-0.775,1.105
1.425000,513076,1000.00,12,0,1,958.016,-15.510,9.723,948.120,0.874,1.087
1.426000,513077,1000.00,12,0,1,949.249,-17.589,9.892,948.000,0.311,1.049
1.427000,513078,1000.00,12,0,1,949.729,-15.157,10.122,949.609,1.799,1.072
1.428000,513079,1000.00,12,0,1,973.702,9.247,10.087,947.087,0.149,1.067
1.429000,513080,1000.00,12,0,1,989.387,26.690,10.631,945.526,-2.135,1.109
1.430000,513081,1000.00,12,0,1,985.904,20.967,10.999,946.006,-0.930,1.117
1.431000,513082,1000.00,12,0,1,962.484,-0.921,10.984,948.240,0.754,1.120
1.432000,513083,1000.00,12,0,1,956.359,-11.375,11.045,948.432,1.583,1.137
1.433000,513084,1000.00,12,0,1,968.369,2.101,10.937,947.640,0.168,1.126
1.434000,513085,1000.00,12,0,1,982.686,14.124,11.115,950.066,1.931,1.121
1.435000,513086,1000.00,12,0,1,977.761,10.484,11.166,949.129,1.570,1.141
1.436000,513087,1000.00,12,0,1,976.464,3.669,11.177,948.504,-0.200,1.123
1.437000,513088,1000.00,12,0,1,976.464,4.477,11.161,948.504,0.207,1.116
1.438000,513089,1000.00,12,0,1,968.538,-3.681,11.173,948.024,-0.626,1.109
1.439000,513090,1000.00,12,0,1,963.661,-8.720,11.236,947.928,-0.585,1.112
1.440000,513091,1000.00,12,0,1,972.693,-0.206,11.235,948.192,-0.363,1.105
1.441000,513092,1000.00,12,0,1,987.105,13.419,11.389,949.393,0.669,1.071
1.442000,513093,1000.00,12,0,1,983.598,11.930,11.495,948.240,0.094,0.999
1.443000,513094,1000.00,12,0,1,988.427,10.551,11.499,948.889,-0.054,0.995
1.444000,513095,1000.00,12,0,1,995.729,18.778,11.755,949.057,0.854,0.958
1.445000,513096,1000.00,12,0,1,990.444,11.379,11.795,948.961,0.246,0.946
1.446000,513097,1000.00,12,0,1,979.539,0.328,11.705,948.312,0.068,0.936
1.447000,513098,1000.00,12,0,1,966.063,-11.681,11.819,946.487,-1.590,0.958
1.448000,513099,1000.00,12,0,1,960.274,-16.380,11.988,945.958,-2.000,0.990
1.449000,513100,1000.00,12,0,1,959.121,-13.817,12.124,946.847,-0.802,0.990
1.450000,513101,1000.00,12,0,1,964.694,-7.801,11.678,947.231,-0.192,0.987
1.451000,513102,1000.00,12,0,1,970.771,0.303,11.351,947.567,0.128,0.980
1.452000,513103,1000.00,12,0,1,971.660,0.895,11.134,948.624,0.917,0.977
1.453000,513104,1000.00,12,0,1,968.826,-1.843,10.621,949.201,1.419,0.977
1.454000,513105,1000.00,12,0,1,969.330,-2.742,10.627,949.201,1.011,0.988
1.455000,513106,1000.00,12,0,1,977.401,3.557,10.569,949.201,0.750,0.990
1.456000,513107,1000.00,12,0,1,980.067,6.069,10.603,949.033,0.326,0.990
1.457000,513108,1000.00,12,0,1,976.536,0.728,10.593,949.201,0.230,0.988
1.458000,513109,1000.00,12,0,1,975.479,-1.528,10.595,947.880,-0.803,0.991
1.459000,513110,1000.00,12,0,1,974.495,-2.433,10.548,948.672,-0.638,0.995
1.460000,513111,1000.00,12,0,1,970.940,-5.236,10.536,947.784,-0.587,0.992
1.461000,513112,1000.00,12,0,1,967.216,-7.735,10.581,946.943,-1.799,1.023
1.462000,513113,1000.00,12,0,1,963.013,-9.449,10.655,947.640,-0.670,1.028
1.463000,513114,1000.00,12,0,1,972.285,-1.004,10.615,949.153,0.764,1.027
1.464000,513115,1000.00,12,0,1,977.545,7.842,10.669,947.063,-0.417,1.009
1.465000,513116,1000.00,12,0,1,964.262,-3.013,10.634,948.120,-0.345,1.010
1.466000,513117,1000.00,12,0,1,964.502,-4.719,10.655,950.138,2.273,1.060
1.467000,513118,1000.00,12,0,1,973.005,6.481,10.693,947.567,0.080,1.017
1.468000,513119,1000.00,12,0,1,976.032,9.099,10.745,948.768,0.088,0.992
1.469000,513120,1000.00,12,0,1,981.124,12.355,10.809,949.970,2.096,1.033
1.470000,513121,1000.00,12,0,1,981.028,11.673,10.884,947.808,-0.363,1.032
1.471000,513122,1000.00,12,0,1,972.501,2.081,10.846,947.471,-0.962,1.041
1.472000,513123,1000.00,12,0,1,970.747,-2.036,10.684,947.760,-0.484,1.022
1.473000,513124,1000.00,12,0,1,971.348,-1.125,10.303,947.399,-0.810,1.009
1.474000,513125,1000.00,12,0,1,971.084,-2.465,9.926,946.559,-1.448,1.024
1.475000,513126,1000.00,12,0,1,974.038,-0.689,9.682,946.559,-1.494,1.038
1.476000,513127,1000.00,12,0,1,981.917,5.078,9.384,947.543,-0.406,1.039
1.477000,513128,1000.00,12,0,1,989.075,10.235,9.250,947.928,0.105,1.007
1.478000,513129,1000.00,12,0,1,991.477,10.190,9.270,947.856,-0.017,1.007
1.479000,513130,1000.00,12,0,1,990.204,6.537,8.517,948.528,0.484,0.963
1.480000,513131,1000.00,12,0,1,996.738,9.034,8.086,948.889,0.903,0.963
1.481000,513132,1000.00,12,0,1,1016.435,23.536,8.743,948.841,0.710,0.962
1.482000,513133,1000.00,12,0,1,997.723,9.746,8.703,946.727,-0.884,0.944
1.483000,513134,1000.00,12,0,1,978.818,-15.807,8.981,947.832,-0.507,0.946
1.484000,513135,1000.00,12,0,1,949.753,-33.449,9.952,948.024,0.693,0.912
1.485000,513136,1000.00,12,0,1,957.128,-31.458,10.800,948.456,0.465,0.886
1.486000,513137,1000.00,12,0,1,968.826,-7.340,10.837,948.889,1.304,0.905
1.487000,513138,1000.00,12,0,1,964.622,-10.643,10.923,947.952,0.312,0.906
1.488000,513139,1000.00,12,0,1,962.028,-10.058,11.003,946.631,-0.884,0.910
1.489000,513140,1000.00,12,0,1,968.586,-2.647,10.940,948.216,0.290,0.907
1.490000,513141,1000.00,12,0,1,973.654,3.395,10.950,948.817,1.303,0.924
1.491000,513142,1000.00,12,0,1,977.425,6.663,10.826,948.793,0.814,0.926
1.492000,513143,1000.00,12,0,1,978.602,5.989,10.727,948.552,0.533,0.929
1.493000,513144,1000.00,12,0,1,974.831,2.179,10.627,950.018,1.307,0.948
1.494000,513145,1000.00,12,0,1,977.641,0.908,10.291,950.306,1.659,0.969
1.495000,513146,1000.00,12,0,1,985.208,7.813,10.224,949.369,0.284,0.969
1.496000,513147,1000.00,12,0,1,982.037,3.473,10.236,948.696,-0.593,0.972
1.497000,513148,1000.00,12,0,1,988.763,5.448,10.131,948.408,-0.888,0.954
1.498000,513149,1000.00,12,0,1,992.006,9.195,9.948,945.382,-3.151,1.015
1.499000,513150,1000.00,12,0,1,975.576,-6.242,9.794,947.640,-1.874,1.043
1.500000,513151,1000.00,12,0,1,959.482,-21.531,10.197,947.447,-0.332,1.043
1.501000,513152,1000.00,12,0,1,970.099,-11.221,10.320,946.727,-1.779,1.073
1.502000,513153,1000.00,12,0,1,977.737,1.961,10.323,948.024,0.003,1.065
1.503000,513154,1000.00,12,0,1,984.319,6.684,10.362,949.345,1.252,1.061
1.504000,513155,1000.00,12,0,1,979.779,6.156,10.392,949.873,1.699,1.078
1.505000,513156,1000.00,12,0,1,957.104,-13.433,10.552,949.393,1.227,1.087
1.506000,513157,1000.00,12,0,1,946.919,-22.272,10.979,947.640,-0.515,1.089
1.507000,513158,1000.00,12,0,1,963.133,-4.267,10.995,948.865,0.222,1.088
1.508000,513159,1000.00,12,0,1,983.815,17.339,11.263,949.369,1.154,1.095
1.509000,513160,1000.00,12,0,1,1000.653,30.640,12.063,948.360,-0.017,1.091
1.510000,513161,1000.00,12,0,1,973.462,8.154,12.095,948.720,0.023,1.088
1.511000,513162,1000.00,12,0,1,958.761,-15.276,12.238,948.961,0.459,1.060
1.512000,513163,1000.00,12,0,1,971.540,-0.864,12.165,950.114,0.965,1.064
1.513000,513164,1000.00,12,0,1,968.802,-1.359,12.166,950.330,1.381,1.077
1.514000,513165,1000.00,12,0,1,966.640,-6.664,12.152,948.648,-0.536,1.078
1.515000,513166,1000.00,12,0,1,970.603,-1.653,12.146,949.321,-0.384,1.078
1.516000,513167,1000.00,12,0,1,975.335,1.036,12.129,948.072,-0.876,1.036
1.517000,513168,1000.00,12,0,1,975.215,1.948,12.097,948.216,-1.463,1.057
1.518000,513169,1000.00,12,0,1,964.694,-7.842,12.080,949.153,0.011,1.057
1.519000,513170,1000.00,12,0,1,969.330,-5.393,11.977,948.000,-0.981,1.024
1.520000,513171,1000.00,12,0,1,983.406,9.560,11.940,947.159,-1.769,1.053
1.521000,513172,1000.00,12,0,1,984.968,11.796,12.052,947.567,-1.113,1.056
1.522000,513173,1000.00,12,0,1,973.198,0.776,12.049,947.760,-0.628,1.057
1.523000,513174,1000.00,12,0,1,965.655,-6.727,12.085,949.129,0.571,1.054
1.524000,513175,1000.00,12,0,1,953.957,-13.157,12.223,948.889,0.785,1.040
1.525000,513176,1000.00,12,0,1,955.975,-11.412,12.329,945.958,-1.790,1.049
1.526000,513177,1000.00,12,0,1,963.253,0.549,12.308,948.913,0.069,1.048
1.527000,513178,1000.00,12,0,1,965.535,3.622,12.233,949.537,2.081,1.088
1.528000,513179,1000.00,12,0,1,964.166,3.391,12.158,950.090,1.246,1.102
1.529000,513180,1000.00,12,0,1,976.681,12.034,12.241,948.624,0.776,1.106
1.530000,513181,1000.00,12,0,1,981.917,18.103,12.441,946.967,-1.590,1.121
1.531000,513182,1000.00,12,0,1,985.232,15.583,12.188,947.760,-0.615,1.120
1.532000,513183,1000.00,12,0,1,985.352,13.738,12.265,948.432,0.230,1.113
1.533000,513184,1000.00,12,0,1,986.097,9.491,12.134,948.720,0.319,1.112
1.534000,513185,1000.00,12,0,1,976.945,0.270,11.174,950.378,1.647,1.132
1.535000,513186,1000.00,12,0,1,972.309,-7.965,10.312,950.786,1.939,1.163
1.536000,513187,1000.00,12,0,1,979.779,-1.834,10.262,950.714,1.394,1.165
1.537000,513188,1000.00,12,0,1,990.084,7.087,10.201,950.234,0.715,1.168
1.538000,513189,1000.00,12,0,1,985.040,2.664,10.108,949.201,-0.367,1.163
1.539000,513190,1000.00,12,0,1,968.057,-13.327,10.276,948.144,-1.408,1.179
1.540000,513191,1000.00,12,0,1,953.693,-25.354,10.873,948.432,-1.094,1.175
1.541000,513192,1000.00,12,0,1,958.329,-18.654,11.148,948.144,-0.952,1.177
1.542000,513193,1000.00,12,0,1,962.052,-9.043,11.189,947.351,-1.537,1.194
1.543000,513194,1000.00,12,0,1,965.055,-4.630,11.204,947.543,-1.202,1.192
1.544000,513195,1000.00,12,0,1,971.900,3.858,11.217,949.321,0.545,1.171
1.545000,513196,1000.00,12,0,1,981.965,13.197,11.317,950.906,2.089,1.207
1.546000,513197,1000.00,12,0,1,980.380,12.683,11.448,949.321,0.781,1.210
1.547000,513198,1000.00,12,0,1,955.278,-9.228,11.496,949.441,0.052,1.203
1.548000,513199,1000.00,12,0,1,968.225,-4.626,11.441,949.921,0.911,1.125
1.549000,513200,1000.00,12,0,1,982.806,16.263,11.637,948.865,-0.305,1.094
1.550000,513201,1000.00,12,0,1,983.767,11.537,11.349,949.921,0.264,1.094
1.551000,513202,1000.00,12,0,1,995.200,18.627,11.542,949.681,0.486,1.067
1.552000,513203,1000.00,12,0,1,990.036,13.236,11.690,949.153,-0.549,1.069
1.553000,513204,1000.00,12,0,1,981.581,-0.921,11.652,947.952,-1.219,1.069
1.554000,513205,1000.00,12,0,1,987.682,2.733,11.626,948.120,-1.452,1.061
1.555000,513206,1000.00,12,0,1,998.419,10.123,11.559,949.321,0.056,1.047
1.556000,513207,1000.00,12,0,1,986.145,0.347,11.122,948.720,-0.304,1.045
1.557000,513208,1000.00,12,0,1,963.926,-22.781,11.563,947.688,-1.329,1.062
1.558000,513209,1000.00,12,0,1,971.852,-16.513,11.539,949.441,0.132,1.049
1.559000,513210,1000.00,12,0,1,981.773,-1.522,10.697,947.880,-0.403,1.051
1.560000,513211,1000.00,12,0,1,980.188,-2.701,10.641,947.231,-1.693,1.078
1.561000,513212,1000.00,12,0,1,971.156,-8.499,10.489,947.760,-0.488,1.078
1.562000,513213,1000.00,12,0,1,970.075,-9.733,10.578,946.535,-1.323,1.086
1.563000,513214,1000.00,12,0,1,972.813,-3.587,10.588,946.631,-1.289,1.083
1.564000,513215,1000.00,12,0,1,974.182,-1.192,10.547,947.688,0.184,1.081
1.565000,513216,1000.00,12,0,1,972.429,-1.121,10.546,948.048,0.566,1.083
1.566000,513217,1000.00,12,0,1,972.837,-0.731,10.546,948.144,0.732,1.080
1.567000,513218,1000.00,12,0,1,986.289,10.040,10.637,945.718,-1.146,1.073
1.568000,513219,1000.00,12,0,1,971.828,1.738,10.582,945.165,-1.999,1.109
1.569000,513220,1000.00,12,0,1,965.223,-11.529,10.680,946.487,-0.231,1.101
1.570000,513221,1000.00,12,0,1,978.674,3.451,10.605,948.048,1.226,1.086
1.571000,513222,1000.00,12,0,1,981.989,6.507,10.513,948.624,1.837,1.106
1.572000,513223,1000.00,12,0,1,980.260,2.569,10.519,947.832,0.946,1.110
1.573000,513224,1000.00,12,0,1,977.113,-0.874,10.477,947.664,0.436,1.109
1.574000,513225,1000.00,12,0,1,974.759,-4.572,10.330,947.808,0.656,1.107
1.575000,513226,1000.00,12,0,1,975.696,-3.339,10.214,949.465,1.695,1.104
1.576000,513227,1000.00,12,0,1,985.712,4.189,10.231,948.288,1.161,1.116
1.577000,513228,1000.00,12,0,1,989.123,9.082,10.299,945.814,-1.651,1.102
1.578000,513229,1000.00,12,0,1,982.518,1.347,10.289,945.718,-1.583,1.111
1.579000,513230,1000.00,12,0,1,982.494,0.159,10.148,948.576,1.024,1.115
1.580000,513231,1000.00,12,0,1,981.028,0.533,9.820,950.402,3.027,1.173
1.581000,513232,1000.00,12,0,1,979.659,-1.167,9.571,949.465,1.898,1.200
1.582000,513233,1000.00,12,0,1,981.989,2.010,9.376,950.234,1.780,1.226
1.583000,513234,1000.00,12,0,1,980.668,1.853,9.283,948.168,0.502,1.227
1.584000,513235,1000.00,12,0,1,972.021,-4.877,9.308,946.847,-1.657,1.227
1.585000,513236,1000.00,12,0,1,970.315,-6.880,9.291,948.889,0.484,1.198
1.586000,513237,1000.00,12,0,1,973.486,-1.841,9.291,950.978,2.313,1.226
1.587000,513238,1000.00,12,0,1,975.455,0.415,9.237,950.018,1.455,1.239
1.588000,513239,1000.00,12,0,1,978.914,3.128,9.240,946.823,-1.746,1.262
1.589000,513240,1000.00,12,0,1,980.596,4.342,9.067,948.576,-0.928,1.254
1.590000,513241,1000.00,12,0,1,981.941,3.656,8.344,949.273,0.755,1.248
1.591000,513242,1000.00,12,0,1,984.319,4.431,7.940,947.664,-1.260,1.254
1.592000,513243,1000.00,12,0,1,982.277,1.373,7.839,948.048,-0.942,1.242
1.593000,513244,1000.00,12,0,1,981.677,-1.316,7.814,947.567,-0.975,1.238
1.594000,513245,1000.00,12,0,1,982.109,-1.332,7.797,948.168,-0.788,1.241
1.595000,513246,1000.00,12,0,1,977.449,-5.513,7.610,949.513,0.760,1.210
1.596000,513247,1000.00,12,0,1,981.605,-3.456,7.412,949.297,0.494,1.207
1.597000,513248,1000.00,12,0,1,981.677,-0.600,7.297,949.369,0.274,1.207
1.598000,513249,1000.00,12,0,1,977.209,-5.416,7.308,952.011,2.242,1.242
1.599000,513250,1000.00,12,0,1,979.395,-2.674,6.947,948.312,-0.163,1.241
1.600000,513251,1000.00,12,0,1,983.911,2.774,6.764,947.832,-2.278,1.282
1.601000,513252,1000.00,12,0,1,986.217,5.396,6.276,947.616,-0.935,1.287
1.602000,513253,1000.00,12,0,1,978.290,-0.149,5.991,948.192,-1.163,1.295
1.603000,513254,1000.00,12,0,1,971.900,-6.811,6.066,948.720,0.153,1.283
1.604000,513255,1000.00,12,0,1,978.026,-0.219,6.054,949.753,0.669,1.270
1.605000,513256,1000.00,12,0,1,980.115,3.963,5.909,948.048,-0.279,1.271
1.606000,513257,1000.00,12,0,1,973.558,-1.926,5.915,949.129,-0.175,1.271
1.607000,513258,1000.00,12,0,1,956.263,-15.534,5.425,949.753,1.112,1.266
1.608000,513259,1000.00,12,0,1,959.121,-15.028,5.338,948.961,0.021,1.266
1.609000,513260,1000.00,12,0,1,982.638,8.961,5.482,947.880,-0.956,1.272
1.610000,513261,1000.00,12,0,1,981.821,11.078,5.689,947.688,-1.104,1.259
1.611000,513262,1000.00,12,0,1,979.467,2.917,5.576,949.033,0.003,1.257
1.612000,513263,1000.00,12,0,1,981.389,5.223,5.454,949.441,0.793,1.248
1.613000,513264,1000.00,12,0,1,982.349,3.229,5.449,946.895,-1.560,1.254
1.614000,513265,1000.00,12,0,1,982.974,3.163,5.465,948.648,-0.591,1.257
1.615000,513266,1000.00,12,0,1,982.349,1.191,5.465,949.513,1.094,1.264
1.616000,513267,1000.00,12,0,1,983.142,0.968,5.466,948.913,0.038,1.260
1.617000,513268,1000.00,12,0,1,981.413,-0.151,5.278,950.162,0.991,1.257
1.618000,513269,1000.00,12,0,1,978.266,-3.317,5.293,951.291,2.044,1.259
1.619000,513270,1000.00,12,0,1,979.395,-1.642,5.041,949.393,0.280,1.259
1.620000,513271,1000.00,12,0,1,977.353,-1.652,5.023,948.336,-1.144,1.257
1.621000,513272,1000.00,12,0,1,971.252,-5.879,5.008,947.928,-1.166,1.241
1.622000,513273,1000.00,12,0,1,971.012,-5.216,5.048,950.090,0.495,1.236
1.623000,513274,1000.00,12,0,1,973.582,-0.378,5.047,950.714,1.662,1.256
1.624000,513275,1000.00,12,0,1,972.021,-0.283,5.006,950.138,0.620,1.256
1.625000,513276,1000.00,12,0,1,971.828,-0.149,4.984,948.264,-0.846,1.239
1.626000,513277,1000.00,12,0,1,973.966,2.435,4.960,949.177,-0.598,1.231
1.627000,513278,1000.00,12,0,1,976.969,4.838,4.840,948.937,-0.012,1.208
1.628000,513279,1000.00,12,0,1,975.239,3.273,4.858,946.751,-2.136,1.225
1.629000,513280,1000.00,12,0,1,972.645,-0.674,4.859,949.513,-0.138,1.217
1.630000,513281,1000.00,12,0,1,971.492,-2.154,4.868,949.009,0.748,1.144
1.631000,513282,1000.00,12,0,1,969.546,-4.244,4.902,948.600,-0.846,1.118
1.632000,513283,1000.00,12,0,1,966.304,-7.148,4.997,947.303,-0.974,1.098
1.633000,513284,1000.00,12,0,1,967.841,-6.096,5.064,948.480,-0.875,1.103
1.634000,513285,1000.00,12,0,1,973.125,-0.704,5.018,949.849,1.247,1.092
1.635000,513286,1000.00,12,0,1,978.650,4.205,4.958,950.114,0.971,1.099
1.636000,513287,1000.00,12,0,1,989.556,12.292,5.248,948.672,-0.135,1.049
1.637000,513288,1000.00,12,0,1,990.444,13.641,5.591,948.048,-1.084,1.040
1.638000,513289,1000.00,12,0,1,979.227,1.379,5.577,949.801,0.472,1.012
1.639000,513290,1000.00,12,0,1,974.230,-4.400,5.578,949.417,0.695,1.009
