# FW/GUI: v9.6.1-multi17-dual (PyQt5)
# StartTime: 2026-03-23 14:38:04
# Slot: 15
# DeviceID: 15
# Label: EMG15
# IP: 192.168.137.233
# TCP: 3333
# DeviceFW: EMG_FW_v9.6_MULTI17_DUALCH_RUNTIMECFG_CHEN
# EMG column notes: EMG_t_s=seconds since this Start; sample_idx=device sample index (ADS frame index); fs=sample rate (SPS); gain=gain; flags=0x01(TEST) 0x02(SHORT) 0x04(RLD); emg_valid=1 valid / 0 invalid (spike-guard decision); ch1_raw_uV=raw uV (after spike guard); ch1_filt_uV=filtered uV; ch1_env_uV=envelope (RMS) uV
EMG_t_s,sample_idx,fs,gain,flags,emg_valid,ch1_raw_uV,ch1_filt_uV,ch1_env_uV,ch2_raw_uV,ch2_filt_uV,ch2_env_uV
0.000000,649680,1000.00,12,0,1,522.498,5.548,26.816,519.543,2.406,1.124
0.001000,649681,1000.00,12,0,1,523.242,3.400,25.356,518.342,1.998,1.151
0.002000,649682,1000.00,12,0,1,525.596,3.323,24.583,516.517,-0.647,1.119
0.003000,649683,1000.00,12,0,1,531.193,3.570,24.450,517.669,0.554,1.116
0.004000,649684,1000.00,12,0,1,525.548,-3.063,24.428,517.117,0.175,1.116
0.005000,649685,1000.00,12,0,1,529.296,-7.073,24.434,516.757,-0.539,1.115
0.006000,649686,1000.00,12,0,1,554.397,12.363,24.497,519.375,1.419,1.128
0.007000,649687,1000.00,12,0,1,572.389,25.531,24.748,517.790,0.601,1.108
0.008000,649688,1000.00,12,0,1,579.403,24.940,24.965,518.630,-0.204,1.108
0.009000,649689,1000.00,12,0,1,586.657,25.127,25.211,519.015,0.991,1.089
0.010000,649690,1000.00,12,0,1,599.556,30.574,25.414,519.495,0.358,1.074
0.011000,649691,1000.00,12,0,1,605.994,32.941,25.818,519.423,0.650,1.076
0.012000,649692,1000.00,12,0,1,600.877,23.852,25.970,519.639,0.250,1.068
0.013000,649693,1000.00,12,0,1,581.324,5.265,25.856,519.951,0.641,1.071
0.014000,649694,1000.00,12,0,1,562.516,-12.561,25.849,518.510,-0.507,1.058
0.015000,649695,1000.00,12,0,1,531.794,-32.654,26.245,517.333,-1.737,1.086
0.016000,649696,1000.00,12,0,1,493.985,-59.866,27.576,516.156,-2.070,1.125
0.017000,649697,1000.00,12,0,1,479.885,-63.015,28.979,517.621,-0.916,1.119
0.018000,649698,1000.00,12,0,1,481.446,-47.616,29.751,518.438,0.897,1.121
0.019000,649699,1000.00,12,0,1,505.371,-19.486,29.875,517.501,-0.120,1.113
0.020000,649700,1000.00,12,0,1,525.284,7.104,29.890,515.844,-1.203,1.122
0.021000,649701,1000.00,12,0,1,521.825,3.510,29.887,514.547,-2.276,1.142
0.022000,649702,1000.00,12,0,1,529.872,4.875,29.884,515.964,-0.852,1.146
0.023000,649703,1000.00,12,0,1,544.741,15.731,29.953,518.294,1.604,1.131
0.024000,649704,1000.00,12,0,1,553.652,16.897,29.998,519.303,2.323,1.163
0.025000,649705,1000.00,12,0,1,545.533,4.885,29.875,517.477,0.564,1.148
0.026000,649706,1000.00,12,0,1,539.913,-8.384,29.519,518.342,0.245,1.148
0.027000,649707,1000.00,12,0,1,550.770,-1.808,29.029,518.222,0.695,1.139
0.028000,649708,1000.00,12,0,1,570.131,13.026,28.951,520.000,1.052,1.145
0.029000,649709,1000.00,12,0,1,575.679,17.346,29.019,517.189,-0.409,1.144
0.030000,649710,1000.00,12,0,1,574.598,12.568,28.584,516.517,-2.567,1.170
0.031000,649711,1000.00,12,0,1,570.227,8.898,27.456,519.279,0.694,1.158
0.032000,649712,1000.00,12,0,1,552.499,-4.228,26.008,517.429,-0.449,1.150
0.033000,649713,1000.00,12,0,1,535.973,-16.337,24.930,517.357,-1.346,1.158
0.034000,649714,1000.00,12,0,1,529.127,-15.126,24.515,516.228,-1.018,1.152
0.035000,649715,1000.00,12,0,1,527.206,-9.462,24.539,515.748,-1.985,1.181
0.036000,649716,1000.00,12,0,1,520.792,-7.020,24.509,518.078,0.903,1.178
0.037000,649717,1000.00,12,0,1,519.135,-4.513,24.267,516.300,0.051,1.177
0.038000,649718,1000.00,12,0,1,526.365,6.151,23.636,516.036,-0.752,1.174
0.039000,649719,1000.00,12,0,1,521.032,4.771,22.820,517.093,0.973,1.180
0.040000,649720,1000.00,12,0,1,506.692,-9.245,22.219,515.556,-0.206,1.173
0.041000,649721,1000.00,12,0,1,506.932,-11.048,21.723,514.763,-1.063,1.169
0.042000,649722,1000.00,12,0,1,511.112,-6.748,21.138,518.198,1.833,1.195
0.043000,649723,1000.00,12,0,1,517.501,-4.569,20.791,516.372,1.206,1.207
0.044000,649724,1000.00,12,0,1,533.956,5.953,20.758,517.165,0.173,1.203
0.045000,649725,1000.00,12,0,1,557.664,21.441,20.974,516.781,0.959,1.202
0.046000,649726,1000.00,12,0,1,573.349,29.141,21.023,519.303,1.516,1.196
0.047000,649727,1000.00,12,0,1,561.435,12.682,20.329,517.501,1.159,1.190
0.048000,649728,1000.00,12,0,1,555.934,-1.903,20.130,517.045,-1.098,1.198
0.049000,649729,1000.00,12,0,1,579.715,16.112,20.212,517.645,0.204,1.184
0.050000,649730,1000.00,12,0,1,602.919,36.162,20.834,518.270,0.229,1.135
0.051000,649731,1000.00,12,0,1,604.600,34.691,21.399,518.150,0.263,1.100
0.052000,649732,1000.00,12,0,1,591.701,19.710,21.574,519.855,1.370,1.113
0.053000,649733,1000.00,12,0,1,574.863,3.828,21.575,519.111,1.089,1.121
0.054000,649734,1000.00,12,0,1,549.641,-14.661,21.670,516.108,-1.712,1.147
0.055000,649735,1000.00,12,0,1,534.244,-25.007,21.934,517.405,-1.036,1.153
0.056000,649736,1000.00,12,0,1,525.981,-23.037,22.106,516.541,-0.273,1.136
0.057000,649737,1000.00,12,0,1,519.927,-21.768,22.025,514.931,-2.305,1.179
0.058000,649738,1000.00,12,0,1,519.663,-15.823,21.856,518.318,1.100,1.189
0.059000,649739,1000.00,12,0,1,524.155,-7.932,21.594,517.357,1.261,1.194
0.060000,649740,1000.00,12,0,1,525.596,-4.700,21.167,515.868,-0.920,1.200
0.061000,649741,1000.00,12,0,1,550.866,12.327,20.722,516.781,0.230,1.197
0.062000,649742,1000.00,12,0,1,563.597,23.853,20.722,517.237,0.661,1.200
0.063000,649743,1000.00,12,0,1,543.612,-2.200,20.711,516.877,0.222,1.197
0.064000,649744,1000.00,12,0,1,531.409,-22.276,20.873,518.006,0.782,1.200
0.065000,649745,1000.00,12,0,1,521.345,-31.571,20.840,518.919,1.538,1.195
0.066000,649746,1000.00,12,0,1,513.874,-40.586,19.889,516.420,-0.776,1.163
0.067000,649747,1000.00,12,0,1,521.561,-31.584,18.333,517.549,-0.888,1.163
0.068000,649748,1000.00,12,0,1,534.316,-16.814,17.217,517.982,0.381,1.157
0.069000,649749,1000.00,12,0,1,547.912,-2.059,16.997,517.237,-1.012,1.166
0.070000,649750,1000.00,12,0,1,560.618,11.503,17.045,517.910,-0.299,1.154
0.071000,649751,1000.00,12,0,1,563.285,16.465,17.196,518.582,0.323,1.109
0.072000,649752,1000.00,12,0,1,565.038,18.406,17.379,519.879,1.270,1.117
0.073000,649753,1000.00,12,0,1,556.343,15.193,17.369,520.600,2.018,1.131
0.074000,649754,1000.00,12,0,1,549.257,9.734,17.259,518.943,0.422,1.084
0.075000,649755,1000.00,12,0,1,542.699,9.593,17.298,518.150,-0.573,1.084
0.076000,649756,1000.00,12,0,1,533.811,5.060,17.272,518.510,-0.005,1.083
0.077000,649757,1000.00,12,0,1,536.334,9.520,17.323,516.901,-0.947,1.087
0.078000,649758,1000.00,12,0,1,534.916,12.539,17.316,515.652,-2.137,1.118
0.079000,649759,1000.00,12,0,1,529.896,6.538,17.166,515.436,-1.715,1.143
0.080000,649760,1000.00,12,0,1,528.359,4.422,17.085,516.541,-0.579,1.087
0.081000,649761,1000.00,12,0,1,525.861,-0.236,17.039,518.078,1.144,1.094
0.082000,649762,1000.00,12,0,1,524.684,-4.777,17.042,518.750,1.631,1.117
0.083000,649763,1000.00,12,0,1,529.656,-4.692,16.897,516.541,-0.301,1.101
0.084000,649764,1000.00,12,0,1,534.076,-4.343,16.773,516.757,-0.966,1.100
0.085000,649765,1000.00,12,0,1,539.600,-4.789,16.733,517.045,-0.163,1.064
0.086000,649766,1000.00,12,0,1,541.066,-6.687,16.730,516.228,-1.250,1.071
0.087000,649767,1000.00,12,0,1,556.343,0.505,16.718,516.781,-0.893,1.078
0.088000,649768,1000.00,12,0,1,573.734,14.959,16.829,517.117,-0.379,1.074
0.089000,649769,1000.00,12,0,1,572.437,11.051,16.888,516.348,-1.142,1.078
0.090000,649770,1000.00,12,0,1,564.198,0.542,16.838,519.615,1.249,1.092
0.091000,649771,1000.00,12,0,1,559.514,-2.924,16.770,517.429,0.534,1.084
0.092000,649772,1000.00,12,0,1,552.932,-5.297,16.760,517.189,-1.224,1.067
0.093000,649773,1000.00,12,0,1,543.372,-8.707,16.792,517.165,0.082,1.053
0.094000,649774,1000.00,12,0,1,547.551,-1.076,16.772,519.063,0.956,1.061
0.095000,649775,1000.00,12,0,1,528.239,-6.542,16.521,517.958,1.176,1.066
0.096000,649776,1000.00,12,0,1,496.651,-31.345,16.602,517.309,-0.269,1.045
0.097000,649777,1000.00,12,0,1,487.115,-31.683,17.102,517.213,0.332,1.033
0.098000,649778,1000.00,12,0,1,505.011,-8.374,17.141,516.468,-0.248,1.022
0.099000,649779,1000.00,12,0,1,531.842,21.097,17.249,516.853,0.047,1.021
0.100000,649780,1000.00,12,0,1,546.038,33.596,17.145,519.111,2.220,1.068
0.101000,649781,1000.00,12,0,1,551.899,31.612,17.025,518.943,2.121,1.109
0.102000,649782,1000.00,12,0,1,545.077,19.289,17.016,518.174,0.893,1.099
0.103000,649783,1000.00,12,0,1,537.631,2.389,17.010,517.886,0.310,1.089
0.104000,649784,1000.00,12,0,1,541.354,-0.916,16.884,516.685,-0.754,1.067
0.105000,649785,1000.00,12,0,1,543.227,-4.141,16.520,516.420,-1.475,1.077
0.106000,649786,1000.00,12,0,1,541.162,-10.956,16.269,515.796,-1.604,1.100
0.107000,649787,1000.00,12,0,1,542.483,-13.153,16.083,516.420,-1.492,1.072
0.108000,649788,1000.00,12,0,1,544.525,-12.009,16.017,518.462,0.597,1.064
0.109000,649789,1000.00,12,0,1,537.246,-16.660,16.151,518.919,0.960,1.057
0.110000,649790,1000.00,12,0,1,543.516,-11.363,16.217,519.279,0.830,1.056
0.111000,649791,1000.00,12,0,1,543.732,-3.171,16.129,518.871,0.499,1.058
0.112000,649792,1000.00,12,0,1,539.624,-4.629,15.786,517.838,-0.670,1.058
0.113000,649793,1000.00,12,0,1,547.695,7.604,15.820,517.501,-0.885,1.065
0.114000,649794,1000.00,12,0,1,564.630,26.693,15.956,518.078,-0.226,1.059
0.115000,649795,1000.00,12,0,1,564.005,30.558,15.916,519.711,1.341,1.054
0.116000,649796,1000.00,12,0,1,548.728,16.320,15.024,521.201,2.739,1.118
0.117000,649797,1000.00,12,0,1,544.981,11.490,14.436,519.591,1.405,1.128
0.118000,649798,1000.00,12,0,1,531.577,3.636,14.248,516.829,-1.400,1.144
0.119000,649799,1000.00,12,0,1,523.170,-7.468,14.284,515.796,-2.206,1.177
0.400000,650080,1000.00,12,0,1,523.891,-4.729,14.207,517.838,-0.247,1.177
0.401000,650081,1000.00,12,0,1,541.042,5.990,14.040,517.742,0.437,1.178
0.402000,650082,1000.00,12,0,1,541.282,7.388,13.837,515.436,-1.842,1.193
0.403000,650083,1000.00,12,0,1,549.065,2.894,13.675,516.300,-1.321,1.173
0.404000,650084,1000.00,12,0,1,561.147,10.730,13.690,516.228,-0.629,1.175
0.405000,650085,1000.00,12,0,1,566.263,6.898,13.657,516.781,-0.728,1.177
0.406000,650086,1000.00,12,0,1,565.759,0.160,13.639,516.877,-0.146,1.177
0.407000,650087,1000.00,12,0,1,561.795,-8.451,13.624,517.862,0.086,1.169
0.408000,650088,1000.00,12,0,1,571.428,-5.367,13.530,519.399,1.564,1.151
0.409000,650089,1000.00,12,0,1,565.423,-6.985,13.534,519.519,1.343,1.141
0.410000,650090,1000.00,12,0,1,558.072,-17.354,13.741,519.399,0.763,1.143
0.411000,650091,1000.00,12,0,1,555.910,-13.255,13.868,518.702,0.093,1.132
0.412000,650092,1000.00,12,0,1,546.062,-17.248,14.065,516.517,-1.873,1.139
0.413000,650093,1000.00,12,0,1,531.145,-23.111,14.424,517.718,-1.080,1.149
0.414000,650094,1000.00,12,0,1,515.412,-28.504,14.964,518.102,0.225,1.141
0.415000,650095,1000.00,12,0,1,516.276,-20.035,15.215,520.024,1.371,1.157
0.416000,650096,1000.00,12,0,1,530.448,2.171,15.189,517.669,0.472,1.145
0.417000,650097,1000.00,12,0,1,544.284,19.431,15.435,517.669,-0.762,1.144
0.418000,650098,1000.00,12,0,1,546.446,23.697,15.653,518.030,0.779,1.148
0.419000,650099,1000.00,12,0,1,526.005,5.216,15.592,517.958,0.284,1.137
0.420000,650100,1000.00,12,0,1,505.299,-16.387,15.763,517.165,0.014,1.123
0.421000,650101,1000.00,12,0,1,505.779,-16.793,15.935,519.279,1.318,1.136
0.422000,650102,1000.00,12,0,1,511.016,-10.437,15.986,518.414,1.271,1.137
0.423000,650103,1000.00,12,0,1,524.563,-1.916,15.941,518.030,-0.106,1.137
0.424000,650104,1000.00,12,0,1,546.566,14.676,16.075,517.597,-0.179,1.129
0.425000,650105,1000.00,12,0,1,550.482,14.573,16.180,517.838,-0.466,1.119
0.426000,650106,1000.00,12,0,1,557.111,10.709,15.634,518.390,0.002,1.118
0.427000,650107,1000.00,12,0,1,552.307,5.152,14.996,518.774,0.165,1.118
0.428000,650108,1000.00,12,0,1,530.160,-18.584,15.179,518.750,-0.164,1.117
0.429000,650109,1000.00,12,0,1,523.074,-25.640,15.318,517.381,-1.255,1.131
0.430000,650110,1000.00,12,0,1,541.186,-5.779,14.585,519.351,-0.315,1.088
0.431000,650111,1000.00,12,0,1,554.998,12.911,14.003,521.249,2.103,1.087
0.432000,650112,1000.00,12,0,1,569.122,25.757,14.209,519.303,0.040,1.080
0.433000,650113,1000.00,12,0,1,565.951,27.358,14.723,517.910,-1.487,1.099
0.434000,650114,1000.00,12,0,1,538.399,3.803,14.732,516.420,-2.299,1.141
0.435000,650115,1000.00,12,0,1,526.221,-7.005,14.754,515.796,-2.650,1.183
0.436000,650116,1000.00,12,0,1,527.350,1.024,14.673,515.940,-1.723,1.186
0.437000,650117,1000.00,12,0,1,526.365,3.764,14.564,519.183,1.157,1.179
0.438000,650118,1000.00,12,0,1,530.473,9.117,14.522,519.519,2.509,1.228
0.439000,650119,1000.00,12,0,1,528.503,8.800,14.384,517.645,0.222,1.221
0.440000,650120,1000.00,12,0,1,526.869,4.182,14.306,516.757,-0.473,1.217
0.441000,650121,1000.00,12,0,1,526.749,2.107,14.302,515.940,-1.010,1.223
0.442000,650122,1000.00,12,0,1,524.443,-3.715,14.297,517.549,0.169,1.220
0.443000,650123,1000.00,12,0,1,529.560,-4.208,14.269,519.279,2.105,1.250
0.444000,650124,1000.00,12,0,1,534.700,-2.647,13.765,518.150,0.817,1.254
0.445000,650125,1000.00,12,0,1,537.991,-4.935,13.088,519.783,1.349,1.255
0.446000,650126,1000.00,12,0,1,544.453,-3.229,12.891,518.198,0.551,1.196
0.447000,650127,1000.00,12,0,1,554.325,1.792,12.791,517.261,-1.540,1.199
0.448000,650128,1000.00,12,0,1,566.864,9.732,12.854,517.790,-0.606,1.186
0.449000,650129,1000.00,12,0,1,576.784,15.980,13.009,518.702,-0.114,1.144
0.450000,650130,1000.00,12,0,1,578.057,15.004,13.163,517.958,-0.439,1.145
0.451000,650131,1000.00,12,0,1,570.947,7.543,13.179,518.462,-0.464,1.146
0.452000,650132,1000.00,12,0,1,564.053,1.536,13.140,517.189,-0.899,1.123
0.453000,650133,1000.00,12,0,1,553.292,-4.062,13.146,519.135,0.102,1.107
0.454000,650134,1000.00,12,0,1,543.540,-9.214,13.123,519.351,1.408,1.121
0.455000,650135,1000.00,12,0,1,540.009,-6.730,13.121,518.030,-0.281,1.117
0.456000,650136,1000.00,12,0,1,534.508,-5.513,13.144,516.012,-1.577,1.139
0.457000,650137,1000.00,12,0,1,528.311,-6.972,13.127,517.309,-0.659,1.143
0.458000,650138,1000.00,12,0,1,535.901,1.681,13.107,516.757,-0.020,1.121
0.459000,650139,1000.00,12,0,1,535.733,5.484,13.093,516.517,-0.630,1.109
0.460000,650140,1000.00,12,0,1,524.107,-6.675,12.895,516.925,0.230,1.104
0.461000,650141,1000.00,12,0,1,521.369,-11.615,12.864,518.822,1.679,1.129
0.462000,650142,1000.00,12,0,1,508.926,-21.018,12.975,517.261,0.787,1.103
0.463000,650143,1000.00,12,0,1,492.760,-37.920,13.654,516.661,-0.648,1.097
0.464000,650144,1000.00,12,0,1,493.120,-37.001,14.056,519.303,1.635,1.120
0.465000,650145,1000.00,12,0,1,515.676,-16.661,13.967,520.288,2.602,1.163
0.466000,650146,1000.00,12,0,1,558.601,20.028,14.248,517.958,-0.040,1.161
0.467000,650147,1000.00,12,0,1,593.263,47.897,15.535,518.342,-0.468,1.158
0.468000,650148,1000.00,12,0,1,599.508,45.401,16.473,520.432,1.394,1.169
0.469000,650149,1000.00,12,0,1,590.452,27.739,16.917,520.000,1.010,1.177
0.470000,650150,1000.00,12,0,1,572.509,6.931,16.786,520.048,0.248,1.178
0.471000,650151,1000.00,12,0,1,555.622,-10.025,16.678,518.871,-0.386,1.164
0.472000,650152,1000.00,12,0,1,531.001,-26.104,17.018,520.312,0.011,1.150
0.473000,650153,1000.00,12,0,1,508.782,-39.757,17.920,519.663,0.491,1.152
0.474000,650154,1000.00,12,0,1,496.339,-39.041,18.636,518.126,-1.553,1.173
0.475000,650155,1000.00,12,0,1,506.740,-20.079,18.738,518.030,-1.136,1.182
0.476000,650156,1000.00,12,0,1,524.876,7.716,18.709,515.988,-2.322,1.227
0.477000,650157,1000.00,12,0,1,537.679,23.876,18.997,519.375,0.041,1.227
0.478000,650158,1000.00,12,0,1,545.990,31.813,19.345,518.582,1.273,1.240
0.479000,650159,1000.00,12,0,1,541.786,26.622,19.372,517.213,-1.334,1.241
0.480000,650160,1000.00,12,0,1,541.810,19.469,19.549,519.423,1.232,1.253
0.481000,650161,1000.00,12,0,1,533.787,10.214,19.517,518.246,0.483,1.219
0.482000,650162,1000.00,12,0,1,527.854,-3.551,19.181,518.774,0.032,1.219
0.483000,650163,1000.00,12,0,1,529.968,-5.120,18.801,518.991,0.819,1.206
0.484000,650164,1000.00,12,0,1,531.674,-8.280,18.829,518.198,-0.586,1.164
0.485000,650165,1000.00,12,0,1,538.207,-7.306,18.832,518.222,-0.540,1.105
0.486000,650166,1000.00,12,0,1,550.770,0.049,18.831,519.351,0.102,1.078
0.487000,650167,1000.00,12,0,1,571.067,12.869,18.911,518.919,-0.049,1.065
0.488000,650168,1000.00,12,0,1,593.767,28.617,19.296,520.024,0.165,1.005
0.489000,650169,1000.00,12,0,1,595.881,26.522,19.618,518.750,-0.320,1.005
0.490000,650170,1000.00,12,0,1,579.931,7.201,19.636,518.750,-1.211,1.018
0.491000,650171,1000.00,12,0,1,553.893,-16.156,19.766,519.903,0.377,1.009
0.492000,650172,1000.00,12,0,1,522.714,-39.360,20.528,521.465,1.481,1.030
0.493000,650173,1000.00,12,0,1,510.968,-42.968,21.400,520.216,0.779,0.992
0.494000,650174,1000.00,12,0,1,504.626,-34.000,21.931,519.279,-0.598,0.989
0.495000,650175,1000.00,12,0,1,507.245,-22.638,22.152,520.432,0.590,0.974
0.496000,650176,1000.00,12,0,1,527.998,5.155,22.159,518.414,-0.485,0.974
0.497000,650177,1000.00,12,0,1,529.320,15.199,22.262,517.718,-1.737,0.980
0.498000,650178,1000.00,12,0,1,515.339,2.646,22.222,518.078,-0.473,0.979
0.499000,650179,1000.00,12,0,1,512.385,0.066,22.107,515.484,-2.441,1.038
0.500000,650180,1000.00,12,0,1,517.958,5.018,22.017,514.643,-3.145,1.127
0.501000,650181,1000.00,12,0,1,529.680,12.546,22.062,517.069,-0.501,1.128
0.502000,650182,1000.00,12,0,1,537.078,15.458,22.169,518.078,0.985,1.129
0.503000,650183,1000.00,12,0,1,542.627,12.666,22.234,518.438,0.916,1.136
0.504000,650184,1000.00,12,0,1,547.167,10.054,22.241,516.396,-0.613,1.122
0.505000,650185,1000.00,12,0,1,550.962,5.929,22.237,516.973,-0.997,1.130
0.506000,650186,1000.00,12,0,1,559.465,6.792,22.244,516.901,-0.248,1.109
0.507000,650187,1000.00,12,0,1,566.744,8.714,22.256,518.630,0.393,1.106
0.508000,650188,1000.00,12,0,1,562.516,1.650,22.256,518.750,1.201,1.119
0.509000,650189,1000.00,12,0,1,548.344,-12.386,22.311,517.597,-0.495,1.118
0.510000,650190,1000.00,12,0,1,554.853,-8.338,22.323,517.309,-0.686,1.121
0.511000,650191,1000.00,12,0,1,558.553,2.431,22.265,518.534,0.390,1.097
0.512000,650192,1000.00,12,0,1,552.932,-0.691,22.066,519.135,1.167,1.104
0.513000,650193,1000.00,12,0,1,544.308,-2.666,21.407,517.597,0.014,1.100
0.514000,650194,1000.00,12,0,1,534.916,-6.052,20.776,517.573,-0.373,1.077
0.515000,650195,1000.00,12,0,1,527.950,-6.204,20.660,518.390,0.989,1.022
0.516000,650196,1000.00,12,0,1,514.259,-10.974,20.524,519.663,1.899,1.057
0.517000,650197,1000.00,12,0,1,501.311,-18.125,19.543,518.318,1.296,1.070
0.518000,650198,1000.00,12,0,1,502.825,-11.899,18.534,516.541,-0.819,1.058
0.519000,650199,1000.00,12,0,1,518.462,4.613,18.126,518.438,0.865,1.056
0.520000,650200,1000.00,12,0,1,521.032,9.593,18.151,517.742,0.963,1.064
0.521000,650201,1000.00,12,0,1,519.615,2.745,18.099,516.084,-1.123,1.074
0.522000,650202,1000.00,12,0,1,532.682,9.483,17.769,516.661,-0.499,1.077
0.523000,650203,1000.00,12,0,1,560.066,26.657,17.273,518.174,0.803,1.080
0.524000,650204,1000.00,12,0,1,575.055,33.378,17.034,517.021,0.019,1.058
0.525000,650205,1000.00,12,0,1,555.214,7.347,16.828,517.477,-0.435,1.047
0.526000,650206,1000.00,12,0,1,548.200,-11.571,16.872,516.901,-0.395,0.996
0.527000,650207,1000.00,12,0,1,566.167,1.972,16.533,516.901,-1.101,1.008
0.528000,650208,1000.00,12,0,1,563.093,-0.085,15.909,516.637,-0.880,1.000
0.529000,650209,1000.00,12,0,1,560.330,-7.376,15.492,519.375,0.839,0.989
0.530000,650210,1000.00,12,0,1,570.947,4.096,15.256,518.198,0.804,0.980
0.531000,650211,1000.00,12,0,1,546.975,-10.012,15.254,518.895,0.041,0.978
0.532000,650212,1000.00,12,0,1,529.151,-26.967,15.715,516.589,-0.667,0.982
0.533000,650213,1000.00,12,0,1,525.428,-18.691,15.920,517.189,-1.360,0.994
0.534000,650214,1000.00,12,0,1,529.031,-8.880,15.926,518.486,1.064,1.002
0.535000,650215,1000.00,12,0,1,535.709,5.759,15.913,517.117,-0.162,0.999
0.536000,650216,1000.00,12,0,1,530.905,7.219,15.946,518.366,0.588,1.003
0.537000,650217,1000.00,12,0,1,526.725,4.628,15.855,519.159,2.120,1.047
0.538000,650218,1000.00,12,0,1,523.122,4.368,15.343,517.694,0.397,1.048
0.539000,650219,1000.00,12,0,1,521.249,1.290,14.878,517.886,0.529,1.050
0.540000,650220,1000.00,12,0,1,521.080,0.696,14.844,517.189,0.107,1.036
0.541000,650221,1000.00,12,0,1,519.423,-3.891,14.677,517.237,-0.120,1.034
0.542000,650222,1000.00,12,0,1,514.787,-10.682,13.664,517.117,-0.023,1.013
0.543000,650223,1000.00,12,0,1,518.270,-12.449,12.365,516.276,-0.878,1.015
0.544000,650224,1000.00,12,0,1,528.311,-5.988,11.423,517.549,-0.108,1.011
0.545000,650225,1000.00,12,0,1,557.304,12.951,11.117,518.510,1.014,1.018
0.546000,650226,1000.00,12,0,1,582.189,32.147,11.989,517.862,0.025,1.016
0.547000,650227,1000.00,12,0,1,582.381,24.921,12.310,517.381,-0.659,0.990
0.548000,650228,1000.00,12,0,1,569.146,6.216,12.335,518.750,0.197,0.988
0.549000,650229,1000.00,12,0,1,544.813,-16.571,12.556,520.504,1.753,0.958
0.550000,650230,1000.00,12,0,1,523.290,-34.520,13.453,519.567,0.827,0.857
0.551000,650231,1000.00,12,0,1,513.346,-35.221,14.235,519.975,0.399,0.856
0.552000,650232,1000.00,12,0,1,519.327,-21.248,14.384,518.270,-0.472,0.847
0.553000,650233,1000.00,12,0,1,555.382,17.818,14.493,516.541,-2.539,0.911
0.554000,650234,1000.00,12,0,1,588.170,54.373,16.344,518.390,-0.549,0.910
0.555000,650235,1000.00,12,0,1,573.109,42.846,17.411,517.910,-0.077,0.899
0.556000,650236,1000.00,12,0,1,551.851,16.542,17.542,518.006,-0.431,0.900
0.557000,650237,1000.00,12,0,1,544.284,9.871,17.554,518.318,0.575,0.902
0.558000,650238,1000.00,12,0,1,543.588,7.528,17.585,518.943,0.830,0.894
0.559000,650239,1000.00,12,0,1,539.817,3.693,17.505,518.510,0.877,0.900
0.560000,650240,1000.00,12,0,1,530.497,-7.503,17.497,519.519,1.136,0.909
0.561000,650241,1000.00,12,0,1,528.263,-13.468,17.597,519.471,1.478,0.931
0.562000,650242,1000.00,12,0,1,518.222,-22.330,17.878,518.798,0.242,0.917
0.563000,650243,1000.00,12,0,1,498.549,-42.190,18.844,518.630,-0.039,0.917
0.564000,650244,1000.00,12,0,1,500.927,-41.760,19.729,517.910,-0.773,0.922
0.565000,650245,1000.00,12,0,1,522.738,-19.973,19.911,517.429,-1.475,0.935
0.566000,650246,1000.00,12,0,1,537.847,-4.847,19.862,518.678,-0.448,0.898
0.567000,650247,1000.00,12,0,1,564.029,13.552,19.789,518.366,-0.502,0.882
0.568000,650248,1000.00,12,0,1,568.473,20.011,19.919,518.510,-0.826,0.882
0.569000,650249,1000.00,12,0,1,560.859,6.421,19.929,519.207,-0.076,0.873
0.570000,650250,1000.00,12,0,1,559.754,5.834,19.900,520.864,1.091,0.876
0.571000,650251,1000.00,12,0,1,557.808,5.645,19.912,520.072,0.697,0.867
0.572000,650252,1000.00,12,0,1,546.807,-0.238,19.867,517.189,-2.123,0.915
0.573000,650253,1000.00,12,0,1,533.739,-7.619,19.536,518.414,-1.350,0.928
0.574000,650254,1000.00,12,0,1,521.825,-11.722,19.030,518.174,-0.330,0.929
0.575000,650255,1000.00,12,0,1,518.102,-8.455,19.039,517.117,-1.602,0.954
0.576000,650256,1000.00,12,0,1,525.476,3.974,18.977,518.991,0.439,0.955
0.577000,650257,1000.00,12,0,1,528.671,12.597,19.058,517.862,0.239,0.942
0.578000,650258,1000.00,12,0,1,523.242,8.562,19.096,518.150,-0.163,0.934
0.579000,650259,1000.00,12,0,1,523.531,7.598,19.098,518.510,0.957,0.937
0.580000,650260,1000.00,12,0,1,523.819,6.908,19.114,519.567,1.302,0.948
0.581000,650261,1000.00,12,0,1,538.784,13.945,19.164,519.639,1.737,0.979
0.582000,650262,1000.00,12,0,1,544.501,17.108,18.935,521.104,2.096,1.019
0.583000,650263,1000.00,12,0,1,542.050,5.448,18.766,520.264,1.678,1.028
0.584000,650264,1000.00,12,0,1,550.698,5.617,18.741,518.847,-0.565,1.020
0.585000,650265,1000.00,12,0,1,561.988,9.825,18.774,519.039,-0.531,1.023
0.586000,650266,1000.00,12,0,1,555.046,-0.926,18.747,519.039,-0.536,1.022
0.587000,650267,1000.00,12,0,1,562.012,-3.301,18.742,519.063,-0.806,0.984
0.588000,650268,1000.00,12,0,1,566.552,1.998,18.733,518.895,-0.802,0.989
0.589000,650269,1000.00,12,0,1,556.703,-8.717,18.773,519.471,-0.614,0.990
0.590000,650270,1000.00,12,0,1,543.372,-18.886,18.962,519.567,-0.167,0.990
0.591000,650271,1000.00,12,0,1,531.890,-24.187,19.260,520.312,0.095,0.990
0.592000,650272,1000.00,12,0,1,526.509,-22.274,19.457,518.871,-0.552,0.993
0.593000,650273,1000.00,12,0,1,523.891,-15.152,19.496,520.384,-0.072,0.985
0.594000,650274,1000.00,12,0,1,528.623,-4.317,19.487,518.078,-0.620,0.989
0.595000,650275,1000.00,12,0,1,538.952,12.132,19.476,518.582,-1.479,1.001
0.596000,650276,1000.00,12,0,1,556.415,29.353,19.388,518.750,0.238,1.001
0.597000,650277,1000.00,12,0,1,556.031,32.067,19.597,518.919,-0.234,0.997
0.598000,650278,1000.00,12,0,1,542.603,15.153,19.694,518.750,0.290,0.998
0.599000,650279,1000.00,12,0,1,538.375,7.632,19.584,517.021,-1.173,0.981
0.600000,650280,1000.00,12,0,1,529.271,-1.655,18.967,517.117,-1.283,0.990
0.601000,650281,1000.00,12,0,1,521.873,-13.063,18.394,518.750,0.684,0.994
0.602000,650282,1000.00,12,0,1,524.371,-12.939,18.239,518.198,0.256,0.992
0.603000,650283,1000.00,12,0,1,525.620,-13.831,18.170,518.943,0.511,0.928
0.604000,650284,1000.00,12,0,1,517.189,-22.770,16.775,521.080,2.238,0.977
0.605000,650285,1000.00,12,0,1,523.458,-21.479,15.934,519.783,1.216,0.992
0.606000,650286,1000.00,12,0,1,535.997,-8.550,15.808,519.783,0.022,0.990
0.607000,650287,1000.00,12,0,1,538.640,-6.770,15.775,518.342,-0.599,0.990
0.608000,650288,1000.00,12,0,1,541.978,-4.877,15.754,519.303,-0.853,0.991
0.609000,650289,1000.00,12,0,1,550.458,3.537,15.754,519.399,0.210,0.983
0.610000,650290,1000.00,12,0,1,545.798,2.625,15.722,519.951,-0.113,0.970
0.611000,650291,1000.00,12,0,1,537.607,-3.568,15.615,520.864,1.117,0.961
0.612000,650292,1000.00,12,0,1,534.796,-1.557,15.294,519.615,-0.015,0.960
0.613000,650293,1000.00,12,0,1,537.895,5.854,14.106,518.462,-1.248,0.976
0.614000,650294,1000.00,12,0,1,534.532,8.929,12.872,518.198,-1.069,0.982
0.615000,650295,1000.00,12,0,1,510.655,-6.402,12.591,518.390,-0.747,0.965
0.616000,650296,1000.00,12,0,1,489.974,-21.783,12.944,517.309,-1.013,0.974
0.617000,650297,1000.00,12,0,1,476.714,-24.892,13.277,518.991,0.045,0.971
0.618000,650298,1000.00,12,0,1,492.664,-8.228,13.024,518.895,1.075,0.976
0.619000,650299,1000.00,12,0,1,528.647,28.970,13.623,518.030,-0.350,0.977
0.620000,650300,1000.00,12,0,1,537.366,36.924,14.566,518.438,0.306,0.966
0.621000,650301,1000.00,12,0,1,538.640,27.616,15.059,518.366,0.243,0.961
0.622000,650302,1000.00,12,0,1,545.654,26.740,15.527,520.456,1.603,0.941
0.623000,650303,1000.00,12,0,1,557.111,26.586,15.939,519.711,1.465,0.944
0.624000,650304,1000.00,12,0,1,554.493,17.748,16.050,518.919,-0.369,0.945
0.625000,650305,1000.00,12,0,1,553.556,5.345,16.023,520.192,0.830,0.925
0.626000,650306,1000.00,12,0,1,560.090,5.908,16.035,521.681,1.739,0.955
0.627000,650307,1000.00,12,0,1,564.174,4.581,15.949,520.600,0.773,0.960
0.628000,650308,1000.00,12,0,1,565.567,2.181,15.906,521.393,0.463,0.962
0.629000,650309,1000.00,12,0,1,573.998,6.747,15.899,520.504,0.217,0.953
0.630000,650310,1000.00,12,0,1,584.687,15.567,16.020,518.750,-1.934,0.974
0.631000,650311,1000.00,12,0,1,590.788,20.232,16.154,521.128,0.010,0.943
0.632000,650312,1000.00,12,0,1,584.735,14.735,16.107,519.519,-0.260,0.896
0.633000,650313,1000.00,12,0,1,573.830,4.639,16.102,520.072,-0.992,0.875
0.634000,650314,1000.00,12,0,1,542.723,-17.858,16.280,520.720,0.864,0.880
0.635000,650315,1000.00,12,0,1,518.030,-38.046,17.089,519.903,-0.364,0.878
0.636000,650316,1000.00,12,0,1,502.224,-41.598,18.073,520.960,0.699,0.881
0.637000,650317,1000.00,12,0,1,502.320,-35.066,18.735,520.456,0.622,0.878
0.638000,650318,1000.00,12,0,1,521.032,-11.051,18.798,521.201,0.651,0.875
0.639000,650319,1000.00,12,0,1,530.521,2.757,18.762,517.477,-1.548,0.898
0.640000,650320,1000.00,12,0,1,528.935,-0.666,18.571,518.006,-2.580,0.969
0.641000,650321,1000.00,12,0,1,518.678,-10.709,18.316,520.240,0.872,0.977
0.642000,650322,1000.00,12,0,1,514.018,-19.493,18.252,520.120,0.282,0.974
0.643000,650323,1000.00,12,0,1,514.787,-18.953,18.323,518.054,-1.341,0.993
0.644000,650324,1000.00,12,0,1,526.317,-12.359,18.396,518.102,-1.839,1.022
0.645000,650325,1000.00,12,0,1,551.371,7.658,18.348,520.216,0.283,1.002
0.646000,650326,1000.00,12,0,1,571.260,22.143,18.145,520.072,0.443,1.003
0.647000,650327,1000.00,12,0,1,571.332,17.530,17.743,516.877,-2.573,1.066
0.648000,650328,1000.00,12,0,1,565.471,6.506,17.637,518.630,-1.556,1.088
0.649000,650329,1000.00,12,0,1,562.132,1.758,17.606,519.183,0.093,1.075
0.650000,650330,1000.00,12,0,1,556.943,-1.596,17.606,517.525,-1.635,1.085
0.651000,650331,1000.00,12,0,1,549.305,-5.501,17.526,518.246,-0.943,1.089
0.652000,650332,1000.00,12,0,1,547.671,-2.849,17.434,518.750,0.196,1.089
0.653000,650333,1000.00,12,0,1,547.671,3.295,17.331,519.279,0.505,1.089
0.654000,650334,1000.00,12,0,1,548.296,8.518,17.071,519.639,1.262,1.057
0.655000,650335,1000.00,12,0,1,545.822,11.003,16.871,518.558,0.296,1.043
0.656000,650336,1000.00,12,0,1,539.216,7.954,16.865,519.519,0.943,1.052
0.657000,650337,1000.00,12,0,1,530.905,2.569,16.842,518.318,0.574,1.052
0.658000,650338,1000.00,12,0,1,521.128,-4.471,16.840,518.750,0.220,1.045
0.659000,650339,1000.00,12,0,1,511.304,-12.403,16.923,517.525,0.088,1.045
0.660000,650340,1000.00,12,0,1,516.829,-8.830,16.965,518.078,-0.282,1.045
0.661000,650341,1000.00,12,0,1,522.522,-2.684,16.962,517.165,-0.092,1.033
0.662000,650342,1000.00,12,0,1,527.950,-2.375,16.964,518.030,-0.215,1.034
0.663000,650343,1000.00,12,0,1,529.776,-3.490,16.951,518.030,0.569,1.022
0.664000,650344,1000.00,12,0,1,531.361,-7.548,16.937,518.919,0.573,1.014
0.665000,650345,1000.00,12,0,1,527.134,-13.467,17.020,518.919,0.915,1.017
0.666000,650346,1000.00,12,0,1,534.364,-11.938,16.824,520.144,1.234,1.022
0.667000,650347,1000.00,12,0,1,551.010,2.743,16.456,520.168,1.423,1.041
0.668000,650348,1000.00,12,0,1,562.180,11.611,16.497,519.783,0.485,1.032
0.669000,650349,1000.00,12,0,1,569.963,16.173,16.143,520.240,0.624,1.035
0.670000,650350,1000.00,12,0,1,577.121,21.540,15.576,518.847,-0.336,1.035
0.671000,650351,1000.00,12,0,1,559.922,8.603,15.127,518.486,-1.251,1.050
0.672000,650352,1000.00,12,0,1,522.378,-22.603,14.992,518.198,-0.755,1.030
0.673000,650353,1000.00,12,0,1,512.217,-28.621,15.066,519.279,-0.182,1.010
0.674000,650354,1000.00,12,0,1,521.561,-8.213,14.901,519.639,0.915,1.017
0.675000,650355,1000.00,12,0,1,517.285,-2.711,14.887,518.895,-0.021,1.010
0.676000,650356,1000.00,12,0,1,533.163,12.667,14.971,517.790,-0.683,0.984
0.677000,650357,1000.00,12,0,1,543.179,29.003,15.509,517.958,-0.617,0.982
0.678000,650358,1000.00,12,0,1,544.597,25.714,15.927,516.517,-1.183,0.994
0.679000,650359,1000.00,12,0,1,542.627,21.938,16.198,516.637,-1.395,1.013
0.680000,650360,1000.00,12,0,1,537.655,11.481,16.130,515.508,-1.439,0.996
0.681000,650361,1000.00,12,0,1,530.184,0.090,15.874,517.742,-0.150,0.996
0.682000,650362,1000.00,12,0,1,533.139,-3.921,15.746,520.264,2.864,1.075
0.683000,650363,1000.00,12,0,1,543.852,1.065,15.733,518.582,1.103,1.077
0.684000,650364,1000.00,12,0,1,553.869,4.501,15.542,518.198,-0.145,1.070
0.685000,650365,1000.00,12,0,1,562.132,5.168,14.600,517.669,-0.202,1.069
0.686000,650366,1000.00,12,0,1,550.962,-7.488,13.404,519.303,0.349,1.066
0.687000,650367,1000.00,12,0,1,543.083,-21.266,12.811,519.495,1.241,1.077
0.688000,650368,1000.00,12,0,1,546.134,-16.680,12.932,518.270,-0.620,1.076
0.689000,650369,1000.00,12,0,1,548.152,-12.961,13.056,519.903,0.652,1.058
0.690000,650370,1000.00,12,0,1,543.564,-12.614,13.177,518.582,0.080,0.993
0.691000,650371,1000.00,12,0,1,546.566,-7.153,13.128,519.255,-0.292,0.986
0.692000,650372,1000.00,12,0,1,553.604,5.408,12.858,518.750,0.332,0.987
0.693000,650373,1000.00,12,0,1,549.905,7.524,12.621,519.783,0.336,0.969
0.694000,650374,1000.00,12,0,1,543.155,4.516,12.515,520.096,1.516,0.958
0.695000,650375,1000.00,12,0,1,534.988,2.285,12.473,520.216,0.973,0.967
0.696000,650376,1000.00,12,0,1,526.293,-2.226,12.077,519.063,0.403,0.967
0.697000,650377,1000.00,12,0,1,517.621,-5.740,11.848,520.072,0.633,0.900
0.698000,650378,1000.00,12,0,1,521.152,-1.861,11.815,519.543,0.837,0.881
0.699000,650379,1000.00,12,0,1,529.680,8.001,11.867,517.573,-1.297,0.900
0.700000,650380,1000.00,12,0,1,526.797,4.432,11.881,517.958,-1.108,0.883
0.701000,650381,1000.00,12,0,1,532.634,3.695,11.867,520.432,1.273,0.892
0.702000,650382,1000.00,12,0,1,543.876,10.651,11.955,519.183,0.433,0.893
0.703000,650383,1000.00,12,0,1,539.576,2.033,11.950,520.288,0.337,0.892
0.704000,650384,1000.00,12,0,1,535.805,-8.712,11.953,516.541,-1.852,0.912
0.705000,650385,1000.00,12,0,1,537.174,-10.684,11.947,517.790,-2.554,0.980
0.706000,650386,1000.00,12,0,1,541.954,-9.644,11.972,518.126,-0.411,0.973
0.707000,650387,1000.00,12,0,1,548.872,-4.684,11.984,519.111,-0.743,0.975
0.708000,650388,1000.00,12,0,1,551.010,-2.928,11.975,519.831,0.689,0.979
0.709000,650389,1000.00,12,0,1,553.556,-1.091,11.847,518.606,-0.686,0.984
0.710000,650390,1000.00,12,0,1,549.713,-1.313,11.782,518.582,-0.967,0.993
0.711000,650391,1000.00,12,0,1,538.784,-8.268,11.834,518.750,-0.266,0.993
0.712000,650392,1000.00,12,0,1,527.374,-13.021,11.972,519.303,-0.078,0.993
0.713000,650393,1000.00,12,0,1,518.462,-14.150,12.128,520.600,1.493,1.012
0.714000,650394,1000.00,12,0,1,521.369,-5.115,12.102,519.111,0.279,1.010
0.715000,650395,1000.00,12,0,1,535.853,14.075,12.116,518.246,-0.712,1.006
0.716000,650396,1000.00,12,0,1,528.671,14.537,12.173,519.879,0.810,0.998
0.717000,650397,1000.00,12,0,1,517.597,3.022,12.174,519.783,1.263,0.993
0.718000,650398,1000.00,12,0,1,519.951,6.494,12.098,517.333,-1.076,1.003
0.719000,650399,1000.00,12,0,1,522.281,8.920,11.946,516.637,-1.760,1.029
0.920000,650600,1000.00,12,0,1,517.189,2.612,11.557,517.669,-0.501,1.031
0.921000,650601,1000.00,12,0,1,530.352,8.050,11.549,518.030,0.130,1.015
0.922000,650602,1000.00,12,0,1,546.086,19.687,11.442,518.462,0.340,1.011
0.923000,650603,1000.00,12,0,1,552.740,17.743,10.993,518.991,0.800,1.017
0.924000,650604,1000.00,12,0,1,547.575,6.506,10.970,520.360,1.585,1.033
0.925000,650605,1000.00,12,0,1,533.187,-12.531,11.105,519.975,1.287,1.049
0.926000,650606,1000.00,12,0,1,520.816,-27.035,11.608,520.720,1.010,1.054
0.927000,650607,1000.00,12,0,1,531.481,-19.049,11.188,521.465,1.723,1.079
0.928000,650608,1000.00,12,0,1,547.047,-1.505,10.583,521.633,1.233,1.080
0.929000,650609,1000.00,12,0,1,555.958,7.092,10.167,523.146,2.060,1.101
0.930000,650610,1000.00,12,0,1,572.869,20.852,10.461,522.690,1.661,1.107
0.931000,650611,1000.00,12,0,1,578.178,28.159,11.193,521.993,0.228,1.107
0.932000,650612,1000.00,12,0,1,571.284,19.558,11.517,521.465,-0.105,1.031
0.933000,650613,1000.00,12,0,1,577.505,23.492,11.985,519.591,-1.773,1.049
0.934000,650614,1000.00,12,0,1,591.053,35.683,12.989,520.672,-1.041,1.059
0.935000,650615,1000.00,12,0,1,602.583,43.246,14.338,519.615,-0.903,1.067
0.936000,650616,1000.00,12,0,1,590.812,31.053,14.958,518.054,-2.625,1.128
0.937000,650617,1000.00,12,0,1,551.106,-7.943,14.696,518.678,-1.506,1.135
0.938000,650618,1000.00,12,0,1,512.673,-43.937,15.780,517.309,-1.965,1.165
0.939000,650619,1000.00,12,0,1,502.296,-50.655,17.233,518.294,-1.424,1.179
0.940000,650620,1000.00,12,0,1,506.019,-40.195,18.058,518.318,-0.312,1.179
0.941000,650621,1000.00,12,0,1,502.488,-37.937,18.811,519.207,-0.193,1.179
0.942000,650622,1000.00,12,0,1,487.884,-47.085,19.940,517.477,-0.782,1.183
0.943000,650623,1000.00,12,0,1,486.875,-46.707,20.979,517.790,-1.542,1.202
0.944000,650624,1000.00,12,0,1,500.038,-30.387,21.405,519.111,0.387,1.184
0.945000,650625,1000.00,12,0,1,529.752,-4.022,21.410,520.600,1.171,1.188
0.946000,650626,1000.00,12,0,1,559.441,22.793,21.649,521.321,1.795,1.213
0.947000,650627,1000.00,12,0,1,564.101,23.856,21.895,518.678,-0.638,1.213
0.948000,650628,1000.00,12,0,1,567.536,18.692,22.053,517.669,-2.289,1.250
0.949000,650629,1000.00,12,0,1,576.088,23.624,22.276,518.943,-0.590,1.239
0.950000,650630,1000.00,12,0,1,579.307,23.306,22.509,519.903,0.317,1.230
0.951000,650631,1000.00,12,0,1,574.647,18.025,22.647,520.600,1.114,1.227
0.952000,650632,1000.00,12,0,1,553.941,1.057,22.598,519.663,0.392,1.227
0.953000,650633,1000.00,12,0,1,530.208,-17.752,22.735,518.558,-0.627,1.229
0.954000,650634,1000.00,12,0,1,516.637,-23.020,22.934,517.357,-1.287,1.215
0.955000,650635,1000.00,12,0,1,530.905,-4.633,22.893,517.069,-1.304,1.174
0.956000,650636,1000.00,12,0,1,535.493,10.773,22.903,517.141,-0.623,1.176
0.957000,650637,1000.00,12,0,1,523.627,1.971,22.895,520.000,1.789,1.199
0.958000,650638,1000.00,12,0,1,508.446,-8.038,22.920,518.798,1.756,1.220
0.959000,650639,1000.00,12,0,1,494.201,-18.228,23.064,514.835,-2.370,1.262
0.960000,650640,1000.00,12,0,1,493.769,-17.154,23.190,515.988,-1.526,1.273
0.961000,650641,1000.00,12,0,1,504.386,-5.341,23.173,517.237,0.543,1.274
0.962000,650642,1000.00,12,0,1,534.844,17.551,23.233,518.366,1.025,1.283
0.963000,650643,1000.00,12,0,1,545.822,27.340,23.467,518.871,1.709,1.288
0.964000,650644,1000.00,12,0,1,529.680,3.366,23.461,518.342,0.657,1.291
0.965000,650645,1000.00,12,0,1,537.823,0.442,23.376,518.222,0.294,1.287
0.966000,650646,1000.00,12,0,1,568.810,23.578,23.523,520.792,1.951,1.312
0.967000,650647,1000.00,12,0,1,581.252,30.206,23.904,521.465,2.745,1.356
0.968000,650648,1000.00,12,0,1,580.676,20.655,24.064,518.822,-0.189,1.348
0.969000,650649,1000.00,12,0,1,586.825,19.385,24.187,518.943,-0.793,1.329
0.970000,650650,1000.00,12,0,1,589.371,19.133,24.335,519.471,0.234,1.328
0.971000,650651,1000.00,12,0,1,579.379,8.351,24.337,518.967,-0.396,1.329
0.972000,650652,1000.00,12,0,1,571.812,0.819,24.178,517.790,-1.069,1.337
0.973000,650653,1000.00,12,0,1,565.567,-1.137,24.048,518.150,-0.840,1.337
0.974000,650654,1000.00,12,0,1,547.143,-11.948,24.090,518.630,0.253,1.319
0.975000,650655,1000.00,12,0,1,532.106,-21.204,24.211,518.078,-0.085,1.306
0.976000,650656,1000.00,12,0,1,533.956,-12.977,23.977,519.303,0.917,1.305
0.977000,650657,1000.00,12,0,1,530.208,-8.167,23.853,518.222,0.660,1.285
0.978000,650658,1000.00,12,0,1,512.865,-19.228,24.007,519.639,0.959,1.281
0.979000,650659,1000.00,12,0,1,505.947,-23.539,24.216,519.951,2.083,1.281
0.980000,650660,1000.00,12,0,1,505.659,-19.213,24.189,517.597,-0.652,1.263
0.981000,650661,1000.00,12,0,1,515.460,-11.070,23.910,518.198,-0.539,1.265
0.982000,650662,1000.00,12,0,1,536.093,6.196,23.766,517.910,-0.282,1.265
0.983000,650663,1000.00,12,0,1,570.779,29.919,23.910,515.988,-2.335,1.284
0.984000,650664,1000.00,12,0,1,579.835,33.465,23.845,517.261,-1.399,1.290
0.985000,650665,1000.00,12,0,1,572.989,13.197,23.123,516.949,-0.993,1.292
0.986000,650666,1000.00,12,0,1,569.794,1.979,22.704,517.429,-1.149,1.248
0.987000,650667,1000.00,12,0,1,565.999,-7.105,22.699,517.333,-0.627,1.233
0.988000,650668,1000.00,12,0,1,558.409,-16.437,21.955,517.982,-0.501,1.203
0.989000,650669,1000.00,12,0,1,558.505,-16.909,20.891,520.192,1.619,1.208
0.990000,650670,1000.00,12,0,1,558.457,-12.958,20.186,518.102,0.259,1.208
0.991000,650671,1000.00,12,0,1,546.686,-17.681,19.620,517.645,-1.093,1.217
0.992000,650672,1000.00,12,0,1,556.127,-7.277,18.484,519.303,1.110,1.222
0.993000,650673,1000.00,12,0,1,556.055,5.057,17.278,518.246,0.373,1.204
0.994000,650674,1000.00,12,0,1,547.575,-0.382,16.735,518.462,0.272,1.203
0.995000,650675,1000.00,12,0,1,533.451,-4.169,16.736,517.549,0.176,1.192
0.996000,650676,1000.00,12,0,1,524.323,-8.831,16.470,516.661,-0.867,1.171
0.997000,650677,1000.00,12,0,1,528.431,0.746,16.121,518.510,0.994,1.176
0.998000,650678,1000.00,12,0,1,536.574,11.617,15.988,518.919,1.802,1.159
0.999000,650679,1000.00,12,0,1,535.060,11.285,15.716,519.255,1.554,1.177
1.000000,650680,1000.00,12,0,1,519.879,-3.247,15.373,518.390,0.989,1.184
1.001000,650681,1000.00,12,0,1,506.260,-18.923,15.395,517.189,-0.624,1.177
1.002000,650682,1000.00,12,0,1,509.238,-17.908,15.601,517.213,-0.626,1.179
1.003000,650683,1000.00,12,0,1,527.662,-3.987,15.408,517.597,-0.328,1.177
1.004000,650684,1000.00,12,0,1,553.749,15.447,15.218,517.237,-0.646,1.166
1.005000,650685,1000.00,12,0,1,562.684,18.727,15.433,517.669,-0.546,1.154
1.006000,650686,1000.00,12,0,1,563.549,10.158,15.424,517.982,-0.172,1.151
1.007000,650687,1000.00,12,0,1,558.505,1.069,15.422,518.967,0.363,1.124
1.008000,650688,1000.00,12,0,1,552.620,-8.483,15.427,519.471,0.866,1.103
1.009000,650689,1000.00,12,0,1,551.659,-9.348,15.268,519.783,0.776,1.056
1.010000,650690,1000.00,12,0,1,547.263,-9.918,15.139,519.591,0.563,1.037
1.011000,650691,1000.00,12,0,1,548.944,-5.871,15.143,520.600,1.064,1.045
1.012000,650692,1000.00,12,0,1,557.472,7.656,14.977,519.399,0.429,1.037
1.013000,650693,1000.00,12,0,1,572.341,24.007,14.862,518.606,-0.802,1.015
1.014000,650694,1000.00,12,0,1,574.791,31.217,15.497,518.822,-0.182,1.011
1.015000,650695,1000.00,12,0,1,547.984,9.825,15.559,517.237,-1.186,1.024
1.016000,650696,1000.00,12,0,1,524.467,-11.278,15.281,517.669,-1.025,0.996
1.017000,650697,1000.00,12,0,1,515.099,-13.960,14.804,518.654,0.614,0.922
1.018000,650698,1000.00,12,0,1,517.669,-8.052,14.557,518.246,0.216,0.922
1.019000,650699,1000.00,12,0,1,521.273,-0.699,14.297,519.495,1.122,0.929
1.020000,650700,1000.00,12,0,1,525.596,2.078,14.042,520.168,1.868,0.965
1.021000,650701,1000.00,12,0,1,532.082,5.670,14.015,517.381,-0.689,0.968
1.022000,650702,1000.00,12,0,1,535.325,4.354,14.028,519.423,-0.022,0.956
1.023000,650703,1000.00,12,0,1,533.163,-3.040,14.034,518.510,0.406,0.951
1.024000,650704,1000.00,12,0,1,537.246,-6.031,13.958,519.327,-0.505,0.953
1.025000,650705,1000.00,12,0,1,543.972,-4.240,13.645,520.384,1.230,0.968
1.026000,650706,1000.00,12,0,1,543.660,-8.256,13.572,520.912,0.751,0.966
1.027000,650707,1000.00,12,0,1,550.530,-7.105,13.560,521.489,1.154,0.975
1.028000,650708,1000.00,12,0,1,558.961,0.286,13.284,520.336,-0.095,0.965
1.029000,650709,1000.00,12,0,1,555.862,-2.758,12.866,519.519,-1.333,0.938
1.030000,650710,1000.00,12,0,1,537.487,-16.497,12.791,520.000,-0.685,0.939
1.031000,650711,1000.00,12,0,1,526.077,-24.080,13.143,520.864,0.010,0.936
1.032000,650712,1000.00,12,0,1,519.807,-20.031,13.417,520.360,-0.011,0.935
1.033000,650713,1000.00,12,0,1,520.168,-12.028,12.845,521.753,0.648,0.880
1.034000,650714,1000.00,12,0,1,549.665,19.794,12.265,520.240,0.305,0.858
1.035000,650715,1000.00,12,0,1,564.846,42.840,13.552,521.321,0.094,0.847
1.036000,650716,1000.00,12,0,1,572.413,44.948,14.966,521.225,1.215,0.848
1.037000,650717,1000.00,12,0,1,567.825,41.517,16.045,521.561,0.534,0.847
1.038000,650718,1000.00,12,0,1,551.202,20.471,16.138,518.943,-0.828,0.852
1.039000,650719,1000.00,12,0,1,542.459,8.198,16.001,519.711,-1.322,0.842
1.200000,650880,1000.00,12,0,1,533.571,-1.687,15.898,519.471,-0.274,0.842
1.201000,650881,1000.00,12,0,1,522.474,-15.293,15.848,517.525,-2.462,0.898
1.202000,650882,1000.00,12,0,1,518.222,-21.468,16.104,520.048,-0.530,0.887
1.203000,650883,1000.00,12,0,1,507.172,-31.335,16.687,519.711,0.264,0.887
1.204000,650884,1000.00,12,0,1,497.012,-41.842,17.705,518.558,-1.848,0.924
1.205000,650885,1000.00,12,0,1,508.878,-31.878,18.260,520.504,0.139,0.923
1.206000,650886,1000.00,12,0,1,544.380,-0.011,18.218,519.831,-0.284,0.916
1.207000,650887,1000.00,12,0,1,544.525,4.468,18.228,518.919,-1.523,0.931
1.208000,650888,1000.00,12,0,1,553.989,2.416,18.157,520.144,-0.457,0.897
1.209000,650889,1000.00,12,0,1,568.425,18.745,18.280,521.393,0.836,0.878
1.210000,650890,1000.00,12,0,1,565.687,13.552,18.375,522.161,1.324,0.887
1.211000,650891,1000.00,12,0,1,557.856,6.182,18.200,520.312,-0.079,0.882
1.212000,650892,1000.00,12,0,1,550.097,1.458,18.024,520.912,-0.278,0.879
1.213000,650893,1000.00,12,0,1,552.067,5.125,18.030,518.654,-1.030,0.890
1.214000,650894,1000.00,12,0,1,546.710,7.803,17.931,518.198,-2.238,0.940
1.215000,650895,1000.00,12,0,1,543.300,5.620,17.752,517.621,-1.310,0.955
1.216000,650896,1000.00,12,0,1,539.528,8.610,17.736,517.213,-1.763,0.987
1.217000,650897,1000.00,12,0,1,531.553,3.083,17.740,518.678,0.141,0.985
1.218000,650898,1000.00,12,0,1,527.350,1.624,17.701,518.943,0.917,0.986
1.219000,650899,1000.00,12,0,1,519.399,-3.445,17.659,517.694,-0.254,0.981
1.220000,650900,1000.00,12,0,1,523.170,-2.390,17.606,517.886,-0.088,0.978
1.221000,650901,1000.00,12,0,1,537.847,10.078,17.644,517.910,0.128,0.966
1.222000,650902,1000.00,12,0,1,541.522,10.197,17.670,518.222,0.280,0.965
1.223000,650903,1000.00,12,0,1,560.018,16.528,17.497,517.694,-0.108,0.959
1.224000,650904,1000.00,12,0,1,581.324,29.977,17.454,519.159,0.665,0.963
1.225000,650905,1000.00,12,0,1,567.104,10.047,17.457,518.270,0.381,0.950
1.226000,650906,1000.00,12,0,1,560.787,-8.966,17.430,517.597,-1.012,0.949
1.227000,650907,1000.00,12,0,1,574.430,-0.168,17.318,517.790,-0.532,0.948
1.228000,650908,1000.00,12,0,1,581.180,2.850,17.285,519.063,0.356,0.949
1.229000,650909,1000.00,12,0,1,580.315,-0.951,17.285,519.663,1.126,0.949
1.230000,650910,1000.00,12,0,1,582.573,-0.738,17.283,518.630,0.149,0.912
1.231000,650911,1000.00,12,0,1,577.625,-2.870,17.269,519.039,0.169,0.907
1.232000,650912,1000.00,12,0,1,556.463,-18.068,17.446,520.096,1.486,0.931
1.233000,650913,1000.00,12,0,1,532.706,-34.088,18.095,519.519,0.978,0.940
1.234000,650914,1000.00,12,0,1,520.864,-35.785,18.770,518.678,0.225,0.937
1.235000,650915,1000.00,12,0,1,524.395,-22.687,19.033,517.958,-0.267,0.922
1.236000,650916,1000.00,12,0,1,546.566,4.825,19.009,518.750,0.473,0.918
1.237000,650917,1000.00,12,0,1,560.618,24.380,19.293,520.072,1.892,0.942
1.238000,650918,1000.00,12,0,1,538.159,7.046,19.319,521.873,3.203,1.046
1.239000,650919,1000.00,12,0,1,512.625,-19.024,19.501,518.919,0.970,1.037
1.240000,650920,1000.00,12,0,1,497.780,-29.075,19.793,515.315,-3.100,1.122
1.241000,650921,1000.00,12,0,1,499.342,-26.959,19.867,516.180,-2.213,1.165
1.242000,650922,1000.00,12,0,1,521.104,-6.259,19.684,518.582,0.373,1.166
1.243000,650923,1000.00,12,0,1,549.569,17.414,19.764,518.582,0.538,1.165
1.244000,650924,1000.00,12,0,1,548.560,14.326,19.670,517.718,-0.596,1.167
1.245000,650925,1000.00,12,0,1,552.596,5.898,18.732,519.255,0.322,1.168
1.246000,650926,1000.00,12,0,1,560.859,10.474,17.683,517.357,-0.705,1.160
1.247000,650927,1000.00,12,0,1,557.616,2.185,16.682,517.742,-1.558,1.178
1.248000,650928,1000.00,12,0,1,557.184,-2.455,16.433,519.519,0.803,1.178
1.249000,650929,1000.00,12,0,1,560.642,0.472,16.392,520.720,1.374,1.179
1.250000,650930,1000.00,12,0,1,557.856,-0.935,16.391,521.008,1.667,1.202
1.251000,650931,1000.00,12,0,1,552.427,-3.259,16.254,519.591,0.191,1.150
1.252000,650932,1000.00,12,0,1,541.450,-8.056,16.009,518.798,-0.794,1.153
1.253000,650933,1000.00,12,0,1,534.028,-9.416,15.441,517.742,-1.220,1.166
1.254000,650934,1000.00,12,0,1,536.838,-0.315,14.262,517.549,-1.427,1.154
1.255000,650935,1000.00,12,0,1,540.657,10.181,13.607,517.645,-0.607,1.157
1.256000,650936,1000.00,12,0,1,536.117,10.872,13.693,517.669,-0.437,1.158
1.257000,650937,1000.00,12,0,1,533.931,10.614,13.761,516.492,-0.857,1.144
1.258000,650938,1000.00,12,0,1,534.148,12.576,13.871,516.901,-0.670,1.146
1.259000,650939,1000.00,12,0,1,535.973,13.110,13.741,518.702,1.388,1.157
1.260000,650940,1000.00,12,0,1,537.198,12.011,13.713,519.831,2.323,1.188
1.261000,650941,1000.00,12,0,1,535.084,6.194,13.713,517.309,0.203,1.188
1.262000,650942,1000.00,12,0,1,534.076,-0.076,13.711,520.144,1.280,1.201
1.263000,650943,1000.00,12,0,1,539.552,-0.642,13.692,518.702,1.402,1.209
1.264000,650944,1000.00,12,0,1,548.944,2.324,13.652,517.309,-1.618,1.189
1.265000,650945,1000.00,12,0,1,550.169,-1.019,13.629,519.039,0.340,1.175
1.266000,650946,1000.00,12,0,1,551.515,-6.278,13.604,519.231,0.429,1.150
1.267000,650947,1000.00,12,0,1,543.348,-14.362,13.748,519.759,0.316,1.151
1.268000,650948,1000.00,12,0,1,535.517,-24.024,14.159,520.624,1.150,1.155
1.269000,650949,1000.00,12,0,1,535.036,-21.341,14.469,519.711,0.034,1.154
1.270000,650950,1000.00,12,0,1,549.953,-5.904,14.489,519.255,-0.554,1.157
1.271000,650951,1000.00,12,0,1,563.765,12.307,14.524,520.480,0.369,1.158
1.272000,650952,1000.00,12,0,1,562.756,14.299,14.593,518.919,-0.329,1.158
1.273000,650953,1000.00,12,0,1,560.498,13.363,14.528,519.783,-0.410,1.159
1.274000,650954,1000.00,12,0,1,539.360,1.176,13.896,520.144,0.991,1.164
1.275000,650955,1000.00,12,0,1,527.710,-9.550,13.889,517.766,-1.311,1.178
1.276000,650956,1000.00,12,0,1,534.268,3.584,13.841,516.468,-2.266,1.212
1.277000,650957,1000.00,12,0,1,532.490,6.869,13.875,516.733,-1.548,1.229
1.278000,650958,1000.00,12,0,1,531.842,6.541,13.900,518.390,0.187,1.229
1.279000,650959,1000.00,12,0,1,545.942,18.093,14.133,517.669,0.247,1.219
1.280000,650960,1000.00,12,0,1,545.005,17.386,14.345,515.556,-1.911,1.248
1.281000,650961,1000.00,12,0,1,524.804,-5.687,14.361,517.910,-0.052,1.248
1.282000,650962,1000.00,12,0,1,513.442,-21.017,14.441,517.357,0.429,1.232
1.283000,650963,1000.00,12,0,1,512.769,-22.450,13.978,519.207,0.731,1.228
1.284000,650964,1000.00,12,0,1,520.360,-17.865,13.273,520.384,2.518,1.278
1.285000,650965,1000.00,12,0,1,539.528,-2.900,12.886,518.246,-0.161,1.278
1.286000,650966,1000.00,12,0,1,577.241,25.018,13.345,518.150,-0.827,1.282
1.287000,650967,1000.00,12,0,1,589.732,34.738,13.796,517.814,-0.746,1.258
1.288000,650968,1000.00,12,0,1,576.712,13.281,13.888,518.006,-1.029,1.182
1.289000,650969,1000.00,12,0,1,570.203,1.765,13.627,517.141,-1.123,1.185
1.290000,650970,1000.00,12,0,1,569.482,0.416,12.992,519.135,-0.044,1.101
1.291000,650971,1000.00,12,0,1,562.180,-4.244,12.435,518.558,0.711,1.060
1.292000,650972,1000.00,12,0,1,556.031,-7.352,12.447,518.318,-0.406,1.061
1.293000,650973,1000.00,12,0,1,548.848,-8.100,12.254,515.748,-1.428,1.077
1.294000,650974,1000.00,12,0,1,542.195,-8.627,12.147,515.652,-2.175,1.117
1.295000,650975,1000.00,12,0,1,534.076,-9.028,12.185,515.652,-0.731,1.121
1.296000,650976,1000.00,12,0,1,531.073,-6.633,12.131,518.222,1.120,1.127
1.297000,650977,1000.00,12,0,1,530.376,-1.630,12.129,517.093,1.429,1.124
1.298000,650978,1000.00,12,0,1,530.208,1.126,12.126,518.126,1.107,1.129
1.299000,650979,1000.00,12,0,1,529.968,2.217,12.129,517.285,1.419,1.130
1.300000,650980,1000.00,12,0,1,530.473,1.897,12.132,517.237,0.333,1.106
1.301000,650981,1000.00,12,0,1,536.237,3.957,12.136,516.901,0.500,1.108
1.302000,650982,1000.00,12,0,1,527.758,-4.466,12.099,516.468,-0.296,1.103
1.303000,650983,1000.00,12,0,1,520.264,-17.736,12.284,517.910,0.653,1.094
1.304000,650984,1000.00,12,0,1,531.505,-10.667,12.376,517.285,0.537,1.078
1.305000,650985,1000.00,12,0,1,552.572,4.900,12.312,517.982,0.022,1.074
1.306000,650986,1000.00,12,0,1,592.686,32.841,13.068,518.702,1.211,1.086
1.307000,650987,1000.00,12,0,1,622.712,54.472,15.096,518.390,0.190,1.080
1.308000,650988,1000.00,12,0,1,635.971,53.032,16.762,518.150,0.056,1.076
1.309000,650989,1000.00,12,0,1,624.994,35.079,17.382,517.621,-0.621,1.061
1.310000,650990,1000.00,12,0,1,598.139,2.252,17.302,518.102,-0.211,1.009
1.311000,650991,1000.00,12,0,1,570.107,-23.771,17.604,518.270,0.216,1.009
1.312000,650992,1000.00,12,0,1,535.853,-48.075,18.871,518.991,0.691,0.998
1.313000,650993,1000.00,12,0,1,509.863,-62.498,20.838,518.054,0.366,0.979
1.314000,650994,1000.00,12,0,1,506.236,-51.831,22.087,516.661,-1.093,0.965
1.315000,650995,1000.00,12,0,1,505.611,-36.380,22.678,516.348,-0.979,0.973
1.316000,650996,1000.00,12,0,1,497.900,-30.331,23.063,518.943,1.244,0.987
1.317000,650997,1000.00,12,0,1,499.246,-20.442,23.155,516.012,-0.101,0.986
1.318000,650998,1000.00,12,0,1,507.052,-4.810,22.914,515.964,-1.545,0.997
1.319000,650999,1000.00,12,0,1,512.097,3.504,22.720,517.261,0.850,1.004
1.320000,651000,1000.00,12,0,1,506.500,0.431,22.705,518.342,1.196,1.016
1.321000,651001,1000.00,12,0,1,510.752,0.127,22.638,517.117,0.506,1.017
1.322000,651002,1000.00,12,0,1,511.616,1.282,22.548,517.237,-0.265,1.016
1.323000,651003,1000.00,12,0,1,512.145,-4.120,22.476,517.742,0.404,1.016
1.324000,651004,1000.00,12,0,1,543.492,16.597,22.598,518.462,0.605,1.010
1.325000,651005,1000.00,12,0,1,581.613,46.246,23.486,517.333,-0.368,0.994
1.326000,651006,1000.00,12,0,1,583.606,40.216,24.160,519.543,0.688,0.946
1.327000,651007,1000.00,12,0,1,574.526,19.267,24.294,520.312,1.882,0.958
1.328000,651008,1000.00,12,0,1,568.761,8.377,24.305,519.039,0.072,0.958
1.329000,651009,1000.00,12,0,1,562.900,0.292,24.170,518.390,-0.746,0.963
1.330000,651010,1000.00,12,0,1,560.402,-1.734,24.046,519.327,0.055,0.925
1.331000,651011,1000.00,12,0,1,558.745,0.268,24.032,518.847,-0.082,0.925
1.332000,651012,1000.00,12,0,1,548.248,-3.738,23.854,519.111,-0.061,0.923
1.333000,651013,1000.00,12,0,1,538.856,-7.125,23.663,518.558,-0.109,0.917
1.334000,651014,1000.00,12,0,1,530.593,-6.592,23.546,519.015,0.091,0.845
1.335000,651015,1000.00,12,0,1,526.005,-4.248,23.550,518.318,0.043,0.845
1.336000,651016,1000.00,12,0,1,527.998,3.537,23.288,518.919,0.204,0.837
1.337000,651017,1000.00,12,0,1,541.282,18.022,22.906,516.877,-0.758,0.837
1.338000,651018,1000.00,12,0,1,543.252,22.487,23.050,516.541,-1.727,0.860
1.339000,651019,1000.00,12,0,1,537.679,13.002,23.122,517.477,-0.173,0.846
1.340000,651020,1000.00,12,0,1,536.310,7.498,23.146,517.381,-0.237,0.846
1.341000,651021,1000.00,12,0,1,536.910,3.025,23.142,518.270,0.274,0.841
1.342000,651022,1000.00,12,0,1,537.703,-2.269,23.121,517.718,0.121,0.839
1.343000,651023,1000.00,12,0,1,544.861,-2.663,23.096,518.438,-0.107,0.815
1.344000,651024,1000.00,12,0,1,545.966,-6.370,23.081,518.678,0.544,0.759
1.345000,651025,1000.00,12,0,1,544.693,-13.955,23.130,519.207,0.183,0.752
1.346000,651026,1000.00,12,0,1,548.968,-14.083,23.197,517.982,-0.495,0.738
1.347000,651027,1000.00,12,0,1,563.237,-4.441,23.204,519.087,-0.496,0.714
1.348000,651028,1000.00,12,0,1,576.352,6.501,23.222,517.093,-1.150,0.715
1.349000,651029,1000.00,12,0,1,585.456,12.553,23.287,519.591,-0.393,0.688
1.350000,651030,1000.00,12,0,1,594.896,19.398,23.447,517.429,-0.260,0.688
1.351000,651031,1000.00,12,0,1,594.584,19.911,23.609,517.525,-1.862,0.733
1.352000,651032,1000.00,12,0,1,588.242,13.570,23.678,518.198,0.347,0.734
1.353000,651033,1000.00,12,0,1,578.802,7.886,23.571,519.783,1.118,0.745
1.354000,651034,1000.00,12,0,1,543.996,-16.460,23.638,519.183,1.421,0.768
1.355000,651035,1000.00,12,0,1,492.112,-55.730,24.907,516.252,-1.320,0.790
1.356000,651036,1000.00,12,0,1,462.782,-71.768,26.492,515.075,-2.421,0.844
1.357000,651037,1000.00,12,0,1,463.671,-55.561,26.537,516.757,-0.283,0.844
1.358000,651038,1000.00,12,0,1,487.692,-22.154,25.647,517.597,0.787,0.852
1.359000,651039,1000.00,12,0,1,516.444,11.626,25.217,517.838,1.102,0.861
1.360000,651040,1000.00,12,0,1,564.101,49.379,26.164,516.060,-0.472,0.863
1.361000,651041,1000.00,12,0,1,554.589,43.410,26.663,516.781,-0.329,0.864
1.362000,651042,1000.00,12,0,1,526.629,-0.760,25.782,519.039,1.812,0.896
1.363000,651043,1000.00,12,0,1,513.106,-16.774,24.336,519.279,1.907,0.934
1.364000,651044,1000.00,12,0,1,512.745,-23.312,23.439,519.303,1.132,0.935
1.365000,651045,1000.00,12,0,1,528.503,-11.639,22.926,516.805,-0.879,0.933
1.366000,651046,1000.00,12,0,1,556.967,10.846,22.573,515.700,-2.719,0.994
1.367000,651047,1000.00,12,0,1,578.009,26.175,22.692,519.111,0.498,0.996
1.368000,651048,1000.00,12,0,1,594.896,34.821,23.210,517.357,-0.117,0.972
1.369000,651049,1000.00,12,0,1,588.699,26.344,23.502,518.871,-0.235,0.965
1.370000,651050,1000.00,12,0,1,566.696,2.960,23.505,516.781,-0.287,0.951
1.371000,651051,1000.00,12,0,1,553.460,-8.764,23.538,515.556,-2.690,1.022
1.372000,651052,1000.00,12,0,1,550.410,-5.265,23.549,517.261,-0.021,1.021
1.373000,651053,1000.00,12,0,1,549.857,0.550,23.542,518.390,1.136,1.032
1.374000,651054,1000.00,12,0,1,543.083,2.625,23.428,518.582,1.487,1.050
1.375000,651055,1000.00,12,0,1,533.547,-0.888,22.497,517.742,0.873,1.056
1.376000,651056,1000.00,12,0,1,527.542,-0.372,21.766,516.853,-0.114,1.051
1.377000,651057,1000.00,12,0,1,526.437,2.281,21.597,515.868,-0.582,1.021
1.378000,651058,1000.00,12,0,1,528.046,6.210,21.582,517.838,0.672,1.025
1.379000,651059,1000.00,12,0,1,530.569,7.739,21.610,518.630,2.165,1.064
1.380000,651060,1000.00,12,0,1,534.028,7.837,21.637,517.742,0.637,1.068
1.381000,651061,1000.00,12,0,1,538.904,6.923,21.659,517.381,0.221,1.069
1.382000,651062,1000.00,12,0,1,540.201,2.102,21.655,516.925,-0.414,1.070
1.383000,651063,1000.00,12,0,1,543.924,-2.647,21.635,515.940,-1.322,1.086
1.384000,651064,1000.00,12,0,1,550.314,-3.465,21.620,514.787,-2.333,1.135
1.385000,651065,1000.00,12,0,1,555.958,-4.862,21.623,517.285,-0.478,1.137
1.386000,651066,1000.00,12,0,1,562.540,-4.663,21.627,518.871,1.624,1.160
1.387000,651067,1000.00,12,0,1,567.464,-3.813,21.483,519.783,1.648,1.178
1.388000,651068,1000.00,12,0,1,565.951,-7.001,21.269,520.360,2.125,1.191
1.389000,651069,1000.00,12,0,1,565.783,-7.786,21.218,519.591,0.992,1.199
1.390000,651070,1000.00,12,0,1,566.816,-4.001,21.199,517.862,-0.676,1.202
1.391000,651071,1000.00,12,0,1,560.907,-4.470,21.204,517.742,-0.998,1.210
1.392000,651072,1000.00,12,0,1,552.788,-6.657,21.223,519.231,0.571,1.213
1.393000,651073,1000.00,12,0,1,546.831,-4.851,21.231,519.111,0.853,1.218
1.394000,651074,1000.00,12,0,1,539.120,-3.915,21.219,518.943,0.392,1.217
1.395000,651075,1000.00,12,0,1,529.536,-5.194,21.139,518.630,0.437,1.219
1.396000,651076,1000.00,12,0,1,509.382,-14.726,21.148,516.805,-1.104,1.226
1.397000,651077,1000.00,12,0,1,491.919,-25.037,21.433,517.862,-0.440,1.226
1.398000,651078,1000.00,12,0,1,493.096,-18.071,21.566,517.838,0.338,1.216
1.399000,651079,1000.00,12,0,1,515.580,5.079,21.504,515.436,-1.950,1.246
1.400000,651080,1000.00,12,0,1,564.510,45.230,22.267,515.532,-1.994,1.277
1.401000,651081,1000.00,12,0,1,596.649,69.153,24.157,516.853,-0.353,1.250
1.402000,651082,1000.00,12,0,1,595.016,51.957,25.176,516.997,-0.166,1.250
1.403000,651083,1000.00,12,0,1,576.112,19.613,25.304,515.844,-1.163,1.250
1.404000,651084,1000.00,12,0,1,565.591,-4.241,25.204,516.228,-1.175,1.245
1.405000,651085,1000.00,12,0,1,553.556,-20.440,24.114,517.742,0.364,1.232
1.406000,651086,1000.00,12,0,1,537.246,-39.237,22.567,517.621,0.280,1.184
1.407000,651087,1000.00,12,0,1,530.929,-44.597,22.075,517.549,-0.154,1.184
1.408000,651088,1000.00,12,0,1,528.719,-40.634,22.594,517.429,-0.146,1.179
1.409000,651089,1000.00,12,0,1,536.670,-28.539,22.893,518.726,0.661,1.172
1.410000,651090,1000.00,12,0,1,535.829,-18.185,21.953,517.982,0.557,1.173
1.411000,651091,1000.00,12,0,1,520.264,-24.435,21.359,518.967,0.652,1.176
1.412000,651092,1000.00,12,0,1,526.365,-12.240,21.428,518.678,1.214,1.160
1.413000,651093,1000.00,12,0,1,551.539,20.166,21.487,519.615,1.245,1.142
1.414000,651094,1000.00,12,0,1,563.957,38.154,21.907,517.357,0.257,1.131
1.415000,651095,1000.00,12,0,1,548.704,27.500,22.189,516.396,-1.469,1.144
1.416000,651096,1000.00,12,0,1,531.361,10.428,22.185,517.189,0.052,1.077
1.417000,651097,1000.00,12,0,1,522.426,4.436,21.883,519.183,1.673,1.100
1.418000,651098,1000.00,12,0,1,522.546,4.531,21.331,518.006,1.180,1.113
1.419000,651099,1000.00,12,0,1,528.527,9.527,21.046,516.300,-0.921,1.120
1.420000,651100,1000.00,12,0,1,534.412,11.709,21.107,517.645,0.096,1.119
1.421000,651101,1000.00,12,0,1,538.495,10.008,21.118,518.078,0.931,1.061
1.422000,651102,1000.00,12,0,1,540.801,5.645,21.120,516.949,-0.582,1.064
1.423000,651103,1000.00,12,0,1,542.002,-0.301,21.120,517.189,-0.525,1.055
1.424000,651104,1000.00,12,0,1,545.461,-3.703,21.123,517.477,-0.348,1.035
1.425000,651105,1000.00,12,0,1,551.491,-3.799,21.130,517.189,-0.669,1.032
1.426000,651106,1000.00,12,0,1,560.090,-0.630,21.130,517.910,-0.374,1.033
1.427000,651107,1000.00,12,0,1,565.783,1.585,21.129,518.006,-0.065,1.030
1.428000,651108,1000.00,12,0,1,566.864,0.482,21.111,519.399,0.595,1.029
1.429000,651109,1000.00,12,0,1,563.141,-2.735,21.086,519.303,0.945,0.991
1.430000,651110,1000.00,12,0,1,562.324,-2.402,21.059,518.943,0.004,0.987
1.431000,651111,1000.00,12,0,1,559.634,-0.156,21.037,519.351,0.523,0.989
1.432000,651112,1000.00,12,0,1,552.067,-2.275,21.037,518.702,0.052,0.987
1.433000,651113,1000.00,12,0,1,542.339,-5.077,21.046,518.150,-0.506,0.972
1.434000,651114,1000.00,12,0,1,536.886,-4.173,21.048,516.420,-1.465,0.938
1.435000,651115,1000.00,12,0,1,535.060,0.470,21.037,517.669,-0.713,0.941
1.436000,651116,1000.00,12,0,1,529.007,0.560,21.027,517.405,0.291,0.913
1.437000,651117,1000.00,12,0,1,533.211,5.186,21.033,517.357,-0.336,0.884
1.438000,651118,1000.00,12,0,1,528.383,5.280,21.023,517.982,0.801,0.839
1.439000,651119,1000.00,12,0,1,516.180,-8.248,21.026,516.733,-0.278,0.828
1.440000,651120,1000.00,12,0,1,542.243,8.942,21.057,515.075,-1.804,0.862
1.441000,651121,1000.00,12,0,1,572.076,35.051,21.623,515.964,-1.060,0.863
1.442000,651122,1000.00,12,0,1,585.888,35.901,22.191,517.958,0.909,0.869
1.443000,651123,1000.00,12,0,1,588.266,27.073,22.509,515.652,-0.683,0.866
1.444000,651124,1000.00,12,0,1,551.755,-12.704,22.574,517.165,-0.672,0.869
1.445000,651125,1000.00,12,0,1,505.731,-62.147,24.213,517.862,1.079,0.880
1.446000,651126,1000.00,12,0,1,499.029,-67.757,25.957,517.597,-0.189,0.867
1.447000,651127,1000.00,12,0,1,525.356,-36.910,26.239,519.735,1.643,0.895
1.448000,651128,1000.00,12,0,1,560.907,1.125,26.114,520.624,2.344,0.953
1.449000,651129,1000.00,12,0,1,593.335,32.173,26.498,517.597,-0.509,0.916
1.450000,651130,1000.00,12,0,1,574.406,20.530,25.878,518.270,-0.792,0.878
1.451000,651131,1000.00,12,0,1,543.396,-12.302,24.022,518.390,0.274,0.878
1.452000,651132,1000.00,12,0,1,521.032,-24.023,23.121,519.711,0.793,0.884
1.453000,651133,1000.00,12,0,1,513.994,-23.925,23.202,517.718,0.076,0.869
1.454000,651134,1000.00,12,0,1,524.780,-4.140,23.202,517.597,-0.948,0.864
1.455000,651135,1000.00,12,0,1,555.766,28.503,23.371,520.072,1.930,0.904
1.456000,651136,1000.00,12,0,1,579.499,53.385,23.926,520.120,2.191,0.955
1.457000,651137,1000.00,12,0,1,565.302,39.197,23.736,519.327,0.983,0.965
1.458000,651138,1000.00,12,0,1,536.358,5.634,23.043,519.351,1.000,0.975
1.459000,651139,1000.00,12,0,1,521.225,-11.254,22.743,517.814,-0.417,0.972
1.460000,651140,1000.00,12,0,1,512.049,-20.059,22.774,518.462,-0.298,0.970
1.461000,651141,1000.00,12,0,1,512.577,-21.110,22.708,517.117,-0.896,0.974
1.462000,651142,1000.00,12,0,1,530.160,-7.658,22.668,518.342,-0.751,0.964
1.463000,651143,1000.00,12,0,1,547.479,6.213,22.505,518.270,0.009,0.948
1.464000,651144,1000.00,12,0,1,548.224,2.350,21.851,518.943,-0.379,0.949
1.465000,651145,1000.00,12,0,1,550.001,-2.979,21.506,518.150,-0.551,0.929
1.466000,651146,1000.00,12,0,1,559.970,2.081,21.457,517.261,-1.977,0.970
1.467000,651147,1000.00,12,0,1,566.239,5.369,21.462,520.048,0.273,0.942
1.468000,651148,1000.00,12,0,1,567.248,3.855,21.459,519.759,0.766,0.933
1.469000,651149,1000.00,12,0,1,565.759,2.101,21.419,518.150,-1.529,0.949
1.470000,651150,1000.00,12,0,1,563.333,0.967,21.355,520.696,0.698,0.954
1.471000,651151,1000.00,12,0,1,559.057,0.325,21.308,521.345,1.754,0.977
1.472000,651152,1000.00,12,0,1,551.803,-1.909,21.295,520.144,0.300,0.974
1.473000,651153,1000.00,12,0,1,540.825,-6.115,21.312,518.198,-1.247,0.988
1.474000,651154,1000.00,12,0,1,534.676,-6.553,21.326,517.525,-1.846,1.020
1.475000,651155,1000.00,12,0,1,530.256,-3.664,21.326,518.030,-0.840,1.023
1.476000,651156,1000.00,12,0,1,529.127,-0.589,21.326,517.189,-0.994,1.031
1.477000,651157,1000.00,12,0,1,526.917,1.689,21.326,515.388,-2.298,1.081
1.478000,651158,1000.00,12,0,1,526.797,2.081,21.328,515.868,-1.630,1.102
1.479000,651159,1000.00,12,0,1,529.728,4.563,21.334,519.303,1.687,1.120
1.680000,651360,1000.00,12,0,1,537.679,8.495,21.365,517.261,0.833,1.126
1.681000,651361,1000.00,12,0,1,540.465,7.822,21.394,518.102,-0.001,1.123
1.682000,651362,1000.00,12,0,1,540.561,1.444,21.392,518.030,1.108,1.134
1.683000,651363,1000.00,12,0,1,538.039,-5.638,21.395,516.829,-0.978,1.140
1.684000,651364,1000.00,12,0,1,546.110,-5.183,21.399,516.997,-0.658,1.125
1.685000,651365,1000.00,12,0,1,556.607,1.422,21.400,518.630,0.488,1.123
1.686000,651366,1000.00,12,0,1,556.343,-2.249,21.402,518.102,0.274,1.123
1.687000,651367,1000.00,12,0,1,560.715,-2.924,21.394,517.117,-1.063,1.132
1.688000,651368,1000.00,12,0,1,566.191,2.332,21.383,518.534,-0.020,1.126
1.689000,651369,1000.00,12,0,1,567.801,3.047,21.356,517.910,0.071,1.126
1.690000,651370,1000.00,12,0,1,564.029,1.919,21.320,519.015,0.198,1.097
1.691000,651371,1000.00,12,0,1,558.937,-0.663,20.736,520.000,1.864,1.118
1.692000,651372,1000.00,12,0,1,554.733,0.125,20.105,520.600,1.756,1.138
1.693000,651373,1000.00,12,0,1,547.431,-1.155,19.738,518.510,0.503,1.136
1.694000,651374,1000.00,12,0,1,535.733,-5.971,19.674,517.021,-1.429,1.150
1.695000,651375,1000.00,12,0,1,526.797,-8.806,17.646,514.138,-2.873,1.210
1.696000,651376,1000.00,12,0,1,525.308,-5.053,14.834,517.429,-0.698,1.214
1.697000,651377,1000.00,12,0,1,532.658,4.866,13.903,519.663,3.039,1.266
1.698000,651378,1000.00,12,0,1,536.574,10.607,13.982,520.912,3.111,1.299
1.699000,651379,1000.00,12,0,1,533.595,6.260,13.251,518.991,1.878,1.324
1.700000,651380,1000.00,12,0,1,534.004,2.772,12.935,518.702,0.348,1.320
1.701000,651381,1000.00,12,0,1,534.292,-0.027,12.817,518.630,0.648,1.323
1.702000,651382,1000.00,12,0,1,533.691,-5.537,12.384,517.766,-0.535,1.320
1.703000,651383,1000.00,12,0,1,532.130,-10.661,12.008,519.783,0.620,1.323
1.704000,651384,1000.00,12,0,1,538.039,-10.385,12.083,519.183,0.721,1.320
1.705000,651385,1000.00,12,0,1,556.079,2.107,11.395,517.501,-1.858,1.318
1.706000,651386,1000.00,12,0,1,576.088,16.351,8.842,519.423,-0.189,1.281
1.707000,651387,1000.00,12,0,1,571.404,10.269,7.040,518.390,-0.672,1.277
1.708000,651388,1000.00,12,0,1,564.438,-2.329,7.003,518.342,-1.455,1.286
1.709000,651389,1000.00,12,0,1,562.060,-3.112,6.834,519.471,-0.004,1.285
1.710000,651390,1000.00,12,0,1,553.652,-8.158,6.323,518.606,-0.648,1.287
1.711000,651391,1000.00,12,0,1,538.135,-16.947,6.068,518.150,-1.186,1.292
1.712000,651392,1000.00,12,0,1,554.853,-0.456,5.971,519.135,-0.024,1.288
1.713000,651393,1000.00,12,0,1,555.814,13.356,6.200,519.111,0.305,1.288
1.714000,651394,1000.00,12,0,1,531.674,-6.386,6.257,518.390,-0.242,1.288
1.715000,651395,1000.00,12,0,1,519.759,-13.025,6.509,518.054,-0.384,1.286
1.716000,651396,1000.00,12,0,1,514.066,-10.508,6.670,517.742,-0.338,1.257
1.717000,651397,1000.00,12,0,1,517.021,-4.971,6.664,518.702,0.489,1.258
1.718000,651398,1000.00,12,0,1,523.723,5.503,6.687,516.685,-0.529,1.256
1.719000,651399,1000.00,12,0,1,526.197,6.779,6.749,518.438,-0.008,1.237
1.720000,651400,1000.00,12,0,1,528.791,6.839,6.816,519.519,2.069,1.267
1.721000,651401,1000.00,12,0,1,536.021,8.205,6.914,518.630,0.468,1.244
1.722000,651402,1000.00,12,0,1,528.791,-0.645,6.909,519.423,0.892,1.250
1.723000,651403,1000.00,12,0,1,527.998,-9.946,6.998,518.606,0.269,1.238
1.724000,651404,1000.00,12,0,1,540.153,-1.847,6.941,517.117,-1.626,1.232
1.725000,651405,1000.00,12,0,1,546.927,0.919,6.923,518.462,-0.586,1.229
1.726000,651406,1000.00,12,0,1,556.775,4.359,6.950,519.951,0.843,1.227
1.727000,651407,1000.00,12,0,1,557.832,4.701,6.978,520.312,0.957,1.191
1.728000,651408,1000.00,12,0,1,554.974,-1.520,6.975,518.246,-0.908,1.175
1.729000,651409,1000.00,12,0,1,558.288,2.151,6.951,517.910,-1.702,1.175
1.730000,651410,1000.00,12,0,1,564.077,8.711,6.957,519.951,0.409,1.171
1.731000,651411,1000.00,12,0,1,567.921,14.620,7.173,519.879,0.762,1.176
1.732000,651412,1000.00,12,0,1,559.922,10.908,7.334,517.429,-1.451,1.183
1.733000,651413,1000.00,12,0,1,549.929,3.710,7.309,518.798,-0.539,1.178
1.734000,651414,1000.00,12,0,1,541.282,0.811,7.273,519.951,1.383,1.190
1.735000,651415,1000.00,12,0,1,537.246,0.495,7.271,519.183,0.555,1.191
1.736000,651416,1000.00,12,0,1,535.157,3.005,7.276,519.663,0.847,1.196
1.737000,651417,1000.00,12,0,1,534.796,4.212,7.289,518.582,0.335,1.188
1.738000,651418,1000.00,12,0,1,535.757,5.676,7.326,518.486,-0.290,1.188
1.739000,651419,1000.00,12,0,1,533.307,2.429,7.321,516.901,-0.926,1.195
1.740000,651420,1000.00,12,0,1,530.232,-3.477,7.332,516.997,-1.499,1.214
1.741000,651421,1000.00,12,0,1,531.073,-6.206,7.384,517.165,-0.531,1.187
1.742000,651422,1000.00,12,0,1,534.460,-7.050,7.451,518.582,0.166,1.161
1.743000,651423,1000.00,12,0,1,543.011,-4.243,7.474,518.054,0.297,1.160
1.744000,651424,1000.00,12,0,1,551.707,-0.683,7.426,517.958,-0.582,1.145
1.745000,651425,1000.00,12,0,1,557.304,-0.624,7.322,517.525,-0.610,1.074
1.746000,651426,1000.00,12,0,1,566.528,2.453,7.295,518.030,-0.608,1.073
1.747000,651427,1000.00,12,0,1,572.244,5.120,7.298,520.264,1.328,1.001
1.748000,651428,1000.00,12,0,1,567.296,-1.352,7.145,519.159,0.733,0.905
1.749000,651429,1000.00,12,0,1,563.837,-5.645,7.135,520.528,0.705,0.871
1.750000,651430,1000.00,12,0,1,559.033,-6.625,7.185,521.345,2.247,0.926
1.751000,651431,1000.00,12,0,1,555.838,-6.467,7.243,518.078,-1.076,0.934
1.752000,651432,1000.00,12,0,1,547.527,-6.997,7.269,518.871,-0.905,0.939
1.753000,651433,1000.00,12,0,1,534.652,-12.780,7.337,519.975,0.986,0.945
1.754000,651434,1000.00,12,0,1,520.312,-17.672,7.610,518.246,-0.542,0.943
1.755000,651435,1000.00,12,0,1,534.412,-1.667,7.608,520.240,0.806,0.913
1.756000,651436,1000.00,12,0,1,545.317,17.877,7.676,519.159,0.987,0.923
1.757000,651437,1000.00,12,0,1,536.165,10.122,7.673,517.982,-0.956,0.928
1.758000,651438,1000.00,12,0,1,532.250,4.795,7.695,517.669,-0.532,0.908
1.759000,651439,1000.00,12,0,1,535.613,7.063,7.747,519.399,0.571,0.912
2.200000,651880,1000.00,12,0,1,547.984,13.307,7.889,517.381,-0.261,0.908
2.201000,651881,1000.00,12,0,1,541.762,6.797,7.577,516.781,-1.835,0.929
2.202000,651882,1000.00,12,0,1,540.681,-4.867,7.608,517.597,-0.430,0.931
2.203000,651883,1000.00,12,0,1,531.385,-12.877,7.592,517.309,-0.758,0.936
2.204000,651884,1000.00,12,0,1,528.887,-23.078,8.214,517.213,-0.987,0.946
2.205000,651885,1000.00,12,0,1,542.123,-11.351,8.164,517.597,-0.534,0.947
2.206000,651886,1000.00,12,0,1,561.868,3.776,8.045,517.814,-0.491,0.949
2.207000,651887,1000.00,12,0,1,563.789,5.898,8.058,519.879,1.133,0.960
2.208000,651888,1000.00,12,0,1,557.592,-3.017,8.032,518.270,0.163,0.957
2.209000,651889,1000.00,12,0,1,550.866,-7.784,8.050,517.549,-1.322,0.975
2.210000,651890,1000.00,12,0,1,530.761,-20.245,8.489,519.063,0.400,0.932
2.211000,651891,1000.00,12,0,1,510.607,-33.407,9.646,520.024,1.363,0.949
2.212000,651892,1000.00,12,0,1,503.401,-29.378,10.502,519.831,1.147,0.955
2.213000,651893,1000.00,12,0,1,507.221,-15.911,10.648,519.111,0.507,0.957
2.214000,651894,1000.00,12,0,1,519.183,4.458,10.663,516.757,-1.344,0.948
2.215000,651895,1000.00,12,0,1,539.817,27.559,11.352,516.156,-1.889,0.981
2.216000,651896,1000.00,12,0,1,545.365,36.945,12.482,515.988,-1.231,0.990
2.217000,651897,1000.00,12,0,1,525.548,17.766,12.715,515.580,-1.235,0.996
2.218000,651898,1000.00,12,0,1,509.743,-0.121,12.713,515.339,-0.996,0.997
2.219000,651899,1000.00,12,0,1,504.602,-4.734,12.727,516.541,0.235,0.968
2.220000,651900,1000.00,12,0,1,508.782,-2.854,12.674,518.222,1.926,1.004
2.221000,651901,1000.00,12,0,1,525.716,9.427,12.575,517.189,1.167,1.012
2.222000,651902,1000.00,12,0,1,544.380,21.778,12.854,517.429,0.529,0.994
2.223000,651903,1000.00,12,0,1,542.459,14.975,13.017,515.027,-0.895,0.999
2.224000,651904,1000.00,12,0,1,545.557,6.887,13.053,515.940,-1.347,0.998
2.225000,651905,1000.00,12,0,1,550.626,7.812,13.099,518.222,1.547,1.019
2.226000,651906,1000.00,12,0,1,554.950,5.144,13.112,518.270,1.121,1.024
2.227000,651907,1000.00,12,0,1,555.142,3.151,13.107,518.390,0.838,1.030
2.228000,651908,1000.00,12,0,1,569.650,10.849,13.172,519.879,1.793,1.060
2.229000,651909,1000.00,12,0,1,585.336,25.521,13.653,518.798,0.924,1.060
2.230000,651910,1000.00,12,0,1,588.482,25.959,14.129,518.270,-0.206,1.039
2.231000,651911,1000.00,12,0,1,587.281,22.320,14.451,517.429,-0.566,1.039
2.232000,651912,1000.00,12,0,1,566.648,6.346,14.444,515.988,-1.774,1.069
2.233000,651913,1000.00,12,0,1,536.189,-20.483,14.720,515.676,-1.763,1.097
2.234000,651914,1000.00,12,0,1,517.237,-31.476,15.378,519.303,1.568,1.116
2.235000,651915,1000.00,12,0,1,510.295,-29.784,15.944,519.111,2.422,1.164
2.236000,651916,1000.00,12,0,1,506.428,-24.163,16.302,517.838,0.480,1.163
2.237000,651917,1000.00,12,0,1,514.571,-12.425,16.381,516.228,-0.473,1.149
2.238000,651918,1000.00,12,0,1,530.929,6.280,16.404,516.156,-0.848,1.151
2.239000,651919,1000.00,12,0,1,536.045,11.270,16.462,517.069,0.379,1.148
2.280000,651960,1000.00,12,0,1,525.428,-1.296,16.436,517.910,1.080,1.114
2.281000,651961,1000.00,12,0,1,527.518,-6.154,16.434,518.246,1.195,1.116
2.282000,651962,1000.00,12,0,1,538.760,1.237,16.405,517.525,0.408,1.110
2.283000,651963,1000.00,12,0,1,558.529,11.694,16.388,516.661,-0.817,1.107
2.284000,651964,1000.00,12,0,1,561.027,10.822,16.269,518.030,0.112,1.105
2.285000,651965,1000.00,12,0,1,546.927,-9.502,16.323,517.021,-0.459,1.101
2.286000,651966,1000.00,12,0,1,546.783,-14.995,16.265,516.348,-1.715,1.119
2.287000,651967,1000.00,12,0,1,550.314,-10.426,16.268,517.093,-0.834,1.117
2.288000,651968,1000.00,12,0,1,554.253,-7.540,16.289,517.742,-0.228,1.115
2.289000,651969,1000.00,12,0,1,553.220,-4.498,16.271,516.877,-0.810,1.118
2.290000,651970,1000.00,12,0,1,556.871,-0.394,16.162,518.774,0.405,1.118
2.291000,651971,1000.00,12,0,1,547.095,-1.300,16.134,520.792,2.671,1.152
2.292000,651972,1000.00,12,0,1,529.416,-13.919,16.239,518.943,1.014,1.159
2.293000,651973,1000.00,12,0,1,515.051,-18.574,16.349,517.910,-0.506,1.156
2.294000,651974,1000.00,12,0,1,513.586,-13.050,16.126,518.654,0.512,1.150
2.295000,651975,1000.00,12,0,1,514.835,-2.766,16.051,518.606,0.613,1.151
2.296000,651976,1000.00,12,0,1,525.068,9.711,16.101,519.543,1.296,1.163
2.297000,651977,1000.00,12,0,1,537.126,23.603,16.422,517.621,0.137,1.152
2.298000,651978,1000.00,12,0,1,542.171,26.321,16.833,516.925,-1.169,1.164
2.299000,651979,1000.00,12,0,1,543.348,22.280,17.090,516.901,-0.522,1.151
2.300000,651980,1000.00,12,0,1,538.736,13.058,16.949,516.877,-0.711,1.154
2.301000,651981,1000.00,12,0,1,535.757,2.724,16.282,516.661,-0.646,1.142
2.302000,651982,1000.00,12,0,1,540.633,1.403,15.744,517.838,0.096,1.130
2.303000,651983,1000.00,12,0,1,536.910,-5.979,15.606,516.805,-0.396,1.129
2.304000,651984,1000.00,12,0,1,522.642,-22.818,15.923,516.180,-1.581,1.135
2.305000,651985,1000.00,12,0,1,521.825,-27.216,15.911,516.733,-0.888,1.111
2.306000,651986,1000.00,12,0,1,527.374,-19.646,15.284,517.477,-0.292,1.098
2.307000,651987,1000.00,12,0,1,544.597,-5.245,15.094,518.943,0.787,1.089
2.308000,651988,1000.00,12,0,1,570.995,19.969,15.356,517.309,-0.262,1.081
2.309000,651989,1000.00,12,0,1,561.003,14.913,15.486,518.558,-0.271,1.081
2.310000,651990,1000.00,12,0,1,547.047,-2.352,15.484,517.838,0.289,1.047
2.311000,651991,1000.00,12,0,1,555.454,8.502,15.473,518.366,-0.354,1.035
2.312000,651992,1000.00,12,0,1,562.300,18.919,15.398,518.030,0.433,1.034
2.313000,651993,1000.00,12,0,1,564.149,21.992,15.566,516.565,-1.244,1.041
2.314000,651994,1000.00,12,0,1,558.120,18.810,15.761,515.147,-1.903,1.058
2.315000,651995,1000.00,12,0,1,536.598,1.343,15.724,516.228,-0.845,1.042
2.316000,651996,1000.00,12,0,1,526.629,-8.270,15.750,516.781,0.494,1.033
2.317000,651997,1000.00,12,0,1,525.788,-4.896,15.759,518.078,1.484,1.047
2.318000,651998,1000.00,12,0,1,523.194,-6.001,15.707,516.973,1.059,1.027
2.319000,651999,1000.00,12,0,1,521.681,-7.464,15.323,517.021,0.438,1.021
2.320000,652000,1000.00,12,0,1,523.002,-7.497,14.915,517.958,1.516,1.042
2.321000,652001,1000.00,12,0,1,528.551,-5.343,14.596,517.165,0.744,1.045
2.322000,652002,1000.00,12,0,1,536.430,-1.524,14.570,515.916,-0.768,1.020
2.323000,652003,1000.00,12,0,1,542.843,-0.353,14.280,517.886,0.626,0.993
2.324000,652004,1000.00,12,0,1,547.839,-0.690,13.568,518.895,1.715,0.998
2.325000,652005,1000.00,12,0,1,556.103,1.385,12.900,519.591,1.593,0.964
2.326000,652006,1000.00,12,0,1,564.390,5.286,12.461,520.504,2.003,1.002
2.327000,652007,1000.00,12,0,1,567.344,4.694,12.355,520.600,1.610,1.026
2.328000,652008,1000.00,12,0,1,559.249,-3.436,12.332,520.840,1.149,1.031
2.329000,652009,1000.00,12,0,1,546.590,-14.636,12.403,519.663,0.077,1.030
2.330000,652010,1000.00,12,0,1,537.559,-18.932,12.687,518.726,-1.309,1.035
2.331000,652011,1000.00,12,0,1,532.154,-17.384,12.894,518.702,-1.051,1.032
2.332000,652012,1000.00,12,0,1,535.613,-7.936,12.941,517.357,-1.920,1.066
2.333000,652013,1000.00,12,0,1,548.680,10.155,12.915,517.285,-1.929,1.094
2.334000,652014,1000.00,12,0,1,543.083,12.568,12.947,517.117,-1.292,1.109
2.335000,652015,1000.00,12,0,1,544.981,12.615,13.000,518.054,-0.449,1.109
2.336000,652016,1000.00,12,0,1,543.780,16.841,13.045,516.757,-0.650,1.086
2.337000,652017,1000.00,12,0,1,543.348,13.150,13.094,516.709,-1.152,1.092
2.338000,652018,1000.00,12,0,1,554.661,21.538,13.401,517.141,0.021,1.091
2.339000,652019,1000.00,12,0,1,556.006,20.369,13.693,517.309,0.036,1.085
2.340000,652020,1000.00,12,0,1,533.235,-4.473,13.707,518.462,1.033,1.094
2.341000,652021,1000.00,12,0,1,498.093,-39.103,14.780,519.471,1.853,1.059
2.342000,652022,1000.00,12,0,1,459.347,-72.055,17.844,518.078,0.412,1.051
2.343000,652023,1000.00,12,0,1,447.385,-79.132,20.898,516.565,-1.402,1.067
2.344000,652024,1000.00,12,0,1,480.750,-42.662,21.673,520.192,1.100,1.076
2.345000,652025,1000.00,12,0,1,534.124,11.558,21.731,519.351,1.398,1.091
2.346000,652026,1000.00,12,0,1,578.466,49.951,22.809,519.951,0.074,1.075
2.347000,652027,1000.00,12,0,1,613.944,72.939,24.810,519.759,0.829,1.082
2.348000,652028,1000.00,12,0,1,612.791,64.476,26.169,519.279,-0.671,1.073
2.349000,652029,1000.00,12,0,1,587.017,29.131,26.303,519.351,-0.236,1.071
2.350000,652030,1000.00,12,0,1,563.645,2.882,26.241,519.927,0.032,1.066
2.351000,652031,1000.00,12,0,1,551.371,-8.298,26.265,517.982,-1.162,1.075
2.352000,652032,1000.00,12,0,1,538.880,-13.974,26.338,519.111,-0.731,1.080
2.353000,652033,1000.00,12,0,1,522.017,-22.471,26.516,518.294,-0.244,1.079
2.354000,652034,1000.00,12,0,1,507.581,-27.548,26.606,517.477,-1.385,1.074
2.355000,652035,1000.00,12,0,1,497.084,-27.252,26.606,517.645,-0.592,1.069
2.356000,652036,1000.00,12,0,1,491.415,-23.786,26.674,519.423,1.008,1.078
2.357000,652037,1000.00,12,0,1,490.766,-16.368,26.764,519.519,1.543,1.094
2.358000,652038,1000.00,12,0,1,512.265,4.936,26.624,517.958,-0.025,1.094
2.359000,652039,1000.00,12,0,1,540.417,32.617,26.938,518.582,0.070,1.093
2.520000,652200,1000.00,12,0,1,477.459,-16.082,27.032,519.135,0.986,1.101
2.521000,652201,1000.00,12,0,1,472.775,-42.272,27.659,520.360,1.307,1.116
2.522000,652202,1000.00,12,0,1,499.534,-2.523,27.531,517.333,-0.687,1.118
2.523000,652203,1000.00,12,0,1,526.653,11.603,27.404,518.078,-1.682,1.129
2.524000,652204,1000.00,12,0,1,540.777,25.222,27.507,520.096,1.154,1.109
2.525000,652205,1000.00,12,0,1,540.970,15.342,27.592,517.309,-1.566,1.125
2.526000,652206,1000.00,12,0,1,551.587,16.740,27.668,518.774,-1.225,1.136
2.527000,652207,1000.00,12,0,1,558.096,20.208,27.807,516.276,-1.838,1.146
2.528000,652208,1000.00,12,0,1,542.099,1.568,27.795,517.862,-2.136,1.176
2.529000,652209,1000.00,12,0,1,539.648,-3.485,27.779,518.702,0.620,1.177
2.530000,652210,1000.00,12,0,1,541.162,1.358,27.760,518.150,-0.813,1.163
2.531000,652211,1000.00,12,0,1,539.096,3.065,27.753,518.871,0.428,1.160
2.532000,652212,1000.00,12,0,1,531.121,0.391,27.752,519.183,0.771,1.160
2.533000,652213,1000.00,12,0,1,524.227,-0.753,27.752,520.720,1.928,1.188
2.534000,652214,1000.00,12,0,1,523.795,3.528,27.756,517.621,0.135,1.164
2.535000,652215,1000.00,12,0,1,528.239,12.636,27.813,517.357,-1.401,1.159
2.536000,652216,1000.00,12,0,1,538.856,23.173,27.996,517.549,0.272,1.124
2.537000,652217,1000.00,12,0,1,550.722,33.817,28.393,514.955,-2.216,1.145
2.538000,652218,1000.00,12,0,1,547.287,27.762,28.659,516.637,-0.780,1.138
2.539000,652219,1000.00,12,0,1,538.904,13.437,28.648,517.477,0.950,1.146
2.540000,652220,1000.00,12,0,1,535.901,4.760,28.530,517.141,0.186,1.131
2.541000,652221,1000.00,12,0,1,533.115,-2.829,28.427,519.399,1.995,1.157
2.542000,652222,1000.00,12,0,1,539.480,-4.353,28.411,519.975,2.562,1.181
2.543000,652223,1000.00,12,0,1,538.375,-8.158,28.399,518.991,0.975,1.158
2.544000,652224,1000.00,12,0,1,535.973,-17.468,28.450,520.576,1.629,1.166
2.545000,652225,1000.00,12,0,1,547.503,-11.239,28.439,519.327,0.825,1.170
2.546000,652226,1000.00,12,0,1,556.583,-4.688,28.347,519.135,-0.552,1.169
2.547000,652227,1000.00,12,0,1,562.708,-2.998,28.289,519.903,0.488,1.160
2.548000,652228,1000.00,12,0,1,569.770,1.876,28.126,519.879,0.105,1.160
2.549000,652229,1000.00,12,0,1,574.767,5.245,27.988,518.822,-0.731,1.164
2.550000,652230,1000.00,12,0,1,567.008,0.145,27.980,519.207,-0.666,1.159
2.551000,652231,1000.00,12,0,1,563.309,-3.632,27.433,517.669,-1.300,1.144
2.552000,652232,1000.00,12,0,1,555.550,-4.259,25.478,516.685,-2.367,1.190
2.553000,652233,1000.00,12,0,1,539.120,-14.573,22.981,517.766,-0.836,1.180
2.554000,652234,1000.00,12,0,1,528.839,-17.968,22.320,517.669,-0.253,1.170
2.555000,652235,1000.00,12,0,1,521.441,-16.443,22.381,518.534,0.329,1.154
2.556000,652236,1000.00,12,0,1,505.779,-22.702,21.478,517.237,0.052,1.154
2.557000,652237,1000.00,12,0,1,501.936,-21.818,19.090,518.438,0.232,1.149
2.558000,652238,1000.00,12,0,1,502.416,-14.134,16.890,518.991,1.690,1.169
2.559000,652239,1000.00,12,0,1,494.321,-17.633,16.569,518.030,0.173,1.169
2.560000,652240,1000.00,12,0,1,500.831,-12.716,16.661,516.877,-0.711,1.173
2.561000,652241,1000.00,12,0,1,517.357,3.353,16.627,518.198,-0.046,1.162
2.562000,652242,1000.00,12,0,1,531.265,11.994,16.596,518.678,0.792,1.163
2.563000,652243,1000.00,12,0,1,567.873,34.942,17.022,518.726,0.270,1.163
2.564000,652244,1000.00,12,0,1,590.452,50.088,18.021,518.630,0.093,1.146
2.565000,652245,1000.00,12,0,1,573.854,23.705,17.920,519.399,0.382,1.145
2.566000,652246,1000.00,12,0,1,566.984,4.071,17.611,517.525,-0.980,1.144
2.567000,652247,1000.00,12,0,1,562.372,-1.727,17.460,517.934,-1.363,1.139
2.568000,652248,1000.00,12,0,1,557.496,-10.187,17.505,519.543,0.623,1.143
2.569000,652249,1000.00,12,0,1,553.100,-11.261,16.961,518.222,-0.339,1.144
2.570000,652250,1000.00,12,0,1,544.693,-15.470,16.950,519.639,0.233,1.136
2.571000,652251,1000.00,12,0,1,538.880,-15.154,16.005,518.967,0.747,1.126
2.572000,652252,1000.00,12,0,1,538.519,-8.428,16.045,518.078,-0.832,1.128
2.573000,652253,1000.00,12,0,1,528.911,-8.091,16.002,516.348,-1.367,1.119
2.574000,652254,1000.00,12,0,1,518.270,-11.544,15.685,518.871,0.103,1.107
2.575000,652255,1000.00,12,0,1,511.256,-10.063,15.599,519.423,2.058,1.123
2.576000,652256,1000.00,12,0,1,506.500,-7.970,15.459,519.519,1.149,1.121
2.577000,652257,1000.00,12,0,1,502.657,-6.348,15.219,518.342,0.696,1.095
2.578000,652258,1000.00,12,0,1,510.992,2.484,15.222,516.637,-1.277,1.068
2.579000,652259,1000.00,12,0,1,511.784,6.037,15.238,515.796,-1.834,1.096
2.580000,652260,1000.00,12,0,1,506.668,-2.083,15.240,517.117,-0.615,1.093
2.581000,652261,1000.00,12,0,1,513.898,0.204,15.233,517.718,0.234,1.092
2.582000,652262,1000.00,12,0,1,533.931,13.446,15.352,517.597,-0.019,1.087
2.583000,652263,1000.00,12,0,1,555.358,25.911,15.782,519.375,1.044,1.062
2.584000,652264,1000.00,12,0,1,567.200,28.323,16.275,517.477,0.007,1.062
2.585000,652265,1000.00,12,0,1,553.004,8.397,16.220,518.822,-0.347,1.045
2.586000,652266,1000.00,12,0,1,547.287,-7.020,15.917,521.657,2.948,1.124
2.587000,652267,1000.00,12,0,1,576.208,14.096,15.312,520.240,1.222,1.093
2.588000,652268,1000.00,12,0,1,591.893,29.470,15.375,520.048,0.261,1.088
2.589000,652269,1000.00,12,0,1,574.046,10.007,15.323,520.480,0.829,1.086
2.590000,652270,1000.00,12,0,1,564.198,-2.414,15.312,519.063,-0.524,1.088
2.591000,652271,1000.00,12,0,1,551.635,-7.510,15.343,518.654,-1.006,1.061
2.592000,652272,1000.00,12,0,1,534.172,-19.019,15.565,516.589,-2.127,1.041
2.593000,652273,1000.00,12,0,1,516.805,-25.503,15.936,517.597,-1.578,1.056
2.594000,652274,1000.00,12,0,1,506.788,-26.188,16.173,518.342,0.288,1.031
2.595000,652275,1000.00,12,0,1,508.566,-15.371,16.241,516.252,-1.443,1.045
2.596000,652276,1000.00,12,0,1,510.439,-5.262,16.244,515.291,-2.170,1.086
2.597000,652277,1000.00,12,0,1,513.418,0.744,16.239,516.060,-0.961,1.093
2.598000,652278,1000.00,12,0,1,523.507,10.928,16.310,518.702,1.408,1.110
2.599000,652279,1000.00,12,0,1,527.806,13.829,16.411,519.063,2.246,1.150
2.600000,652280,1000.00,12,0,1,533.259,12.620,16.507,517.237,0.007,1.147
2.601000,652281,1000.00,12,0,1,535.133,9.350,16.552,515.964,-1.257,1.146
2.602000,652282,1000.00,12,0,1,541.138,5.781,16.561,515.700,-1.569,1.118
2.603000,652283,1000.00,12,0,1,557.616,12.838,16.533,519.879,1.685,1.137
2.604000,652284,1000.00,12,0,1,559.177,8.896,16.385,520.720,3.151,1.220
2.605000,652285,1000.00,12,0,1,555.430,-3.806,16.228,519.015,0.453,1.221
2.606000,652286,1000.00,12,0,1,559.826,-4.231,15.918,518.390,-0.301,1.222
2.607000,652287,1000.00,12,0,1,567.248,-0.319,15.616,518.198,-0.626,1.225
2.608000,652288,1000.00,12,0,1,563.429,-2.938,15.493,518.774,-0.166,1.201
2.609000,652289,1000.00,12,0,1,553.100,-11.770,15.382,518.991,0.266,1.202
2.610000,652290,1000.00,12,0,1,527.830,-27.272,15.756,519.327,0.406,1.199
2.611000,652291,1000.00,12,0,1,505.611,-41.032,16.784,519.231,0.611,1.202
2.612000,652292,1000.00,12,0,1,502.344,-32.325,17.312,519.903,0.948,1.204
2.613000,652293,1000.00,12,0,1,519.255,-6.399,16.617,517.477,-0.448,1.205
2.614000,652294,1000.00,12,0,1,559.009,35.533,15.849,518.390,-0.564,1.208
2.615000,652295,1000.00,12,0,1,588.170,66.026,18.087,517.838,0.360,1.208
2.616000,652296,1000.00,12,0,1,563.165,42.381,19.045,518.871,0.286,1.200
2.617000,652297,1000.00,12,0,1,533.499,5.372,19.059,517.838,0.505,1.187
2.618000,652298,1000.00,12,0,1,512.385,-13.388,19.099,518.294,-0.154,1.184
2.619000,652299,1000.00,12,0,1,500.303,-26.469,19.397,516.300,-0.886,1.190
2.620000,652300,1000.00,12,0,1,500.279,-25.471,19.607,517.501,-1.008,1.198
2.621000,652301,1000.00,12,0,1,512.913,-15.334,19.609,518.078,0.513,1.195
2.622000,652302,1000.00,12,0,1,529.296,-2.324,19.576,518.582,0.147,1.190
2.623000,652303,1000.00,12,0,1,537.318,1.442,19.543,518.967,0.553,1.176
2.624000,652304,1000.00,12,0,1,546.350,2.494,19.478,519.471,0.585,1.179
2.625000,652305,1000.00,12,0,1,551.106,3.521,19.433,518.967,-0.059,1.143
2.626000,652306,1000.00,12,0,1,548.848,-3.327,19.406,519.711,0.203,1.131
2.627000,652307,1000.00,12,0,1,538.207,-13.080,19.473,520.984,1.177,1.139
2.628000,652308,1000.00,12,0,1,533.931,-17.581,19.628,520.552,0.863,1.132
2.629000,652309,1000.00,12,0,1,532.130,-13.242,19.699,519.855,-0.280,1.102
2.630000,652310,1000.00,12,0,1,530.040,-10.122,19.748,520.360,0.297,1.099
2.631000,652311,1000.00,12,0,1,541.018,4.817,19.760,521.273,1.017,1.108
2.632000,652312,1000.00,12,0,1,564.654,30.901,20.148,520.504,0.664,1.112
2.633000,652313,1000.00,12,0,1,568.281,39.098,20.569,519.063,-0.843,1.109
2.634000,652314,1000.00,12,0,1,567.032,34.584,20.760,518.630,-0.983,1.118
2.635000,652315,1000.00,12,0,1,556.199,26.418,21.060,520.120,0.384,1.118
2.636000,652316,1000.00,12,0,1,532.562,3.516,21.042,520.288,1.046,1.048
2.637000,652317,1000.00,12,0,1,508.253,-17.821,21.099,518.798,-0.479,1.036
2.638000,652318,1000.00,12,0,1,503.233,-22.119,20.918,517.141,-1.885,1.069
2.639000,652319,1000.00,12,0,1,507.052,-15.315,20.982,518.726,-0.751,1.067
2.640000,652320,1000.00,12,0,1,512.841,-10.472,21.032,519.447,0.515,1.067
2.641000,652321,1000.00,12,0,1,519.303,-6.458,21.025,518.702,-0.567,1.061
2.642000,652322,1000.00,12,0,1,527.518,-2.854,20.856,518.967,-0.564,1.020
2.643000,652323,1000.00,12,0,1,541.594,4.050,20.550,517.141,-1.850,1.030
2.644000,652324,1000.00,12,0,1,547.815,5.864,20.230,518.678,-1.384,1.047
2.645000,652325,1000.00,12,0,1,554.733,4.018,20.121,519.735,0.508,1.030
2.646000,652326,1000.00,12,0,1,572.485,14.755,20.215,518.798,-0.881,0.991
2.647000,652327,1000.00,12,0,1,574.839,14.484,20.318,519.639,-0.231,0.982
2.648000,652328,1000.00,12,0,1,569.602,4.394,20.269,519.759,0.175,0.962
2.649000,652329,1000.00,12,0,1,571.428,4.838,20.186,519.711,-0.114,0.908
2.650000,652330,1000.00,12,0,1,564.270,1.235,20.108,520.840,1.003,0.919
2.651000,652331,1000.00,12,0,1,551.947,-7.757,20.094,520.672,1.054,0.914
2.652000,652332,1000.00,12,0,1,544.140,-9.445,20.122,518.582,-0.691,0.892
2.653000,652333,1000.00,12,0,1,539.841,-6.922,20.064,519.351,-0.320,0.861
2.654000,652334,1000.00,12,0,1,538.063,-2.186,20.027,518.462,-0.031,0.736
2.655000,652335,1000.00,12,0,1,522.786,-8.154,20.053,518.847,-0.278,0.735
2.656000,652336,1000.00,12,0,1,510.223,-16.650,20.182,519.087,0.811,0.742
2.657000,652337,1000.00,12,0,1,508.253,-12.751,20.262,518.438,-0.024,0.737
2.658000,652338,1000.00,12,0,1,510.487,-7.694,20.287,519.519,0.861,0.747
2.659000,652339,1000.00,12,0,1,514.547,-2.986,20.223,517.357,-0.452,0.749
2.660000,652340,1000.00,12,0,1,504.458,-11.000,19.913,518.871,-0.367,0.748
2.661000,652341,1000.00,12,0,1,489.061,-27.674,19.446,518.630,0.699,0.750
2.662000,652342,1000.00,12,0,1,491.847,-26.932,19.281,519.327,-0.107,0.738
2.663000,652343,1000.00,12,0,1,526.797,1.208,19.261,520.000,1.130,0.752
2.664000,652344,1000.00,12,0,1,579.547,44.294,19.620,520.288,0.511,0.751
2.665000,652345,1000.00,12,0,1,602.871,58.740,19.152,519.039,-0.426,0.752
2.666000,652346,1000.00,12,0,1,590.092,34.555,18.834,518.558,-1.431,0.778
2.667000,652347,1000.00,12,0,1,559.658,-1.430,18.820,519.831,-0.232,0.775
2.668000,652348,1000.00,12,0,1,548.368,-17.873,18.895,518.270,-1.021,0.788
2.669000,652349,1000.00,12,0,1,547.143,-14.057,18.626,519.159,-1.042,0.792
2.670000,652350,1000.00,12,0,1,548.368,-9.545,18.325,517.501,-1.006,0.792
2.671000,652351,1000.00,12,0,1,561.868,7.186,18.224,518.991,-0.843,0.798
2.672000,652352,1000.00,12,0,1,557.352,11.592,18.295,517.886,0.118,0.798
2.673000,652353,1000.00,12,0,1,539.480,-2.093,18.296,519.735,0.372,0.795
2.674000,652354,1000.00,12,0,1,536.598,-0.419,18.293,518.871,1.422,0.816
2.675000,652355,1000.00,12,0,1,533.163,3.468,18.293,516.589,-1.514,0.844
2.676000,652356,1000.00,12,0,1,526.269,0.203,18.287,517.429,-0.363,0.845
2.677000,652357,1000.00,12,0,1,521.657,-1.337,18.194,518.246,0.873,0.838
2.678000,652358,1000.00,12,0,1,521.225,-1.264,18.024,517.069,-0.189,0.829
2.679000,652359,1000.00,12,0,1,520.384,-2.238,17.929,518.078,0.479,0.831
2.680000,652360,1000.00,12,0,1,524.708,-2.003,17.874,517.718,0.479,0.833
2.681000,652361,1000.00,12,0,1,525.716,-3.586,17.868,516.973,-0.546,0.824
2.682000,652362,1000.00,12,0,1,523.314,-11.110,17.397,517.549,-0.218,0.819
2.683000,652363,1000.00,12,0,1,522.522,-16.023,16.650,518.582,0.727,0.817
2.684000,652364,1000.00,12,0,1,534.244,-10.569,15.985,518.342,0.318,0.806
2.685000,652365,1000.00,12,0,1,544.981,-2.515,15.547,519.591,0.925,0.815
2.686000,652366,1000.00,12,0,1,544.044,-6.122,15.563,520.312,1.582,0.832
2.687000,652367,1000.00,12,0,1,546.903,-6.661,15.386,521.104,1.694,0.863
2.688000,652368,1000.00,12,0,1,553.316,0.266,15.065,520.960,1.477,0.847
2.689000,652369,1000.00,12,0,1,556.895,4.611,14.923,520.288,0.470,0.843
2.690000,652370,1000.00,12,0,1,559.682,9.444,14.909,519.663,-0.142,0.840
2.691000,652371,1000.00,12,0,1,555.982,9.885,14.946,517.838,-1.469,0.862
2.692000,652372,1000.00,12,0,1,545.774,4.715,14.956,520.528,0.356,0.859
2.693000,652373,1000.00,12,0,1,532.971,-1.506,14.946,521.633,2.559,0.895
2.694000,652374,1000.00,12,0,1,517.117,-8.977,14.977,518.822,-0.388,0.875
2.695000,652375,1000.00,12,0,1,505.395,-13.268,15.084,517.021,-1.984,0.916
2.696000,652376,1000.00,12,0,1,510.343,-3.529,14.947,518.678,-0.452,0.910
2.697000,652377,1000.00,12,0,1,517.117,8.349,14.853,517.814,-0.286,0.910
2.698000,652378,1000.00,12,0,1,529.247,17.801,15.052,519.039,-0.013,0.910
2.699000,652379,1000.00,12,0,1,550.338,33.386,15.760,517.790,-0.073,0.910
2.700000,652380,1000.00,12,0,1,546.927,26.550,16.200,518.462,-0.660,0.903
2.701000,652381,1000.00,12,0,1,539.696,7.696,16.200,519.735,1.106,0.905
2.702000,652382,1000.00,12,0,1,549.233,8.224,16.187,517.573,-1.024,0.911
2.703000,652383,1000.00,12,0,1,552.307,4.812,16.171,516.589,-2.491,0.976
2.704000,652384,1000.00,12,0,1,552.067,-4.136,16.179,518.774,-0.385,0.977
2.705000,652385,1000.00,12,0,1,550.722,-9.988,16.199,520.672,1.300,0.994
2.706000,652386,1000.00,12,0,1,543.852,-19.362,16.260,518.702,-0.219,0.987
2.707000,652387,1000.00,12,0,1,544.044,-20.745,16.423,518.510,-1.365,1.006
2.708000,652388,1000.00,12,0,1,555.310,-9.021,16.437,518.991,-0.190,0.999
2.709000,652389,1000.00,12,0,1,573.470,9.131,16.482,519.759,0.114,0.997
2.710000,652390,1000.00,12,0,1,592.350,27.376,16.859,520.288,1.015,1.006
2.711000,652391,1000.00,12,0,1,576.616,17.770,16.590,519.855,0.534,1.004
2.712000,652392,1000.00,12,0,1,547.023,-10.097,16.210,519.519,0.288,1.005
2.713000,652393,1000.00,12,0,1,541.138,-11.541,16.291,520.192,0.935,1.001
2.714000,652394,1000.00,12,0,1,542.531,-1.896,15.041,519.783,0.873,1.006
2.715000,652395,1000.00,12,0,1,525.500,-9.762,12.615,520.384,1.104,1.016
2.716000,652396,1000.00,12,0,1,508.614,-21.331,12.014,518.943,0.357,0.997
2.717000,652397,1000.00,12,0,1,508.013,-16.971,12.250,517.694,-1.210,1.011
2.718000,652398,1000.00,12,0,1,510.391,-9.662,12.064,518.006,-0.640,1.005
2.719000,652399,1000.00,12,0,1,517.357,-3.540,11.910,518.342,-0.191,0.994
2.760000,652440,1000.00,12,0,1,576.280,40.348,13.137,519.423,0.555,0.987
2.761000,652441,1000.00,12,0,1,609.332,70.205,16.435,517.742,-0.519,0.983
2.762000,652442,1000.00,12,0,1,600.997,43.363,17.465,518.895,-0.627,0.986
2.763000,652443,1000.00,12,0,1,576.616,8.766,17.507,520.192,1.227,1.000
2.764000,652444,1000.00,12,0,1,555.190,-22.404,17.791,518.822,-0.547,0.983
2.765000,652445,1000.00,12,0,1,534.172,-43.434,18.815,518.510,-1.167,0.973
2.766000,652446,1000.00,12,0,1,518.654,-56.675,20.451,519.831,-0.055,0.972
2.767000,652447,1000.00,12,0,1,509.430,-58.484,22.060,519.231,-0.344,0.965
2.768000,652448,1000.00,12,0,1,511.784,-47.824,23.072,519.135,-0.819,0.972
2.769000,652449,1000.00,12,0,1,525.164,-26.238,23.367,519.063,-0.511,0.972
2.770000,652450,1000.00,12,0,1,541.858,-1.571,23.366,520.432,0.492,0.972
2.771000,652451,1000.00,12,0,1,535.181,1.995,23.362,520.072,0.786,0.976
2.772000,652452,1000.00,12,0,1,516.757,-9.013,23.344,520.312,0.528,0.978
2.773000,652453,1000.00,12,0,1,510.415,-8.046,23.262,519.663,0.534,0.976
2.774000,652454,1000.00,12,0,1,505.035,-2.784,23.217,516.973,-1.748,1.005
2.775000,652455,1000.00,12,0,1,508.013,4.287,23.222,518.726,-0.536,1.000
2.776000,652456,1000.00,12,0,1,529.344,27.292,23.525,520.816,2.354,1.030
2.777000,652457,1000.00,12,0,1,547.575,44.428,24.331,519.783,1.178,1.015
2.778000,652458,1000.00,12,0,1,540.897,35.412,24.841,519.159,0.349,0.995
2.779000,652459,1000.00,12,0,1,534.196,19.868,24.991,519.471,0.490,0.995
2.780000,652460,1000.00,12,0,1,536.694,16.331,25.062,517.934,-0.692,0.999
2.781000,652461,1000.00,12,0,1,535.829,9.297,25.058,517.309,-1.729,1.008
2.782000,652462,1000.00,12,0,1,532.490,-0.475,25.049,518.102,-0.798,1.013
2.783000,652463,1000.00,12,0,1,535.469,-3.966,25.054,515.988,-2.266,0.999
2.784000,652464,1000.00,12,0,1,542.627,-1.950,25.024,514.499,-3.920,1.141
2.785000,652465,1000.00,12,0,1,557.448,6.206,24.969,517.357,-1.141,1.118
2.786000,652466,1000.00,12,0,1,570.347,14.660,25.050,521.345,2.717,1.180
2.787000,652467,1000.00,12,0,1,562.372,5.502,25.034,521.152,2.674,1.238
2.788000,652468,1000.00,12,0,1,544.140,-13.361,24.978,519.903,0.673,1.242
2.789000,652469,1000.00,12,0,1,531.145,-22.519,24.734,517.982,-0.858,1.248
2.790000,652470,1000.00,12,0,1,532.754,-16.598,24.560,519.135,-0.406,1.246
2.791000,652471,1000.00,12,0,1,518.462,-18.008,24.667,520.816,1.810,1.262
2.792000,652472,1000.00,12,0,1,516.997,-16.741,24.754,521.345,2.029,1.286
2.793000,652473,1000.00,12,0,1,526.869,3.007,24.748,519.615,0.713,1.241
2.794000,652474,1000.00,12,0,1,551.226,26.280,25.019,518.486,-0.643,1.243
2.795000,652475,1000.00,12,0,1,559.033,38.892,25.577,519.447,0.411,1.231
2.796000,652476,1000.00,12,0,1,549.065,25.189,25.678,518.270,-0.003,1.231
2.797000,652477,1000.00,12,0,1,540.897,14.058,25.587,515.748,-2.361,1.260
2.798000,652478,1000.00,12,0,1,534.988,5.784,25.569,516.829,-1.316,1.274
2.799000,652479,1000.00,12,0,1,536.213,1.757,25.537,517.309,-0.092,1.274
2.800000,652480,1000.00,12,0,1,533.643,-2.242,25.244,517.525,-0.148,1.266
2.801000,652481,1000.00,12,0,1,534.268,-8.521,25.148,516.108,-0.969,1.271
2.802000,652482,1000.00,12,0,1,534.556,-10.088,25.148,518.871,0.523,1.273
2.803000,652483,1000.00,12,0,1,539.817,-11.359,25.146,518.510,1.317,1.279
2.804000,652484,1000.00,12,0,1,544.477,-8.388,25.172,517.718,-0.717,1.277
2.805000,652485,1000.00,12,0,1,546.422,-10.191,25.176,518.126,-0.057,1.268
2.806000,652486,1000.00,12,0,1,548.248,-9.508,25.031,518.102,-0.333,1.268
2.807000,652487,1000.00,12,0,1,531.313,-21.702,25.104,520.504,1.301,1.269
2.808000,652488,1000.00,12,0,1,519.759,-32.050,25.473,519.735,1.292,1.279
2.809000,652489,1000.00,12,0,1,532.034,-14.921,25.555,517.357,-1.685,1.301
2.810000,652490,1000.00,12,0,1,544.885,4.026,24.917,517.501,-1.268,1.311
2.811000,652491,1000.00,12,0,1,576.184,31.999,23.297,519.639,0.711,1.313
2.812000,652492,1000.00,12,0,1,592.902,52.242,23.658,518.102,0.272,1.310
2.813000,652493,1000.00,12,0,1,565.014,25.707,23.904,519.735,0.692,1.303
2.814000,652494,1000.00,12,0,1,541.282,-0.693,23.693,519.543,1.879,1.327
2.815000,652495,1000.00,12,0,1,529.896,-7.048,22.905,517.958,-0.282,1.317
2.816000,652496,1000.00,12,0,1,531.457,-5.171,21.469,517.838,-0.028,1.317
2.817000,652497,1000.00,12,0,1,534.244,1.398,19.813,518.967,0.975,1.324
2.818000,652498,1000.00,12,0,1,531.361,-2.056,18.625,518.798,1.075,1.327
2.819000,652499,1000.00,12,0,1,527.950,-6.185,18.273,517.357,-0.323,1.326
2.820000,652500,1000.00,12,0,1,521.561,-13.158,18.366,516.829,-1.068,1.333
2.821000,652501,1000.00,12,0,1,516.180,-20.133,18.583,517.237,-0.499,1.330
2.822000,652502,1000.00,12,0,1,526.725,-13.376,18.636,518.150,0.078,1.328
2.823000,652503,1000.00,12,0,1,538.327,-3.224,18.606,518.750,0.654,1.329
2.824000,652504,1000.00,12,0,1,544.429,-1.217,18.603,519.807,1.003,1.314
2.825000,652505,1000.00,12,0,1,553.412,2.959,18.598,519.951,1.082,1.320
2.826000,652506,1000.00,12,0,1,564.077,9.693,18.245,520.480,0.771,1.282
2.827000,652507,1000.00,12,0,1,562.228,6.580,17.154,518.606,-0.618,1.275
2.828000,652508,1000.00,12,0,1,550.242,-5.600,16.426,518.798,-1.378,1.288
2.829000,652509,1000.00,12,0,1,523.314,-25.842,16.591,518.750,-0.606,1.289
2.830000,652510,1000.00,12,0,1,508.686,-35.979,17.199,516.492,-2.605,1.337
2.831000,652511,1000.00,12,0,1,513.418,-21.817,17.424,518.582,-0.980,1.322
2.832000,652512,1000.00,12,0,1,524.299,-3.189,17.430,520.000,1.468,1.334
2.833000,652513,1000.00,12,0,1,525.572,6.132,17.443,519.159,0.420,1.296
2.834000,652514,1000.00,12,0,1,534.844,16.275,17.592,519.015,0.471,1.173
2.835000,652515,1000.00,12,0,1,544.501,28.821,18.036,518.438,0.147,1.162
2.836000,652516,1000.00,12,0,1,542.267,26.182,18.295,517.766,-0.339,1.098
2.837000,652517,1000.00,12,0,1,531.169,14.014,18.386,518.102,0.056,1.031
2.838000,652518,1000.00,12,0,1,531.025,9.492,18.338,517.814,0.115,1.026
2.839000,652519,1000.00,12,0,1,542.099,16.377,18.207,517.694,-0.145,1.019
2.840000,652520,1000.00,12,0,1,557.904,25.049,18.399,518.246,0.374,1.019
2.841000,652521,1000.00,12,0,1,565.519,25.363,18.572,517.814,0.025,0.987
2.842000,652522,1000.00,12,0,1,557.328,10.389,18.479,517.790,-0.378,0.945
2.843000,652523,1000.00,12,0,1,544.765,-8.865,18.516,517.597,-0.455,0.942
2.844000,652524,1000.00,12,0,1,537.390,-19.403,18.346,518.078,-0.422,0.940
2.845000,652525,1000.00,12,0,1,529.632,-26.980,17.913,518.006,-0.311,0.939
2.846000,652526,1000.00,12,0,1,530.208,-26.390,17.948,519.423,0.365,0.940
2.847000,652527,1000.00,12,0,1,545.053,-11.025,17.905,520.000,1.173,0.895
2.848000,652528,1000.00,12,0,1,555.814,2.510,17.890,518.726,-0.320,0.876
2.849000,652529,1000.00,12,0,1,557.208,4.796,17.901,517.189,-1.707,0.909
2.850000,652530,1000.00,12,0,1,549.497,0.537,17.899,518.030,-1.014,0.920
2.851000,652531,1000.00,12,0,1,528.767,-14.054,17.968,518.150,-0.198,0.910
2.852000,652532,1000.00,12,0,1,531.481,-10.649,17.975,518.438,-0.029,0.907
2.853000,652533,1000.00,12,0,1,549.497,13.093,17.998,517.862,0.025,0.888
2.854000,652534,1000.00,12,0,1,552.572,19.388,18.167,518.198,0.187,0.882
2.855000,652535,1000.00,12,0,1,542.026,10.332,18.169,515.748,-1.068,0.895
2.856000,652536,1000.00,12,0,1,529.103,-1.310,18.120,516.733,-0.886,0.902
2.857000,652537,1000.00,12,0,1,514.499,-13.041,17.953,514.667,-1.017,0.895
2.858000,652538,1000.00,12,0,1,492.063,-29.916,17.879,515.820,-1.136,0.891
2.859000,652539,1000.00,12,0,1,470.901,-45.964,18.907,517.261,1.525,0.885
2.860000,652540,1000.00,12,0,1,471.358,-41.661,19.796,517.381,1.045,0.879
2.861000,652541,1000.00,12,0,1,492.352,-18.190,19.442,514.979,-0.742,0.880
2.862000,652542,1000.00,12,0,1,539.720,22.716,18.268,514.138,-2.067,0.926
2.863000,652543,1000.00,12,0,1,576.232,54.347,19.483,516.396,0.045,0.921
2.864000,652544,1000.00,12,0,1,567.993,38.988,20.248,518.318,2.021,0.927
2.865000,652545,1000.00,12,0,1,567.993,23.689,20.499,516.492,0.198,0.927
2.866000,652546,1000.00,12,0,1,577.553,27.882,20.862,518.871,1.240,0.943
2.867000,652547,1000.00,12,0,1,575.727,19.755,21.047,519.015,2.123,0.980
2.868000,652548,1000.00,12,0,1,567.705,8.642,21.081,519.783,1.508,0.991
2.869000,652549,1000.00,12,0,1,564.005,2.829,21.066,517.886,0.516,0.993
2.870000,652550,1000.00,12,0,1,561.027,1.648,20.985,518.991,0.216,0.982
2.871000,652551,1000.00,12,0,1,554.493,-1.846,20.793,518.798,1.149,0.993
2.872000,652552,1000.00,12,0,1,541.930,-9.085,20.747,520.744,1.791,1.025
2.873000,652553,1000.00,12,0,1,524.611,-19.284,20.920,520.312,2.340,1.073
2.874000,652554,1000.00,12,0,1,512.265,-24.760,21.210,518.582,0.052,1.063
2.875000,652555,1000.00,12,0,1,508.710,-20.705,21.408,518.895,0.301,1.053
2.876000,652556,1000.00,12,0,1,516.757,-8.604,21.398,515.147,-2.021,1.086
2.877000,652557,1000.00,12,0,1,527.446,5.263,21.391,514.643,-3.468,1.188
2.878000,652558,1000.00,12,0,1,530.328,8.099,21.407,516.877,-0.046,1.172
2.879000,652559,1000.00,12,0,1,540.801,12.944,21.172,516.997,0.008,1.169
3.040000,652720,1000.00,12,0,1,545.461,14.846,20.658,519.063,1.572,1.131
3.041000,652721,1000.00,12,0,1,547.215,8.441,20.462,517.742,0.836,1.129
3.042000,652722,1000.00,12,0,1,548.968,4.726,20.467,516.228,-1.525,1.131
3.043000,652723,1000.00,12,0,1,551.443,0.312,20.449,517.309,-0.520,1.131
3.044000,652724,1000.00,12,0,1,547.383,-6.783,20.342,517.718,-0.153,1.130
3.045000,652725,1000.00,12,0,1,536.862,-19.272,20.115,515.988,-1.728,1.156
3.046000,652726,1000.00,12,0,1,533.139,-23.721,20.054,517.117,-1.305,1.169
3.047000,652727,1000.00,12,0,1,535.109,-18.899,20.134,520.120,1.647,1.192
3.048000,652728,1000.00,12,0,1,540.897,-10.907,20.148,519.039,0.907,1.199
3.049000,652729,1000.00,12,0,1,567.729,14.232,20.115,517.357,-1.288,1.213
3.050000,652730,1000.00,12,0,1,561.699,17.541,19.956,517.525,-0.895,1.218
3.051000,652731,1000.00,12,0,1,535.397,-8.346,19.666,518.991,0.473,1.220
3.052000,652732,1000.00,12,0,1,524.708,-13.475,19.704,518.102,0.346,1.220
3.053000,652733,1000.00,12,0,1,521.849,-9.041,19.705,517.718,-0.382,1.219
3.054000,652734,1000.00,12,0,1,515.123,-8.288,19.548,514.763,-1.909,1.247
3.055000,652735,1000.00,12,0,1,501.215,-14.152,19.277,515.892,-1.606,1.267
3.056000,652736,1000.00,12,0,1,493.361,-17.467,19.073,515.868,0.122,1.266
3.057000,652737,1000.00,12,0,1,513.394,2.957,19.013,514.499,-1.446,1.272
3.058000,652738,1000.00,12,0,1,535.084,25.515,19.349,516.901,0.841,1.277
3.059000,652739,1000.00,12,0,1,547.503,31.839,19.855,517.093,1.796,1.279
3.060000,652740,1000.00,12,0,1,543.276,22.855,20.116,517.621,1.262,1.283
3.061000,652741,1000.00,12,0,1,541.498,11.139,20.080,515.027,-0.221,1.283
3.062000,652742,1000.00,12,0,1,539.769,4.801,20.034,516.156,-0.847,1.289
3.063000,652743,1000.00,12,0,1,524.203,-13.412,20.039,516.517,0.759,1.293
3.064000,652744,1000.00,12,0,1,520.840,-21.978,20.092,517.309,0.159,1.293
3.065000,652745,1000.00,12,0,1,534.748,-8.976,20.079,517.357,0.746,1.289
3.066000,652746,1000.00,12,0,1,554.253,7.463,20.106,518.006,0.415,1.284
3.067000,652747,1000.00,12,0,1,562.468,15.430,20.140,517.669,0.378,1.277
3.068000,652748,1000.00,12,0,1,544.429,-0.702,19.691,518.510,0.475,1.269
3.069000,652749,1000.00,12,0,1,534.004,-12.097,18.665,519.039,1.148,1.261
3.070000,652750,1000.00,12,0,1,532.923,-7.047,17.739,517.549,-0.171,1.252
3.071000,652751,1000.00,12,0,1,533.187,-2.536,17.555,518.294,-0.039,1.248
3.072000,652752,1000.00,12,0,1,528.118,-0.623,17.259,517.814,0.486,1.215
3.073000,652753,1000.00,12,0,1,526.413,1.006,15.454,517.309,-0.488,1.217
3.074000,652754,1000.00,12,0,1,534.340,11.812,14.533,516.396,-0.440,1.185
3.075000,652755,1000.00,12,0,1,541.378,20.578,14.438,514.211,-2.275,1.227
3.076000,652756,1000.00,12,0,1,541.642,19.983,14.174,516.517,-0.239,1.215
3.077000,652757,1000.00,12,0,1,532.610,10.423,13.973,515.171,0.048,1.178
3.078000,652758,1000.00,12,0,1,523.795,-1.348,13.921,515.412,-0.823,1.164
3.079000,652759,1000.00,12,0,1,526.869,-1.614,13.917,517.189,1.662,1.185
3.080000,652760,1000.00,12,0,1,526.869,-2.951,13.922,517.189,1.279,1.198
3.081000,652761,1000.00,12,0,1,543.420,4.470,13.934,518.678,2.024,1.221
3.082000,652762,1000.00,12,0,1,554.325,13.170,13.999,518.246,1.704,1.219
3.083000,652763,1000.00,12,0,1,557.736,7.472,13.771,518.943,1.040,1.182
3.084000,652764,1000.00,12,0,1,561.219,5.517,13.341,517.597,0.254,1.183
3.085000,652765,1000.00,12,0,1,563.549,2.289,13.020,518.174,-0.636,1.185
3.086000,652766,1000.00,12,0,1,563.093,-1.319,12.964,518.726,0.456,1.152
3.087000,652767,1000.00,12,0,1,566.119,-1.061,12.944,519.807,0.508,1.045
3.088000,652768,1000.00,12,0,1,559.538,-5.377,12.915,518.078,-0.439,1.047
3.089000,652769,1000.00,12,0,1,548.776,-14.208,12.942,516.973,-2.185,1.092
3.090000,652770,1000.00,12,0,1,552.740,-8.410,12.826,519.327,0.170,1.069
3.091000,652771,1000.00,12,0,1,561.868,5.464,12.793,517.669,-0.321,1.064
3.092000,652772,1000.00,12,0,1,557.304,5.498,12.800,517.573,-1.293,1.057
3.093000,652773,1000.00,12,0,1,549.569,0.391,12.800,517.501,-0.069,1.055
3.094000,652774,1000.00,12,0,1,537.414,-6.316,12.795,517.117,-0.753,1.060
3.095000,652775,1000.00,12,0,1,518.798,-19.237,12.794,515.532,-1.204,1.045
3.096000,652776,1000.00,12,0,1,503.449,-28.935,13.007,515.748,-1.323,1.046
3.097000,652777,1000.00,12,0,1,496.507,-29.898,13.413,517.669,1.055,1.030
3.098000,652778,1000.00,12,0,1,501.816,-21.385,13.663,517.573,1.182,1.036
3.099000,652779,1000.00,12,0,1,506.596,-12.718,13.633,518.102,1.083,1.031
3.100000,652780,1000.00,12,0,1,502.224,-15.713,13.588,517.982,1.168,1.037
3.101000,652781,1000.00,12,0,1,513.106,-8.885,13.595,517.069,-0.260,1.035
3.102000,652782,1000.00,12,0,1,538.640,12.813,13.582,517.309,-0.253,1.035
3.103000,652783,1000.00,12,0,1,554.397,23.599,13.928,519.351,1.097,1.045
3.104000,652784,1000.00,12,0,1,562.108,23.072,14.257,519.351,1.210,1.024
3.105000,652785,1000.00,12,0,1,559.297,15.468,14.284,519.255,0.194,0.999
3.106000,652786,1000.00,12,0,1,543.612,-2.827,14.075,519.687,0.481,1.001
3.107000,652787,1000.00,12,0,1,526.389,-19.299,14.331,521.273,1.297,0.997
3.108000,652788,1000.00,12,0,1,518.895,-23.285,14.255,519.231,-0.089,0.990
3.109000,652789,1000.00,12,0,1,516.420,-18.711,13.781,519.279,-1.124,0.970
3.110000,652790,1000.00,12,0,1,521.345,-8.209,13.447,517.261,-1.684,0.982
3.111000,652791,1000.00,12,0,1,542.171,15.536,13.534,517.525,-2.209,1.030
3.112000,652792,1000.00,12,0,1,568.906,43.179,14.832,517.381,-0.911,1.031
3.113000,652793,1000.00,12,0,1,564.029,41.702,15.849,517.069,-1.304,1.042
3.114000,652794,1000.00,12,0,1,531.169,9.608,15.600,517.381,-0.373,1.043
3.115000,652795,1000.00,12,0,1,518.030,-5.281,15.566,517.621,0.181,1.038
3.116000,652796,1000.00,12,0,1,514.739,-3.364,15.538,517.573,0.274,1.037
3.117000,652797,1000.00,12,0,1,499.702,-14.505,15.520,517.958,0.768,1.042
3.118000,652798,1000.00,12,0,1,502.368,-13.624,15.639,519.351,1.706,1.067
3.119000,652799,1000.00,12,0,1,523.146,6.247,15.570,518.126,0.991,1.064
3.120000,652800,1000.00,12,0,1,554.301,29.369,16.084,519.543,0.926,1.072
3.121000,652801,1000.00,12,0,1,559.778,31.256,16.676,517.790,0.350,1.073
3.122000,652802,1000.00,12,0,1,547.095,8.298,16.717,516.180,-2.479,1.127
3.123000,652803,1000.00,12,0,1,545.149,-1.540,16.718,516.156,-1.888,1.156
3.124000,652804,1000.00,12,0,1,543.420,-6.462,16.659,517.669,-0.933,1.162
3.125000,652805,1000.00,12,0,1,545.221,-9.566,16.459,516.541,-1.211,1.129
3.126000,652806,1000.00,12,0,1,559.057,1.043,16.215,517.525,-1.147,1.140
3.127000,652807,1000.00,12,0,1,562.444,4.782,16.162,519.111,0.899,1.147
3.128000,652808,1000.00,12,0,1,561.795,1.936,16.163,519.975,1.380,1.158
3.129000,652809,1000.00,12,0,1,561.747,3.188,16.168,519.543,1.013,1.143
3.130000,652810,1000.00,12,0,1,560.042,3.160,16.169,519.159,0.471,1.131
3.131000,652811,1000.00,12,0,1,554.974,1.545,16.158,519.015,0.365,1.095
3.132000,652812,1000.00,12,0,1,544.789,-3.855,16.060,517.117,-0.822,1.074
3.133000,652813,1000.00,12,0,1,532.010,-11.197,16.103,517.045,-1.200,1.078
3.134000,652814,1000.00,12,0,1,532.034,-7.871,16.122,520.120,2.058,1.116
3.135000,652815,1000.00,12,0,1,536.358,1.265,16.120,519.423,1.996,1.147
3.136000,652816,1000.00,12,0,1,546.759,10.775,16.191,518.702,0.629,1.149
3.137000,652817,1000.00,12,0,1,551.371,15.780,16.343,517.910,0.295,1.148
3.138000,652818,1000.00,12,0,1,552.523,12.038,16.414,517.934,-0.116,1.146
3.139000,652819,1000.00,12,0,1,553.965,9.031,16.341,519.471,1.268,1.118
3.140000,652820,1000.00,12,0,1,545.990,-2.251,16.300,519.759,1.457,1.137
3.141000,652821,1000.00,12,0,1,536.526,-16.397,16.446,519.231,0.417,1.137
3.142000,652822,1000.00,12,0,1,543.900,-14.159,16.550,517.237,-1.380,1.139
3.143000,652823,1000.00,12,0,1,559.081,-2.698,16.554,518.270,-1.319,1.154
3.144000,652824,1000.00,12,0,1,552.331,-9.124,16.580,518.510,-0.364,1.151
3.145000,652825,1000.00,12,0,1,541.474,-23.571,16.692,518.534,-1.062,1.148
3.146000,652826,1000.00,12,0,1,552.139,-14.461,16.311,520.000,0.339,1.133
3.147000,652827,1000.00,12,0,1,565.567,0.559,15.754,520.144,0.469,1.126
3.148000,652828,1000.00,12,0,1,573.590,8.034,15.502,520.504,0.346,1.114
3.149000,652829,1000.00,12,0,1,561.339,0.668,15.398,520.792,0.737,1.109
3.150000,652830,1000.00,12,0,1,538.952,-18.188,15.452,519.351,-0.579,1.099
3.151000,652831,1000.00,12,0,1,515.291,-32.023,16.053,520.408,0.025,1.099
3.152000,652832,1000.00,12,0,1,499.366,-38.159,16.839,518.798,-0.429,1.100
3.153000,652833,1000.00,12,0,1,500.687,-26.786,16.934,519.015,-0.971,1.097
3.154000,652834,1000.00,12,0,1,512.241,-6.470,16.642,519.711,0.642,1.088
3.155000,652835,1000.00,12,0,1,526.245,11.931,16.583,519.279,0.124,1.087
3.156000,652836,1000.00,12,0,1,529.824,18.900,16.792,516.541,-1.754,1.113
3.157000,652837,1000.00,12,0,1,513.154,4.440,16.581,516.132,-2.429,1.151
3.158000,652838,1000.00,12,0,1,506.692,-4.996,16.266,518.102,-0.063,1.151
3.159000,652839,1000.00,12,0,1,508.758,-1.879,16.052,517.766,0.126,1.140
3.200000,652880,1000.00,12,0,1,538.856,18.450,16.221,517.718,-0.449,1.116
3.201000,652881,1000.00,12,0,1,541.114,23.815,16.420,517.213,-0.462,1.074
3.202000,652882,1000.00,12,0,1,554.229,19.350,15.486,517.862,-0.529,1.069
3.203000,652883,1000.00,12,0,1,556.655,22.408,14.666,516.973,-0.704,1.057
3.204000,652884,1000.00,12,0,1,564.390,15.413,14.765,516.829,-1.559,1.079
3.205000,652885,1000.00,12,0,1,575.800,23.314,15.110,518.102,-0.075,1.078
3.206000,652886,1000.00,12,0,1,584.399,23.517,15.464,519.495,0.961,1.086
3.207000,652887,1000.00,12,0,1,588.122,22.400,15.652,518.318,0.151,1.081
3.208000,652888,1000.00,12,0,1,586.489,17.592,15.731,519.351,0.293,1.055
3.209000,652889,1000.00,12,0,1,571.188,2.568,15.710,519.519,1.113,1.057
3.210000,652890,1000.00,12,0,1,550.674,-14.257,15.284,520.360,1.215,1.063
3.211000,652891,1000.00,12,0,1,532.803,-26.378,15.099,519.447,1.003,1.071
3.212000,652892,1000.00,12,0,1,507.389,-38.653,16.016,519.423,0.398,1.014
3.213000,652893,1000.00,12,0,1,497.084,-41.994,17.080,519.879,1.256,0.994
3.214000,652894,1000.00,12,0,1,497.925,-27.793,17.502,519.159,0.690,0.990
3.215000,652895,1000.00,12,0,1,501.335,-17.730,17.629,518.871,0.299,0.976
3.216000,652896,1000.00,12,0,1,520.672,4.090,17.638,517.958,-0.064,0.962
3.217000,652897,1000.00,12,0,1,543.276,26.169,18.010,516.012,-1.803,0.987
3.218000,652898,1000.00,12,0,1,535.301,18.589,18.198,516.276,-1.446,0.989
3.219000,652899,1000.00,12,0,1,525.404,0.776,18.193,516.468,-0.751,0.985
3.220000,652900,1000.00,12,0,1,525.308,-2.411,18.191,518.102,0.437,0.984
3.221000,652901,1000.00,12,0,1,530.208,-2.847,18.194,519.063,1.552,1.007
3.222000,652902,1000.00,12,0,1,540.994,2.436,18.189,516.396,-0.947,1.009
3.223000,652903,1000.00,12,0,1,558.096,12.558,18.207,518.582,-0.212,0.995
3.224000,652904,1000.00,12,0,1,568.257,17.143,18.334,519.735,1.772,0.984
3.225000,652905,1000.00,12,0,1,565.831,9.926,18.387,519.063,0.099,0.943
3.226000,652906,1000.00,12,0,1,563.621,2.921,18.328,518.078,-0.657,0.944
3.227000,652907,1000.00,12,0,1,562.108,1.216,18.192,517.501,-1.543,0.968
3.228000,652908,1000.00,12,0,1,570.275,6.877,18.139,518.558,-0.519,0.970
3.229000,652909,1000.00,12,0,1,563.309,6.150,18.114,518.750,0.059,0.954
3.230000,652910,1000.00,12,0,1,536.790,-15.646,18.246,517.958,-0.695,0.936
3.231000,652911,1000.00,12,0,1,534.628,-15.329,18.228,516.709,-1.369,0.954
3.232000,652912,1000.00,12,0,1,539.048,-1.191,18.118,517.333,-0.822,0.941
3.233000,652913,1000.00,12,0,1,536.910,1.085,18.115,517.333,0.110,0.923
3.234000,652914,1000.00,12,0,1,542.699,9.318,18.117,517.501,0.153,0.921
3.235000,652915,1000.00,12,0,1,544.429,13.794,17.914,517.333,0.614,0.913
3.236000,652916,1000.00,12,0,1,538.255,7.343,17.827,517.189,0.407,0.914
3.237000,652917,1000.00,12,0,1,526.869,-3.756,17.835,517.958,1.217,0.928
3.238000,652918,1000.00,12,0,1,511.112,-19.023,18.001,519.183,2.222,0.978
3.239000,652919,1000.00,12,0,1,499.774,-29.924,18.491,516.901,0.410,0.974
3.240000,652920,1000.00,12,0,1,492.256,-35.145,18.974,515.772,-1.411,0.991
3.241000,652921,1000.00,12,0,1,494.634,-32.622,18.995,516.613,-0.397,0.993
3.242000,652922,1000.00,12,0,1,501.864,-23.687,18.517,520.384,2.391,1.047
3.243000,652923,1000.00,12,0,1,531.481,-0.339,18.126,520.672,3.032,1.123
3.244000,652924,1000.00,12,0,1,560.835,26.954,18.500,517.261,-0.929,1.127
3.245000,652925,1000.00,12,0,1,572.413,31.507,18.954,516.709,-2.097,1.165
3.246000,652926,1000.00,12,0,1,565.399,20.658,18.990,519.735,0.656,1.142
3.247000,652927,1000.00,12,0,1,564.966,13.602,19.077,520.288,1.422,1.108
3.248000,652928,1000.00,12,0,1,568.449,16.804,19.212,518.342,-0.644,1.112
3.249000,652929,1000.00,12,0,1,560.018,10.137,19.263,518.750,-0.729,1.116
3.250000,652930,1000.00,12,0,1,561.819,10.328,19.142,520.000,0.852,1.121
3.251000,652931,1000.00,12,0,1,570.395,22.102,19.100,518.318,-0.421,1.121
3.252000,652932,1000.00,12,0,1,559.465,15.296,19.027,518.342,-0.725,1.123
3.253000,652933,1000.00,12,0,1,533.499,-5.866,18.779,517.501,-0.600,1.122
3.254000,652934,1000.00,12,0,1,519.111,-16.874,18.804,517.429,-0.890,1.107
3.255000,652935,1000.00,12,0,1,522.041,-9.104,18.558,518.462,0.608,1.110
3.256000,652936,1000.00,12,0,1,530.785,2.229,18.260,519.951,1.871,1.133
3.257000,652937,1000.00,12,0,1,538.327,9.504,18.033,519.567,1.731,1.159
3.258000,652938,1000.00,12,0,1,535.757,5.770,17.880,516.973,-0.796,1.164
3.259000,652939,1000.00,12,0,1,538.111,1.765,17.878,515.604,-2.304,1.198
3.260000,652940,1000.00,12,0,1,535.565,-2.723,17.768,516.733,-1.102,1.196
3.261000,652941,1000.00,12,0,1,529.944,-13.927,17.483,518.222,0.354,1.189
3.262000,652942,1000.00,12,0,1,536.502,-12.562,16.701,518.438,0.533,1.190
3.263000,652943,1000.00,12,0,1,553.580,-0.958,15.610,516.733,-1.171,1.188
3.264000,652944,1000.00,12,0,1,569.506,9.419,15.166,517.742,-0.886,1.191
3.265000,652945,1000.00,12,0,1,575.800,10.733,15.034,517.982,-0.117,1.190
3.266000,652946,1000.00,12,0,1,572.509,3.508,15.031,519.231,0.258,1.190
3.267000,652947,1000.00,12,0,1,569.122,-2.114,14.571,518.390,0.126,1.163
3.268000,652948,1000.00,12,0,1,562.708,-6.592,14.363,518.222,-0.801,1.150
3.269000,652949,1000.00,12,0,1,547.119,-16.728,14.556,518.054,-0.351,1.147
3.270000,652950,1000.00,12,0,1,531.169,-25.758,15.001,519.231,0.356,1.146
3.271000,652951,1000.00,12,0,1,514.307,-31.061,15.625,517.069,-0.604,1.128
3.272000,652952,1000.00,12,0,1,495.306,-37.455,16.495,516.252,-1.904,1.152
3.273000,652953,1000.00,12,0,1,483.008,-36.977,17.213,517.189,-0.197,1.152
3.274000,652954,1000.00,12,0,1,490.742,-20.033,17.275,516.877,-0.021,1.124
3.275000,652955,1000.00,12,0,1,495.114,-4.306,17.229,516.348,-0.369,1.125
3.276000,652956,1000.00,12,0,1,515.820,14.530,17.346,515.556,-0.537,1.124
3.277000,652957,1000.00,12,0,1,541.402,40.394,18.262,517.237,0.630,1.106
3.278000,652958,1000.00,12,0,1,532.851,30.077,18.725,518.150,2.183,1.146
3.279000,652959,1000.00,12,0,1,518.510,7.233,18.733,516.372,0.197,1.147
3.280000,652960,1000.00,12,0,1,503.834,-8.580,18.641,517.597,0.713,1.147
3.281000,652961,1000.00,12,0,1,502.176,-16.726,18.665,518.030,1.453,1.149
3.282000,652962,1000.00,12,0,1,519.255,-2.917,18.669,518.558,1.064,1.153
3.283000,652963,1000.00,12,0,1,537.102,10.158,18.724,517.429,0.256,1.153
3.284000,652964,1000.00,12,0,1,553.292,19.495,18.880,518.222,-0.088,1.153
3.285000,652965,1000.00,12,0,1,567.825,27.072,19.165,519.327,1.216,1.163
3.286000,652966,1000.00,12,0,1,582.886,33.830,19.726,520.192,1.315,1.176
3.287000,652967,1000.00,12,0,1,577.193,26.405,20.069,520.360,1.340,1.179
3.288000,652968,1000.00,12,0,1,570.419,13.326,19.977,516.372,-2.040,1.172
3.289000,652969,1000.00,12,0,1,560.907,7.129,19.550,517.862,-1.879,1.200
3.290000,652970,1000.00,12,0,1,538.183,-10.932,18.970,518.558,0.474,1.186
3.291000,652971,1000.00,12,0,1,519.327,-23.170,18.690,518.798,-0.167,1.185
3.292000,652972,1000.00,12,0,1,513.009,-20.795,18.621,518.750,0.661,1.139
3.293000,652973,1000.00,12,0,1,522.522,-5.330,18.637,520.024,1.222,1.069
3.294000,652974,1000.00,12,0,1,542.939,18.752,18.434,519.063,1.143,1.074
3.295000,652975,1000.00,12,0,1,536.261,17.869,18.065,518.702,0.111,1.032
3.296000,652976,1000.00,12,0,1,537.535,12.241,17.912,518.919,0.690,1.032
3.297000,652977,1000.00,12,0,1,539.769,15.516,17.943,518.294,0.083,1.013
3.298000,652978,1000.00,12,0,1,534.268,4.472,17.796,518.246,-0.206,1.009
3.299000,652979,1000.00,12,0,1,529.872,-4.001,17.747,517.069,-0.876,1.011
3.300000,652980,1000.00,12,0,1,526.941,-11.287,17.759,515.868,-2.329,1.057
3.301000,652981,1000.00,12,0,1,527.230,-15.741,17.623,515.772,-2.052,1.094
3.302000,652982,1000.00,12,0,1,530.280,-15.993,17.635,515.412,-2.244,1.135
3.303000,652983,1000.00,12,0,1,541.354,-10.661,17.680,516.589,-1.193,1.144
3.304000,652984,1000.00,12,0,1,572.028,12.203,17.603,517.838,0.156,1.137
3.305000,652985,1000.00,12,0,1,607.098,38.818,18.394,518.126,0.285,1.135
3.306000,652986,1000.00,12,0,1,606.834,34.765,19.037,519.039,0.764,1.109
3.307000,652987,1000.00,12,0,1,592.302,11.579,19.060,519.975,1.510,1.102
3.308000,652988,1000.00,12,0,1,576.184,-3.718,19.050,518.726,0.342,1.097
3.309000,652989,1000.00,12,0,1,560.354,-17.347,19.206,518.222,-0.546,1.051
3.310000,652990,1000.00,12,0,1,540.801,-27.757,19.599,517.525,-0.707,1.044
3.311000,652991,1000.00,12,0,1,524.828,-34.703,20.108,517.621,-0.708,1.048
3.312000,652992,1000.00,12,0,1,529.512,-21.930,20.268,517.549,-0.157,1.045
3.313000,652993,1000.00,12,0,1,540.177,-1.738,20.269,519.351,1.237,1.047
3.314000,652994,1000.00,12,0,1,542.315,5.824,20.242,518.798,1.562,1.062
3.315000,652995,1000.00,12,0,1,531.914,0.722,20.185,516.949,-0.499,1.065
3.316000,652996,1000.00,12,0,1,509.599,-17.117,20.324,517.453,0.004,1.064
3.317000,652997,1000.00,12,0,1,499.126,-26.016,20.652,518.654,1.365,1.081
3.318000,652998,1000.00,12,0,1,513.706,-11.741,20.697,519.231,1.714,1.102
3.319000,652999,1000.00,12,0,1,531.553,5.416,20.576,518.510,1.018,1.110
3.520000,653200,1000.00,12,0,1,552.331,17.888,20.408,515.868,-1.545,1.131
3.521000,653201,1000.00,12,0,1,559.273,19.634,20.123,516.132,-1.788,1.155
3.522000,653202,1000.00,12,0,1,568.257,15.535,19.537,516.420,-0.931,1.131
3.523000,653203,1000.00,12,0,1,579.955,19.279,19.020,518.702,0.447,1.133
3.524000,653204,1000.00,12,0,1,559.393,-3.298,18.814,518.054,0.582,1.136
3.525000,653205,1000.00,12,0,1,536.454,-31.226,19.316,518.871,0.026,1.135
3.526000,653206,1000.00,12,0,1,525.644,-37.140,19.911,518.102,0.096,1.132
3.527000,653207,1000.00,12,0,1,531.001,-28.741,19.503,518.294,-0.714,1.133
3.528000,653208,1000.00,12,0,1,543.588,-8.596,19.072,517.958,-0.364,1.091
3.529000,653209,1000.00,12,0,1,562.997,13.037,19.133,518.102,-0.629,1.095
3.530000,653210,1000.00,12,0,1,571.764,27.467,19.486,519.231,0.626,1.094
3.531000,653211,1000.00,12,0,1,547.623,10.382,19.398,519.783,1.301,1.090
3.532000,653212,1000.00,12,0,1,523.699,-10.264,19.447,520.096,1.347,1.096
3.533000,653213,1000.00,12,0,1,522.041,-5.575,19.410,518.822,0.594,1.099
3.534000,653214,1000.00,12,0,1,530.112,7.512,19.243,518.726,-0.038,1.099
3.535000,653215,1000.00,12,0,1,530.809,12.627,18.942,518.750,0.632,1.089
3.536000,653216,1000.00,12,0,1,520.696,4.090,18.337,517.021,-0.940,1.081
3.537000,653217,1000.00,12,0,1,525.356,4.863,17.966,518.126,-0.163,1.064
3.538000,653218,1000.00,12,0,1,541.834,17.946,18.047,518.630,0.904,1.032
3.539000,653219,1000.00,12,0,1,546.855,18.088,18.199,518.702,0.494,1.000
3.540000,653220,1000.00,12,0,1,549.809,11.684,18.208,517.573,-0.269,0.999
3.541000,653221,1000.00,12,0,1,547.767,3.800,17.919,518.558,-0.159,0.999
3.542000,653222,1000.00,12,0,1,543.540,-7.799,17.711,519.279,0.869,1.002
3.543000,653223,1000.00,12,0,1,529.247,-22.797,17.986,518.102,-0.614,0.991
3.544000,653224,1000.00,12,0,1,520.864,-33.995,18.428,518.270,-0.901,0.986
