# FW/GUI: v9.6.1-multi17-dual (PyQt5)
# StartTime: 2026-04-03 16:20:28
# Slot: 13
# DeviceID: 13
# Label: EMG13
# IP: 192.168.137.206
# TCP: 3333
# DeviceFW: EMG_FW_v9.6_MULTI17_DUALCH_RUNTIMECFG_CHEN
# EMG column notes: EMG_t_s=seconds since this Start; sample_idx=device sample index (ADS frame index); fs=sample rate (SPS); gain=gain; flags=0x01(TEST) 0x02(SHORT) 0x04(RLD); emg_valid=1 valid / 0 invalid (spike-guard decision); ch1_raw_uV=raw uV (after spike guard); ch1_filt_uV=filtered uV; ch1_env_uV=envelope (RMS) uV
EMG_t_s,sample_idx,fs,gain,flags,emg_valid,ch1_raw_uV,ch1_filt_uV,ch1_env_uV,ch2_raw_uV,ch2_filt_uV,ch2_env_uV
0.000000,684091,1000.00,12,0,1,1042.954,-5.784,6.698,1004.040,-3.133,1.053
0.001000,684092,1000.00,12,0,1,1044.827,-0.707,6.636,1006.875,0.295,1.049
0.002000,684093,1000.00,12,0,1,1045.524,0.160,6.630,1006.706,0.403,1.050
0.003000,684094,1000.00,12,0,1,1046.917,3.113,6.645,1005.697,-0.547,1.050
0.004000,684095,1000.00,12,0,1,1043.050,1.022,6.584,1005.962,-0.496,1.051
0.005000,684096,1000.00,12,0,1,1042.857,0.509,6.330,1006.634,0.410,1.053
0.006000,684097,1000.00,12,0,1,1041.993,1.805,6.172,1005.890,-0.277,1.052
0.007000,684098,1000.00,12,0,1,1038.366,-1.584,6.107,1007.331,0.619,1.052
0.008000,684099,1000.00,12,0,1,1037.333,-2.120,6.112,1006.562,0.492,1.039
0.009000,684100,1000.00,12,0,1,1035.940,-2.851,5.748,1006.754,-0.169,1.039
0.010000,684101,1000.00,12,0,1,1037.357,-2.213,4.450,1006.346,0.037,0.996
0.011000,684102,1000.00,12,0,1,1041.488,1.231,3.528,1005.890,-0.815,0.991
0.012000,684103,1000.00,12,0,1,1045.932,3.897,3.473,1004.136,-1.822,1.024
0.013000,684104,1000.00,12,0,1,1045.980,2.801,3.479,1004.569,-1.776,1.041
0.014000,684105,1000.00,12,0,1,1046.413,0.572,3.468,1004.761,-0.727,1.034
0.015000,684106,1000.00,12,0,1,1048.622,1.289,3.473,1006.850,0.745,1.037
0.016000,684107,1000.00,12,0,1,1045.956,-1.758,3.453,1007.259,1.807,1.057
0.017000,684108,1000.00,12,0,1,1048.767,-1.429,3.437,1007.259,1.177,1.068
0.018000,684109,1000.00,12,0,1,1050.400,1.310,3.442,1007.403,1.357,1.082
0.019000,684110,1000.00,12,0,1,1053.138,2.195,3.452,1007.163,0.965,1.069
0.020000,684111,1000.00,12,0,1,1054.772,4.693,3.492,1008.532,1.705,1.052
0.021000,684112,1000.00,12,0,1,1055.180,4.332,3.528,1006.923,0.838,1.057
0.022000,684113,1000.00,12,0,1,1056.477,5.687,3.587,1006.058,-0.949,1.059
0.023000,684114,1000.00,12,0,1,1049.775,1.015,3.497,1006.971,0.360,1.060
0.024000,684115,1000.00,12,0,1,1047.037,-2.621,3.448,1004.929,-1.259,1.075
0.025000,684116,1000.00,12,0,1,1044.635,-1.943,3.457,1006.971,-0.216,1.075
0.026000,684117,1000.00,12,0,1,1046.292,-1.091,3.451,1005.938,0.210,1.076
0.027000,684118,1000.00,12,0,1,1046.028,1.034,3.440,1004.953,-1.779,1.096
0.028000,684119,1000.00,12,0,1,1042.329,-2.869,3.456,1004.328,-1.412,1.108
0.029000,684120,1000.00,12,0,1,1042.833,-2.671,3.475,1006.346,-0.236,1.082
0.030000,684121,1000.00,12,0,1,1041.560,-3.113,3.479,1008.532,2.348,1.132
0.031000,684122,1000.00,12,0,1,1048.238,0.366,3.443,1007.883,1.485,1.146
0.032000,684123,1000.00,12,0,1,1048.502,2.168,3.433,1006.010,-0.557,1.147
0.033000,684124,1000.00,12,0,1,1047.638,-2.447,3.451,1005.049,-1.475,1.158
0.034000,684125,1000.00,12,0,1,1048.478,-1.739,3.449,1005.962,-0.739,1.154
0.035000,684126,1000.00,12,0,1,1041.969,-8.138,3.630,1007.403,0.912,1.156
0.036000,684127,1000.00,12,0,1,1042.689,-9.234,3.740,1006.658,0.298,1.155
0.037000,684128,1000.00,12,0,1,1051.337,-0.309,3.554,1005.313,-0.999,1.161
0.038000,684129,1000.00,12,0,1,1049.439,-0.594,3.408,1005.289,-1.035,1.168
0.039000,684130,1000.00,12,0,1,1045.812,-4.748,3.448,1003.896,-1.616,1.184
0.040000,684131,1000.00,12,0,1,1045.187,-3.808,3.382,1004.040,-1.730,1.193
0.041000,684132,1000.00,12,0,1,1046.028,-1.725,3.374,1006.562,1.016,1.179
0.042000,684133,1000.00,12,0,1,1043.554,-1.633,3.347,1006.442,1.315,1.192
0.043000,684134,1000.00,12,0,1,1043.458,-0.873,3.345,1004.400,-0.745,1.196
0.044000,684135,1000.00,12,0,1,1044.851,2.511,3.350,1005.818,0.147,1.193
0.045000,684136,1000.00,12,0,1,1041.200,0.989,3.347,1005.001,0.284,1.193
0.046000,684137,1000.00,12,0,1,1040.239,0.131,3.330,1005.986,0.203,1.174
0.047000,684138,1000.00,12,0,1,1042.593,3.593,3.355,1004.929,0.280,1.172
0.048000,684139,1000.00,12,0,1,1043.842,4.709,3.298,1005.097,-0.576,1.175
0.049000,684140,1000.00,12,0,1,1041.753,2.779,3.092,1006.562,1.273,1.127
0.050000,684141,1000.00,12,0,1,1038.990,-0.830,2.984,1006.058,0.724,1.041
0.051000,684142,1000.00,12,0,1,1042.737,1.157,2.987,1006.682,0.735,1.046
0.052000,684143,1000.00,12,0,1,1046.965,4.554,3.055,1005.601,0.290,1.045
0.053000,684144,1000.00,12,0,1,1045.740,1.965,3.036,1005.409,-0.685,1.047
0.054000,684145,1000.00,12,0,1,1048.935,2.065,3.047,1007.259,1.322,1.061
0.055000,684146,1000.00,12,0,1,1047.878,1.192,3.050,1008.580,2.258,1.106
0.056000,684147,1000.00,12,0,1,1051.601,1.172,3.044,1006.610,0.671,1.110
0.057000,684148,1000.00,12,0,1,1048.478,0.082,3.036,1004.737,-1.629,1.130
0.058000,684149,1000.00,12,0,1,1047.229,-3.858,3.070,1003.728,-2.076,1.166
0.059000,684150,1000.00,12,0,1,1049.319,-0.342,3.044,1004.569,-1.312,1.180
0.060000,684151,1000.00,12,0,1,1050.400,0.764,3.030,1006.370,0.747,1.185
0.061000,684152,1000.00,12,0,1,1050.544,1.682,3.034,1005.697,0.482,1.181
0.062000,684153,1000.00,12,0,1,1051.697,3.269,3.019,1005.337,-0.290,1.153
0.063000,684154,1000.00,12,0,1,1053.811,5.521,3.093,1006.226,0.707,1.130
0.064000,684155,1000.00,12,0,1,1053.931,6.418,3.223,1007.739,1.778,1.153
0.065000,684156,1000.00,12,0,1,1051.625,3.993,3.267,1006.562,0.995,1.157
0.066000,684157,1000.00,12,0,1,1041.392,-3.698,3.299,1005.049,-1.035,1.138
0.067000,684158,1000.00,12,0,1,1036.156,-9.511,3.557,1003.392,-2.116,1.165
0.068000,684159,1000.00,12,0,1,1035.627,-7.280,3.698,1003.896,-1.930,1.181
0.069000,684160,1000.00,12,0,1,1038.798,-4.302,3.735,1005.962,0.401,1.174
0.070000,684161,1000.00,12,0,1,1042.641,0.304,3.676,1007.619,1.842,1.178
0.071000,684162,1000.00,12,0,1,1045.284,1.782,3.633,1007.619,1.719,1.197
0.072000,684163,1000.00,12,0,1,1042.329,-1.186,3.547,1008.124,1.579,1.210
0.073000,684164,1000.00,12,0,1,1044.635,-1.739,3.553,1008.460,1.719,1.234
0.074000,684165,1000.00,12,0,1,1049.487,2.409,3.550,1006.634,-0.026,1.221
0.075000,684166,1000.00,12,0,1,1050.496,1.980,3.550,1006.682,-0.635,1.224
0.076000,684167,1000.00,12,0,1,1048.887,-0.838,3.549,1004.737,-1.489,1.241
0.077000,684168,1000.00,12,0,1,1050.688,-0.473,3.546,1006.442,-0.965,1.223
0.078000,684169,1000.00,12,0,1,1051.049,0.111,3.523,1006.899,0.837,1.212
0.079000,684170,1000.00,12,0,1,1052.057,0.433,3.503,1008.868,1.406,1.228
0.080000,684171,1000.00,12,0,1,1048.694,-1.265,3.480,1006.082,0.252,1.183
0.081000,684172,1000.00,12,0,1,1052.298,0.947,3.482,1005.001,-2.214,1.206
0.082000,684173,1000.00,12,0,1,1054.820,5.724,3.562,1005.794,-0.483,1.205
0.083000,684174,1000.00,12,0,1,1052.202,3.330,3.576,1006.899,0.247,1.187
0.084000,684175,1000.00,12,0,1,1043.986,-2.592,3.587,1005.481,-0.513,1.185
0.085000,684176,1000.00,12,0,1,1041.945,-4.553,3.457,1005.938,-0.704,1.182
0.086000,684177,1000.00,12,0,1,1040.768,-2.766,3.225,1006.274,0.085,1.181
0.087000,684178,1000.00,12,0,1,1039.903,-2.887,3.251,1007.811,1.001,1.181
0.088000,684179,1000.00,12,0,1,1042.041,-0.137,3.249,1006.754,0.451,1.174
0.089000,684180,1000.00,12,0,1,1041.368,0.231,3.180,1007.739,0.383,1.153
0.090000,684181,1000.00,12,0,1,1043.122,0.297,3.134,1007.835,0.956,1.135
0.091000,684182,1000.00,12,0,1,1043.362,1.034,3.128,1006.634,-0.574,1.128
0.092000,684183,1000.00,12,0,1,1043.602,-0.902,3.122,1008.172,0.355,1.114
0.093000,684184,1000.00,12,0,1,1045.692,0.327,3.120,1007.115,0.187,1.109
0.094000,684185,1000.00,12,0,1,1048.310,1.034,3.103,1007.883,-0.293,1.110
0.095000,684186,1000.00,12,0,1,1054.507,4.775,3.172,1007.283,0.284,1.110
0.096000,684187,1000.00,12,0,1,1061.498,9.409,3.440,1004.520,-2.708,1.174
0.097000,684188,1000.00,12,0,1,1059.288,6.195,3.513,1004.641,-2.338,1.219
0.098000,684189,1000.00,12,0,1,1052.538,-2.028,3.462,1006.322,-0.339,1.217
0.099000,684190,1000.00,12,0,1,1050.496,-4.549,3.499,1007.427,0.920,1.211
0.100000,684191,1000.00,12,0,1,1054.507,-0.411,3.497,1008.196,1.567,1.227
0.101000,684192,1000.00,12,0,1,1058.447,4.220,3.544,1008.484,1.648,1.244
0.102000,684193,1000.00,12,0,1,1050.568,-0.931,3.488,1006.899,0.254,1.244
0.103000,684194,1000.00,12,0,1,1047.517,-4.832,3.543,1006.442,-0.701,1.244
0.104000,684195,1000.00,12,0,1,1042.881,-4.933,3.599,1007.091,0.145,1.230
0.105000,684196,1000.00,12,0,1,1035.915,-10.214,3.875,1007.043,0.037,1.188
0.106000,684197,1000.00,12,0,1,1033.898,-9.324,4.090,1006.875,-0.196,1.185
0.107000,684198,1000.00,12,0,1,1038.774,-3.134,4.113,1006.082,-0.836,1.168
0.108000,684199,1000.00,12,0,1,1044.443,3.708,4.111,1005.169,-1.683,1.155
0.109000,684200,1000.00,12,0,1,1044.611,4.213,4.153,1004.641,-1.929,1.172
0.110000,684201,1000.00,12,0,1,1050.784,6.999,4.268,1006.130,-0.625,1.171
0.111000,684202,1000.00,12,0,1,1053.523,9.527,4.470,1005.337,-0.549,1.172
0.112000,684203,1000.00,12,0,1,1050.016,2.994,4.466,1004.328,-1.831,1.199
0.113000,684204,1000.00,12,0,1,1045.956,-2.381,4.410,1007.739,1.178,1.207
0.114000,684205,1000.00,12,0,1,1045.404,-4.839,4.369,1007.979,2.229,1.221
0.115000,684206,1000.00,12,0,1,1041.608,-7.681,4.467,1007.067,0.505,1.215
0.116000,684207,1000.00,12,0,1,1042.041,-8.574,4.599,1006.466,0.269,1.207
0.117000,684208,1000.00,12,0,1,1046.917,-2.974,4.418,1004.520,-1.473,1.188
0.118000,684209,1000.00,12,0,1,1048.935,-0.350,4.296,1005.962,-0.471,1.158
0.119000,684210,1000.00,12,0,1,1049.968,0.646,4.254,1007.547,1.671,1.181
0.120000,684211,1000.00,12,0,1,1048.791,0.823,4.255,1006.130,0.337,1.152
0.121000,684212,1000.00,12,0,1,1047.445,-0.053,4.248,1006.034,-0.108,1.127
0.122000,684213,1000.00,12,0,1,1048.815,2.477,4.259,1006.298,0.446,1.106
0.123000,684214,1000.00,12,0,1,1046.653,2.249,4.264,1007.403,1.103,1.090
0.124000,684215,1000.00,12,0,1,1046.677,2.473,4.265,1008.580,2.215,1.134
0.125000,684216,1000.00,12,0,1,1044.155,2.290,4.268,1006.082,0.045,1.131
0.126000,684217,1000.00,12,0,1,1045.692,2.909,4.286,1006.899,-0.296,1.112
0.127000,684218,1000.00,12,0,1,1044.203,3.542,4.315,1006.899,0.624,1.107
0.128000,684219,1000.00,12,0,1,1044.323,1.995,4.324,1004.641,-1.886,1.132
0.129000,684220,1000.00,12,0,1,1046.917,4.485,4.370,1006.850,-0.268,1.115
0.130000,684221,1000.00,12,0,1,1049.775,5.521,4.435,1005.001,-0.661,1.119
0.131000,684222,1000.00,12,0,1,1044.635,0.445,4.434,1006.754,-0.652,1.078
0.132000,684223,1000.00,12,0,1,1039.134,-6.864,4.466,1007.883,1.822,1.106
0.133000,684224,1000.00,12,0,1,1040.864,-6.165,4.526,1005.553,-0.981,1.114
0.134000,684225,1000.00,12,0,1,1043.554,-3.424,4.537,1005.649,-1.027,1.122
0.135000,684226,1000.00,12,0,1,1047.854,-0.894,4.493,1006.923,0.429,1.119
0.136000,684227,1000.00,12,0,1,1054.724,4.722,4.525,1006.034,-0.177,1.119
0.137000,684228,1000.00,12,0,1,1056.093,5.204,4.566,1006.466,-0.094,1.110
0.138000,684229,1000.00,12,0,1,1055.132,2.737,4.583,1005.962,-0.071,1.108
0.139000,684230,1000.00,12,0,1,1059.456,5.215,4.642,1005.409,-0.761,1.112
0.140000,684231,1000.00,12,0,1,1061.305,7.318,4.755,1004.857,-0.920,1.112
0.141000,684232,1000.00,12,0,1,1050.376,-1.983,4.761,1004.641,-0.996,1.118
0.142000,684233,1000.00,12,0,1,1044.467,-8.298,4.902,1006.370,0.530,1.119
0.143000,684234,1000.00,12,0,1,1047.205,-3.286,4.924,1005.193,0.237,1.119
0.144000,684235,1000.00,12,0,1,1044.779,-2.659,4.936,1005.289,-0.532,1.121
0.145000,684236,1000.00,12,0,1,1047.133,-0.562,4.890,1005.313,0.288,1.121
0.146000,684237,1000.00,12,0,1,1044.251,0.226,4.706,1005.890,0.216,1.054
0.147000,684238,1000.00,12,0,1,1040.840,-3.783,4.655,1005.001,0.030,1.001
0.148000,684239,1000.00,12,0,1,1039.543,-3.169,4.667,1004.977,-0.594,1.003
0.149000,684240,1000.00,12,0,1,1042.089,-1.378,4.627,1004.112,-0.735,1.000
0.150000,684241,1000.00,12,0,1,1045.356,2.062,4.636,1004.665,-0.685,0.980
0.151000,684242,1000.00,12,0,1,1043.866,0.137,4.597,1006.082,0.974,0.962
0.152000,684243,1000.00,12,0,1,1047.590,0.916,4.597,1007.283,1.874,0.997
0.153000,684244,1000.00,12,0,1,1050.664,3.619,4.575,1005.313,0.307,0.993
0.154000,684245,1000.00,12,0,1,1052.033,2.083,4.531,1004.617,-0.949,1.002
0.155000,684246,1000.00,12,0,1,1053.883,2.482,4.309,1004.977,-0.220,1.002
0.156000,684247,1000.00,12,0,1,1055.540,2.079,4.112,1004.905,-0.178,1.002
0.157000,684248,1000.00,12,0,1,1056.045,1.598,4.095,1005.145,0.032,0.995
0.158000,684249,1000.00,12,0,1,1055.516,0.227,4.061,1005.097,0.269,0.967
0.159000,684250,1000.00,12,0,1,1057.462,1.339,4.022,1006.850,1.399,0.949
0.160000,684251,1000.00,12,0,1,1054.604,0.043,3.898,1005.842,1.224,0.960
0.161000,684252,1000.00,12,0,1,1050.616,-3.729,3.695,1006.322,0.531,0.960
0.162000,684253,1000.00,12,0,1,1048.574,-3.714,3.709,1006.082,1.094,0.937
0.163000,684254,1000.00,12,0,1,1050.280,-1.058,3.696,1005.986,0.211,0.923
0.164000,684255,1000.00,12,0,1,1051.121,1.952,3.643,1005.457,0.159,0.868
0.165000,684256,1000.00,12,0,1,1050.472,2.040,3.489,1004.448,-1.010,0.876
0.166000,684257,1000.00,12,0,1,1052.105,3.849,3.317,1003.920,-1.352,0.896
0.167000,684258,1000.00,12,0,1,1052.610,4.779,3.358,1004.304,-0.872,0.880
0.168000,684259,1000.00,12,0,1,1044.683,-2.005,3.370,1003.367,-1.331,0.898
0.169000,684260,1000.00,12,0,1,1035.123,-11.126,3.718,1005.481,0.122,0.866
0.170000,684261,1000.00,12,0,1,1036.228,-10.287,3.991,1006.322,1.582,0.893
0.171000,684262,1000.00,12,0,1,1043.722,-2.313,4.004,1005.986,0.695,0.899
0.172000,684263,1000.00,12,0,1,1045.356,-0.436,3.989,1006.923,1.301,0.915
0.173000,684264,1000.00,12,0,1,1053.499,3.905,4.015,1007.691,1.892,0.941
0.174000,684265,1000.00,12,0,1,1060.320,9.804,4.233,1006.178,0.366,0.888
0.175000,684266,1000.00,12,0,1,1060.801,7.070,4.338,1004.016,-1.749,0.922
0.176000,684267,1000.00,12,0,1,1054.868,0.210,4.318,1005.265,-0.948,0.931
0.177000,684268,1000.00,12,0,1,1050.568,-5.783,4.366,1008.100,2.041,0.971
0.178000,684269,1000.00,12,0,1,1044.251,-10.024,4.582,1008.364,2.232,0.985
0.179000,684270,1000.00,12,0,1,1041.152,-12.290,4.859,1008.124,1.473,1.006
0.180000,684271,1000.00,12,0,1,1047.085,-4.890,4.846,1007.643,0.891,1.010
0.181000,684272,1000.00,12,0,1,1048.478,-0.018,4.845,1007.043,0.067,1.006
0.182000,684273,1000.00,12,0,1,1042.713,-3.811,4.778,1006.875,-0.177,0.972
0.183000,684274,1000.00,12,0,1,1039.687,-4.684,4.744,1006.130,-0.739,0.968
0.184000,684275,1000.00,12,0,1,1041.584,-0.889,4.721,1007.643,0.187,0.958
0.185000,684276,1000.00,12,0,1,1041.993,2.090,4.728,1007.787,0.865,0.963
0.186000,684277,1000.00,12,0,1,1040.720,1.806,4.688,1007.979,0.299,0.964
0.187000,684278,1000.00,12,0,1,1043.074,4.278,4.669,1008.124,0.602,0.968
0.188000,684279,1000.00,12,0,1,1039.903,2.723,4.669,1007.691,-0.163,0.968
0.189000,684280,1000.00,12,0,1,1039.038,0.177,4.610,1006.250,-1.377,0.981
0.190000,684281,1000.00,12,0,1,1043.386,4.029,4.529,1005.770,-2.032,1.014
0.191000,684282,1000.00,12,0,1,1049.847,8.158,4.665,1005.938,-1.569,1.029
0.192000,684283,1000.00,12,0,1,1051.481,8.313,4.665,1007.523,-0.225,1.026
0.193000,684284,1000.00,12,0,1,1051.697,5.217,4.701,1007.427,0.120,1.026
0.194000,684285,1000.00,12,0,1,1049.319,1.496,4.690,1007.451,-0.309,1.024
0.195000,684286,1000.00,12,0,1,1045.404,-3.899,4.722,1006.682,-0.655,1.028
0.196000,684287,1000.00,12,0,1,1047.349,-3.499,4.748,1006.971,-0.743,1.032
0.197000,684288,1000.00,12,0,1,1047.854,-1.999,4.726,1007.043,-0.253,1.033
0.198000,684289,1000.00,12,0,1,1047.517,-2.920,4.723,1007.259,-0.219,1.030
0.199000,684290,1000.00,12,0,1,1047.878,-1.442,4.723,1006.802,-0.350,1.026
0.200000,684291,1000.00,12,0,1,1047.517,-1.026,4.716,1007.667,0.164,1.022
0.201000,684292,1000.00,12,0,1,1045.548,-1.251,4.720,1007.787,0.647,1.017
0.202000,684293,1000.00,12,0,1,1046.533,0.362,4.718,1007.211,-0.069,0.981
0.203000,684294,1000.00,12,0,1,1046.941,2.762,4.706,1007.763,0.292,0.981
0.204000,684295,1000.00,12,0,1,1047.133,3.445,4.722,1007.379,0.252,0.973
0.205000,684296,1000.00,12,0,1,1042.017,0.631,4.710,1007.067,-0.386,0.974
0.206000,684297,1000.00,12,0,1,1042.017,-0.276,4.701,1007.067,-0.137,0.974
0.207000,684298,1000.00,12,0,1,1037.645,-1.481,4.700,1009.517,1.507,0.997
0.208000,684299,1000.00,12,0,1,1038.702,-2.387,4.712,1007.763,0.804,1.002
0.209000,684300,1000.00,12,0,1,1042.930,2.898,4.726,1006.802,-1.326,1.001
0.210000,684301,1000.00,12,0,1,1045.476,3.883,4.758,1008.364,0.534,0.988
0.211000,684302,1000.00,12,0,1,1044.755,2.265,4.740,1008.892,0.904,0.994
0.212000,684303,1000.00,12,0,1,1046.581,1.566,4.716,1007.019,-0.729,0.987
0.213000,684304,1000.00,12,0,1,1049.175,2.567,4.727,1008.364,-0.226,0.987
0.214000,684305,1000.00,12,0,1,1049.823,1.590,4.725,1006.322,-0.964,0.996
0.215000,684306,1000.00,12,0,1,1056.573,4.675,4.762,1004.809,-3.117,1.080
0.216000,684307,1000.00,12,0,1,1059.600,7.357,4.844,1006.826,-0.774,1.069
0.217000,684308,1000.00,12,0,1,1054.411,0.460,4.797,1006.706,-0.184,1.062
0.218000,684309,1000.00,12,0,1,1050.928,-3.696,4.817,1005.722,-1.326,1.062
0.219000,684310,1000.00,12,0,1,1050.808,-3.531,4.580,1005.001,-1.431,1.081
0.220000,684311,1000.00,12,0,1,1051.457,-1.854,4.351,1006.250,-0.523,1.060
0.221000,684312,1000.00,12,0,1,1050.856,-1.126,4.341,1007.667,1.385,1.073
0.222000,684313,1000.00,12,0,1,1050.736,-0.255,4.341,1007.979,1.400,1.076
0.223000,684314,1000.00,12,0,1,1050.040,0.622,4.307,1006.274,0.094,1.042
0.224000,684315,1000.00,12,0,1,1049.127,0.648,4.078,1005.938,-0.739,1.046
0.225000,684316,1000.00,12,0,1,1047.638,0.429,3.954,1006.250,0.004,1.016
0.226000,684317,1000.00,12,0,1,1047.253,0.394,3.955,1006.034,-0.221,1.008
0.227000,684318,1000.00,12,0,1,1043.482,-1.824,3.878,1006.490,0.169,0.966
0.228000,684319,1000.00,12,0,1,1043.650,-2.675,3.629,1006.802,0.605,0.917
0.229000,684320,1000.00,12,0,1,1045.236,-0.390,3.186,1006.418,0.166,0.893
0.230000,684321,1000.00,12,0,1,1048.598,1.209,3.115,1007.907,1.195,0.900
0.231000,684322,1000.00,12,0,1,1048.166,0.711,3.117,1007.811,1.422,0.922
0.232000,684323,1000.00,12,0,1,1048.166,-1.664,3.079,1006.730,-0.018,0.922
0.233000,684324,1000.00,12,0,1,1050.880,-0.295,3.007,1007.139,0.194,0.917
0.234000,684325,1000.00,12,0,1,1052.153,-0.212,3.004,1008.748,1.554,0.942
0.235000,684326,1000.00,12,0,1,1057.078,1.972,3.003,1007.691,0.821,0.941
0.236000,684327,1000.00,12,0,1,1062.098,5.925,3.107,1008.244,0.495,0.943
0.237000,684328,1000.00,12,0,1,1065.317,6.660,3.190,1006.850,-0.050,0.939
0.238000,684329,1000.00,12,0,1,1063.948,4.794,3.238,1004.761,-2.414,0.999
0.239000,684330,1000.00,12,0,1,1062.074,1.369,3.244,1005.193,-1.749,1.011
0.240000,684331,1000.00,12,0,1,1048.262,-8.573,3.416,1005.746,-0.713,0.974
0.241000,684332,1000.00,12,0,1,1045.332,-13.012,3.704,1004.977,-1.169,0.963
0.242000,684333,1000.00,12,0,1,1048.310,-5.118,3.587,1006.202,-0.155,0.963
0.243000,684334,1000.00,12,0,1,1052.466,-0.446,3.511,1006.202,0.414,0.964
0.244000,684335,1000.00,12,0,1,1054.339,3.874,3.547,1005.866,-0.192,0.964
0.245000,684336,1000.00,12,0,1,1052.730,2.838,3.527,1006.130,0.167,0.959
0.246000,684337,1000.00,12,0,1,1048.358,-0.514,3.492,1006.442,0.432,0.956
0.247000,684338,1000.00,12,0,1,1046.965,-1.813,3.490,1004.280,-1.191,0.970
0.248000,684339,1000.00,12,0,1,1047.469,-1.027,3.469,1005.385,-0.851,0.977
0.249000,684340,1000.00,12,0,1,1050.040,0.960,3.466,1005.265,0.069,0.975
0.250000,684341,1000.00,12,0,1,1047.421,-1.387,3.468,1005.001,-0.729,0.981
0.251000,684342,1000.00,12,0,1,1050.424,-1.166,3.468,1006.418,0.783,0.983
0.252000,684343,1000.00,12,0,1,1055.805,3.345,3.499,1005.601,0.383,0.984
0.253000,684344,1000.00,12,0,1,1059.384,4.457,3.534,1006.538,0.494,0.986
0.254000,684345,1000.00,12,0,1,1059.143,2.558,3.519,1006.730,1.353,1.003
0.255000,684346,1000.00,12,0,1,1058.927,0.132,3.518,1004.665,-0.863,1.009
0.256000,684347,1000.00,12,0,1,1052.322,-5.722,3.610,1004.400,-1.122,1.022
0.257000,684348,1000.00,12,0,1,1049.535,-9.575,3.850,1005.481,0.108,0.999
0.258000,684349,1000.00,12,0,1,1048.839,-7.963,3.997,1006.154,0.906,1.001
0.259000,684350,1000.00,12,0,1,1047.373,-7.762,4.124,1006.394,1.071,0.995
0.260000,684351,1000.00,12,0,1,1053.499,-1.232,4.091,1005.601,0.411,0.994
0.261000,684352,1000.00,12,0,1,1053.859,2.764,4.097,1007.571,1.573,1.010
0.262000,684353,1000.00,12,0,1,1048.574,-1.758,4.099,1007.211,1.894,1.040
0.263000,684354,1000.00,12,0,1,1048.262,-0.566,4.084,1004.953,-0.796,1.046
0.264000,684355,1000.00,12,0,1,1042.881,-2.544,4.093,1006.802,0.452,1.039
0.265000,684356,1000.00,12,0,1,1043.914,-1.893,4.048,1006.778,1.154,0.954
0.266000,684357,1000.00,12,0,1,1046.268,3.137,3.938,1008.172,1.266,0.965
0.267000,684358,1000.00,12,0,1,1047.277,3.574,3.969,1007.979,1.767,0.996
0.268000,684359,1000.00,12,0,1,1043.794,1.347,3.939,1006.802,-0.244,0.979
0.269000,684360,1000.00,12,0,1,1047.998,2.588,3.925,1005.169,-1.373,0.978
0.270000,684361,1000.00,12,0,1,1050.016,5.398,3.990,1005.794,-1.319,0.992
0.271000,684362,1000.00,12,0,1,1054.652,5.959,4.075,1005.746,-0.630,0.977
0.272000,684363,1000.00,12,0,1,1056.285,6.894,4.189,1006.730,-0.212,0.957
0.273000,684364,1000.00,12,0,1,1052.129,0.479,4.189,1007.691,1.006,0.968
0.274000,684365,1000.00,12,0,1,1055.324,0.383,4.188,1007.043,0.313,0.963
0.275000,684366,1000.00,12,0,1,1058.495,3.376,4.215,1006.899,-0.163,0.963
0.276000,684367,1000.00,12,0,1,1058.759,1.457,4.220,1007.979,0.845,0.970
0.277000,684368,1000.00,12,0,1,1053.931,-2.375,4.225,1008.052,0.857,0.977
0.278000,684369,1000.00,12,0,1,1051.121,-6.157,4.297,1006.178,-0.756,0.979
0.279000,684370,1000.00,12,0,1,1053.210,-2.668,4.314,1006.058,-1.327,0.997
0.280000,684371,1000.00,12,0,1,1056.381,1.172,4.313,1005.241,-1.283,0.999
0.281000,684372,1000.00,12,0,1,1054.099,1.040,4.315,1005.601,-1.364,0.998
0.282000,684373,1000.00,12,0,1,1055.973,2.226,4.320,1005.385,-0.738,1.003
0.283000,684374,1000.00,12,0,1,1056.958,5.224,4.382,1007.379,0.437,1.004
0.284000,684375,1000.00,12,0,1,1057.822,5.396,4.448,1008.484,2.087,1.024
0.285000,684376,1000.00,12,0,1,1053.787,2.998,4.460,1007.811,0.924,1.025
0.286000,684377,1000.00,12,0,1,1049.007,-2.139,4.391,1006.010,-0.689,1.028
0.287000,684378,1000.00,12,0,1,1043.314,-6.166,4.376,1007.139,-0.253,1.028
0.288000,684379,1000.00,12,0,1,1047.854,-3.264,4.348,1008.124,1.096,0.982
0.289000,684380,1000.00,12,0,1,1051.241,1.636,4.350,1007.883,0.554,0.954
0.290000,684381,1000.00,12,0,1,1048.334,-2.154,4.188,1005.337,-1.541,0.973
0.291000,684382,1000.00,12,0,1,1049.127,-3.073,3.788,1005.073,-2.221,1.009
0.292000,684383,1000.00,12,0,1,1051.673,-1.008,3.720,1005.890,-0.855,1.016
0.293000,684384,1000.00,12,0,1,1054.532,-0.131,3.720,1006.875,0.056,1.014
0.294000,684385,1000.00,12,0,1,1055.372,0.191,3.680,1005.649,-0.594,1.018
0.295000,684386,1000.00,12,0,1,1058.543,0.803,3.659,1003.968,-2.191,1.063
0.296000,684387,1000.00,12,0,1,1061.498,3.349,3.689,1004.761,-1.366,1.079
0.297000,684388,1000.00,12,0,1,1056.501,-1.535,3.687,1005.962,0.308,1.067
0.298000,684389,1000.00,12,0,1,1052.970,-5.577,3.767,1007.307,1.328,1.076
0.299000,684390,1000.00,12,0,1,1055.444,-2.368,3.780,1008.076,2.178,1.120
0.300000,684391,1000.00,12,0,1,1055.468,-0.454,3.775,1006.226,0.386,1.116
0.301000,684392,1000.00,12,0,1,1055.636,0.260,3.772,1006.490,0.014,1.111
0.302000,684393,1000.00,12,0,1,1051.000,-1.456,3.748,1006.971,0.857,1.116
0.303000,684394,1000.00,12,0,1,1046.533,-4.894,3.758,1006.562,0.224,1.114
0.304000,684395,1000.00,12,0,1,1049.896,-0.359,3.741,1005.794,-0.395,1.099
0.305000,684396,1000.00,12,0,1,1051.337,3.233,3.769,1006.490,-0.026,1.092
0.306000,684397,1000.00,12,0,1,1049.799,1.880,3.691,1007.907,1.365,1.098
0.307000,684398,1000.00,12,0,1,1051.817,3.449,3.468,1009.781,2.688,1.162
0.308000,684399,1000.00,12,0,1,1053.210,4.606,3.344,1007.811,1.137,1.166
0.309000,684400,1000.00,12,0,1,1051.241,1.863,3.170,1009.541,1.213,1.169
0.310000,684401,1000.00,12,0,1,1053.090,1.471,3.172,1007.331,0.511,1.169
0.311000,684402,1000.00,12,0,1,1050.016,-1.105,3.151,1006.562,-1.773,1.175
0.312000,684403,1000.00,12,0,1,1054.724,-0.550,3.143,1006.178,-0.980,1.152
0.313000,684404,1000.00,12,0,1,1053.018,-0.278,3.142,1006.947,-0.896,1.154
0.314000,684405,1000.00,12,0,1,1050.616,-5.801,3.227,1006.754,-0.322,1.153
0.315000,684406,1000.00,12,0,1,1052.298,-3.668,3.258,1007.163,-0.346,1.142
0.316000,684407,1000.00,12,0,1,1057.342,-0.002,3.227,1005.770,-1.028,1.138
0.317000,684408,1000.00,12,0,1,1053.979,-1.446,3.194,1005.121,-1.867,1.141
0.318000,684409,1000.00,12,0,1,1049.367,-6.419,3.315,1005.746,-0.971,1.149
0.319000,684410,1000.00,12,0,1,1051.769,-3.263,3.327,1005.866,-0.462,1.134
0.320000,684411,1000.00,12,0,1,1052.490,-0.082,3.238,1005.217,-1.047,1.128
0.321000,684412,1000.00,12,0,1,1050.640,-1.006,3.130,1006.802,0.331,1.126
0.322000,684413,1000.00,12,0,1,1053.306,2.611,2.997,1007.283,1.091,1.136
0.323000,684414,1000.00,12,0,1,1056.765,6.825,3.148,1004.544,-1.250,1.141
0.324000,684415,1000.00,12,0,1,1053.859,5.399,3.239,1003.872,-2.328,1.186
0.325000,684416,1000.00,12,0,1,1046.316,-1.462,3.210,1005.169,-0.512,1.188
0.326000,684417,1000.00,12,0,1,1039.951,-6.399,3.329,1007.691,1.559,1.203
0.327000,684418,1000.00,12,0,1,1043.794,-2.997,3.339,1005.697,0.603,1.200
0.328000,684419,1000.00,12,0,1,1046.749,1.896,3.234,1005.001,-1.150,1.206
0.329000,684420,1000.00,12,0,1,1049.535,2.858,3.238,1007.091,1.257,1.204
0.330000,684421,1000.00,12,0,1,1056.357,7.959,3.424,1006.610,1.013,1.199
0.331000,684422,1000.00,12,0,1,1054.652,5.725,3.515,1006.226,0.187,1.184
0.332000,684423,1000.00,12,0,1,1049.823,-1.698,3.509,1008.220,1.910,1.210
0.333000,684424,1000.00,12,0,1,1041.608,-8.932,3.656,1009.060,2.666,1.266
0.334000,684425,1000.00,12,0,1,1045.836,-7.812,3.742,1007.835,1.284,1.244
0.335000,684426,1000.00,12,0,1,1053.138,1.205,3.722,1005.265,-1.206,1.249
0.336000,684427,1000.00,12,0,1,1055.252,2.077,3.721,1005.890,-1.040,1.254
0.337000,684428,1000.00,12,0,1,1055.901,2.375,3.633,1006.947,0.513,1.255
0.338000,684429,1000.00,12,0,1,1056.693,2.644,3.623,1006.923,0.353,1.247
0.339000,684430,1000.00,12,0,1,1056.934,2.873,3.638,1008.268,1.278,1.257
0.340000,684431,1000.00,12,0,1,1056.141,2.601,3.644,1004.977,-0.916,1.245
0.341000,684432,1000.00,12,0,1,1047.878,-3.360,3.649,1006.202,-1.319,1.219
0.342000,684433,1000.00,12,0,1,1042.401,-7.875,3.813,1004.857,-0.645,1.217
0.343000,684434,1000.00,12,0,1,1043.674,-4.358,3.862,1005.842,-1.316,1.231
0.344000,684435,1000.00,12,0,1,1045.091,-0.612,3.863,1006.010,0.337,1.229
0.345000,684436,1000.00,12,0,1,1044.995,0.541,3.862,1005.649,-0.833,1.195
0.346000,684437,1000.00,12,0,1,1039.471,-2.578,3.850,1004.761,-1.014,1.188
0.347000,684438,1000.00,12,0,1,1038.918,-3.786,3.881,1006.322,-0.118,1.187
0.348000,684439,1000.00,12,0,1,1039.302,-1.318,3.805,1005.818,0.200,1.173
0.349000,684440,1000.00,12,0,1,1044.323,1.740,3.798,1005.938,-0.293,1.132
0.350000,684441,1000.00,12,0,1,1046.701,4.834,3.858,1006.154,0.252,1.131
0.351000,684442,1000.00,12,0,1,1049.703,4.688,3.915,1007.739,1.329,1.147
0.352000,684443,1000.00,12,0,1,1053.883,7.246,4.041,1007.595,1.457,1.159
0.353000,684444,1000.00,12,0,1,1051.505,3.538,4.013,1007.307,0.718,1.163
0.354000,684445,1000.00,12,0,1,1048.526,-1.690,4.020,1006.850,0.312,1.163
0.355000,684446,1000.00,12,0,1,1046.076,-4.045,4.035,1008.292,1.238,1.176
0.356000,684447,1000.00,12,0,1,1047.830,-3.597,4.058,1007.091,0.625,1.163
0.357000,684448,1000.00,12,0,1,1050.304,-0.104,4.028,1007.811,0.379,1.100
0.358000,684449,1000.00,12,0,1,1051.529,0.829,3.977,1007.667,0.878,1.096
0.359000,684450,1000.00,12,0,1,1051.817,1.910,3.978,1008.244,0.663,1.086
0.360000,684451,1000.00,12,0,1,1049.559,0.573,3.973,1006.706,-0.156,1.084
0.361000,684452,1000.00,12,0,1,1045.572,-1.936,3.979,1005.770,-1.600,1.079
0.362000,684453,1000.00,12,0,1,1043.146,-2.847,3.999,1005.986,-1.032,1.080
0.363000,684454,1000.00,12,0,1,1042.569,-1.606,4.005,1006.754,-0.296,1.073
0.364000,684455,1000.00,12,0,1,1044.923,1.741,3.928,1004.785,-1.591,1.095
0.365000,684456,1000.00,12,0,1,1044.851,3.222,3.920,1005.625,-1.414,1.112
0.366000,684457,1000.00,12,0,1,1043.314,1.797,3.928,1008.100,1.306,1.118
0.367000,684458,1000.00,12,0,1,1044.803,2.843,3.944,1007.163,0.670,1.091
0.368000,684459,1000.00,12,0,1,1049.727,6.552,3.948,1006.634,-0.539,1.085
0.369000,684460,1000.00,12,0,1,1052.153,7.772,4.072,1007.331,0.347,1.084
0.370000,684461,1000.00,12,0,1,1052.298,5.592,4.148,1005.361,-1.278,1.089
0.371000,684462,1000.00,12,0,1,1046.316,-0.987,4.148,1006.010,-1.193,1.101
0.372000,684463,1000.00,12,0,1,1045.692,-4.554,4.181,1006.250,-0.180,1.090
0.373000,684464,1000.00,12,0,1,1050.808,-0.221,4.069,1005.649,-0.934,1.084
0.374000,684465,1000.00,12,0,1,1049.607,-1.466,4.002,1006.370,-0.150,1.033
0.375000,684466,1000.00,12,0,1,1046.581,-5.593,4.074,1005.842,-0.194,1.031
0.376000,684467,1000.00,12,0,1,1047.157,-4.957,4.033,1005.289,-0.864,1.014
0.377000,684468,1000.00,12,0,1,1051.649,-0.876,4.013,1006.802,0.630,1.015
0.378000,684469,1000.00,12,0,1,1050.976,0.177,4.004,1005.409,-0.014,1.001
0.379000,684470,1000.00,12,0,1,1053.691,1.390,3.988,1006.250,-0.028,0.986
0.380000,684471,1000.00,12,0,1,1053.787,3.684,3.862,1003.896,-0.851,0.983
0.381000,684472,1000.00,12,0,1,1051.577,1.168,3.779,1004.977,-1.137,0.995
0.382000,684473,1000.00,12,0,1,1053.306,3.335,3.801,1004.713,0.225,0.958
0.383000,684474,1000.00,12,0,1,1051.433,3.050,3.611,1005.481,-0.119,0.881
0.384000,684475,1000.00,12,0,1,1047.157,-0.868,3.440,1006.658,1.644,0.893
0.385000,684476,1000.00,12,0,1,1046.437,-0.936,3.438,1005.337,0.299,0.878
0.386000,684477,1000.00,12,0,1,1046.917,0.130,3.426,1003.872,-1.290,0.884
0.387000,684478,1000.00,12,0,1,1042.689,-2.689,3.430,1004.016,-0.962,0.892
0.388000,684479,1000.00,12,0,1,1046.292,-1.231,3.414,1005.842,0.538,0.894
0.389000,684480,1000.00,12,0,1,1045.956,0.509,3.391,1006.971,1.948,0.918
0.390000,684481,1000.00,12,0,1,1043.746,-3.754,3.413,1004.761,-0.179,0.909
0.391000,684482,1000.00,12,0,1,1044.227,-3.263,3.411,1006.178,0.343,0.891
0.392000,684483,1000.00,12,0,1,1046.605,-2.134,3.238,1006.875,1.676,0.917
0.393000,684484,1000.00,12,0,1,1046.965,-1.938,3.190,1007.715,1.631,0.927
0.394000,684485,1000.00,12,0,1,1052.802,1.359,3.195,1007.427,1.663,0.955
0.395000,684486,1000.00,12,0,1,1052.850,2.253,3.210,1006.562,0.338,0.949
0.396000,684487,1000.00,12,0,1,1049.151,-2.809,3.214,1008.027,1.339,0.957
0.397000,684488,1000.00,12,0,1,1055.108,1.403,3.175,1007.139,1.025,0.968
0.398000,684489,1000.00,12,0,1,1057.990,5.648,3.269,1006.370,-0.457,0.970
0.399000,684490,1000.00,12,0,1,1057.174,3.479,3.296,1009.853,2.502,1.032
0.400000,684491,1000.00,12,0,1,1049.968,-1.319,3.230,1005.697,-0.120,1.031
0.401000,684492,1000.00,12,0,1,1043.074,-7.879,3.352,1004.280,-3.172,1.109
0.402000,684493,1000.00,12,0,1,1045.452,-3.907,3.239,1006.610,0.072,1.089
0.403000,684494,1000.00,12,0,1,1038.966,-5.627,3.297,1006.826,0.253,1.085
0.404000,684495,1000.00,12,0,1,1037.741,-7.221,3.444,1006.466,-0.198,1.085
0.405000,684496,1000.00,12,0,1,1040.696,-0.784,3.398,1006.082,-0.502,1.073
0.406000,684497,1000.00,12,0,1,1043.074,1.687,3.368,1006.154,-0.661,1.073
0.407000,684498,1000.00,12,0,1,1041.632,1.814,3.377,1006.490,-0.179,1.072
0.408000,684499,1000.00,12,0,1,1049.175,6.157,3.486,1007.475,0.370,1.066
0.409000,684500,1000.00,12,0,1,1050.136,8.556,3.680,1006.274,-0.281,1.063
0.410000,684501,1000.00,12,0,1,1046.124,1.596,3.686,1006.778,-0.670,1.067
0.411000,684502,1000.00,12,0,1,1049.127,2.370,3.691,1007.643,0.668,1.047
0.412000,684503,1000.00,12,0,1,1047.133,0.627,3.670,1008.460,0.869,1.044
0.413000,684504,1000.00,12,0,1,1044.491,-4.404,3.716,1008.076,0.738,1.048
0.414000,684505,1000.00,12,0,1,1049.847,-0.201,3.708,1006.850,-0.693,1.028
0.415000,684506,1000.00,12,0,1,1055.012,3.991,3.723,1006.154,-1.278,1.025
0.416000,684507,1000.00,12,0,1,1055.252,3.580,3.748,1005.265,-1.728,1.037
0.417000,684508,1000.00,12,0,1,1056.429,2.967,3.750,1004.737,-2.041,1.073
0.418000,684509,1000.00,12,0,1,1055.060,2.209,3.647,1006.442,-0.269,1.071
0.419000,684510,1000.00,12,0,1,1052.105,-1.018,3.481,1006.010,0.043,1.069
0.420000,684511,1000.00,12,0,1,1049.655,-2.217,3.404,1004.929,-1.138,1.066
0.421000,684512,1000.00,12,0,1,1047.421,-3.098,3.429,1006.850,0.545,1.056
0.422000,684513,1000.00,12,0,1,1041.152,-6.372,3.487,1006.370,0.828,1.062
0.423000,684514,1000.00,12,0,1,1040.551,-6.186,3.595,1007.091,0.569,1.057
0.424000,684515,1000.00,12,0,1,1040.479,-2.912,3.612,1006.730,0.937,1.065
0.425000,684516,1000.00,12,0,1,1038.245,-3.698,3.563,1006.154,-0.323,1.065
0.426000,684517,1000.00,12,0,1,1040.095,-1.190,3.498,1005.746,-0.369,1.060
0.427000,684518,1000.00,12,0,1,1039.086,-0.346,3.496,1005.842,-0.554,1.059
0.428000,684519,1000.00,12,0,1,1040.527,-0.235,3.496,1007.931,1.179,1.072
0.429000,684520,1000.00,12,0,1,1042.473,2.228,3.505,1008.580,1.973,1.107
0.430000,684521,1000.00,12,0,1,1041.320,0.022,3.466,1007.259,0.296,1.102
0.431000,684522,1000.00,12,0,1,1044.227,1.076,3.465,1006.298,-0.725,1.095
0.432000,684523,1000.00,12,0,1,1046.533,2.645,3.453,1007.091,-0.238,1.095
0.433000,684524,1000.00,12,0,1,1045.380,0.138,3.426,1008.652,1.320,1.110
0.434000,684525,1000.00,12,0,1,1048.334,1.007,3.427,1007.883,0.726,1.091
0.435000,684526,1000.00,12,0,1,1048.526,1.369,3.430,1006.298,-0.958,1.098
0.436000,684527,1000.00,12,0,1,1051.793,2.232,3.444,1006.154,-1.065,1.093
0.437000,684528,1000.00,12,0,1,1050.280,2.207,3.437,1007.979,0.632,1.089
0.438000,684529,1000.00,12,0,1,1050.496,0.588,3.434,1008.076,1.146,1.098
0.439000,684530,1000.00,12,0,1,1054.628,5.258,3.513,1006.370,-0.593,1.066
0.440000,684531,1000.00,12,0,1,1051.529,3.523,3.508,1006.682,-0.538,1.069
0.441000,684532,1000.00,12,0,1,1050.256,1.436,3.484,1006.538,-0.170,1.068
0.442000,684533,1000.00,12,0,1,1046.244,0.285,3.471,1007.067,-0.070,1.041
0.443000,684534,1000.00,12,0,1,1039.398,-5.559,3.548,1006.923,0.219,1.016
0.444000,684535,1000.00,12,0,1,1037.837,-5.334,3.622,1004.881,-1.688,1.017
0.445000,684536,1000.00,12,0,1,1040.720,-1.205,3.612,1006.802,-0.478,1.018
0.446000,684537,1000.00,12,0,1,1043.818,2.766,3.612,1008.340,1.632,1.026
0.447000,684538,1000.00,12,0,1,1043.698,2.888,3.629,1006.682,-0.196,1.016
0.448000,684539,1000.00,12,0,1,1040.672,-0.383,3.541,1005.601,-1.427,1.034
0.449000,684540,1000.00,12,0,1,1039.807,-2.165,3.520,1007.091,-0.213,0.972
0.450000,684541,1000.00,12,0,1,1041.296,-1.365,3.520,1006.850,0.083,0.972
0.451000,684542,1000.00,12,0,1,1040.912,-2.152,3.353,1005.890,-1.115,0.877
0.452000,684543,1000.00,12,0,1,1044.251,-0.959,3.310,1007.259,0.062,0.877
0.453000,684544,1000.00,12,0,1,1047.710,1.913,3.224,1007.283,0.565,0.880
0.454000,684545,1000.00,12,0,1,1049.727,2.013,3.071,1008.772,1.214,0.896
0.455000,684546,1000.00,12,0,1,1043.554,-3.224,3.103,1005.986,-0.223,0.893
0.456000,684547,1000.00,12,0,1,1042.809,-6.109,3.212,1005.986,-1.571,0.916
0.457000,684548,1000.00,12,0,1,1044.131,-2.733,3.225,1005.962,-0.167,0.916
0.458000,684549,1000.00,12,0,1,1043.578,-2.849,3.131,1008.003,0.748,0.920
0.459000,684550,1000.00,12,0,1,1044.203,-1.044,2.892,1007.235,1.245,0.936
0.460000,684551,1000.00,12,0,1,1048.526,3.689,2.930,1007.451,0.303,0.932
0.461000,684552,1000.00,12,0,1,1047.758,4.866,2.991,1006.178,0.028,0.928
0.462000,684553,1000.00,12,0,1,1042.209,0.404,2.990,1006.130,-0.755,0.926
0.463000,684554,1000.00,12,0,1,1037.405,-2.958,2.954,1006.875,0.357,0.921
0.464000,684555,1000.00,12,0,1,1040.167,0.336,2.955,1005.577,-0.618,0.920
0.465000,684556,1000.00,12,0,1,1036.996,0.301,2.900,1004.857,-1.644,0.932
0.466000,684557,1000.00,12,0,1,1034.258,-2.831,2.884,1008.172,1.319,0.918
0.467000,684558,1000.00,12,0,1,1035.627,-0.469,2.854,1008.268,1.881,0.911
0.468000,684559,1000.00,12,0,1,1038.197,1.818,2.848,1007.211,0.176,0.911
0.469000,684560,1000.00,12,0,1,1043.530,5.546,2.951,1007.907,0.537,0.914
0.470000,684561,1000.00,12,0,1,1045.932,7.016,3.097,1006.082,-0.685,0.905
0.471000,684562,1000.00,12,0,1,1045.091,3.697,3.111,1006.658,-1.075,0.914
0.472000,684563,1000.00,12,0,1,1049.127,4.757,3.052,1006.442,-0.221,0.907
0.473000,684564,1000.00,12,0,1,1044.539,0.465,2.925,1006.202,-1.063,0.916
0.474000,684565,1000.00,12,0,1,1035.699,-9.698,3.204,1007.667,0.646,0.911
0.475000,684566,1000.00,12,0,1,1036.564,-9.378,3.428,1007.115,0.394,0.912
0.476000,684567,1000.00,12,0,1,1041.008,-3.726,3.464,1005.409,-1.234,0.927
0.477000,684568,1000.00,12,0,1,1045.043,0.323,3.464,1006.875,-0.080,0.924
0.478000,684569,1000.00,12,0,1,1045.043,1.610,3.472,1006.875,0.655,0.913
0.479000,684570,1000.00,12,0,1,1041.128,-1.536,3.464,1006.466,-0.103,0.870
0.480000,684571,1000.00,12,0,1,1042.017,-0.294,3.464,1007.163,0.660,0.873
0.481000,684572,1000.00,12,0,1,1050.088,7.772,3.631,1006.130,-0.001,0.867
0.482000,684573,1000.00,12,0,1,1045.187,6.083,3.713,1005.890,-0.631,0.871
0.483000,684574,1000.00,12,0,1,1027.628,-9.605,3.954,1004.593,-1.136,0.866
0.484000,684575,1000.00,12,0,1,1026.740,-10.778,4.235,1005.409,-0.994,0.872
0.485000,684576,1000.00,12,0,1,1027.965,-4.467,4.277,1006.730,0.888,0.870
0.486000,684577,1000.00,12,0,1,1030.991,-1.939,4.274,1008.220,1.681,0.889
0.487000,684578,1000.00,12,0,1,1035.915,4.495,4.310,1007.379,1.219,0.901
0.488000,684579,1000.00,12,0,1,1043.338,9.526,4.515,1005.337,-1.181,0.902
0.489000,684580,1000.00,12,0,1,1035.291,3.661,4.483,1005.938,-0.863,0.907
0.490000,684581,1000.00,12,0,1,1028.541,-6.606,4.553,1005.962,-0.303,0.904
0.491000,684582,1000.00,12,0,1,1032.745,-2.661,4.564,1004.737,-1.529,0.930
0.492000,684583,1000.00,12,0,1,1037.909,1.757,4.570,1003.776,-2.048,0.974
0.493000,684584,1000.00,12,0,1,1044.251,5.660,4.573,1005.505,-0.593,0.977
0.494000,684585,1000.00,12,0,1,1047.974,8.229,4.658,1006.466,1.052,0.959
0.495000,684586,1000.00,12,0,1,1050.400,7.474,4.773,1003.007,-1.775,0.989
0.496000,684587,1000.00,12,0,1,1042.857,1.105,4.760,1005.577,-0.401,0.963
0.497000,684588,1000.00,12,0,1,1038.606,-5.671,4.809,1005.169,1.103,0.975
0.498000,684589,1000.00,12,0,1,1039.182,-3.007,4.828,1004.112,-0.990,0.964
0.499000,684590,1000.00,12,0,1,1041.368,-0.720,4.819,1006.971,1.986,1.004
0.500000,684591,1000.00,12,0,1,1039.831,0.199,4.815,1006.490,2.005,1.043
0.501000,684592,1000.00,12,0,1,1036.828,-1.885,4.813,1005.097,0.035,1.031
0.502000,684593,1000.00,12,0,1,1034.714,-2.051,4.820,1005.914,0.801,1.037
0.503000,684594,1000.00,12,0,1,1036.516,0.657,4.813,1005.842,0.786,1.040
0.504000,684595,1000.00,12,0,1,1033.850,0.523,4.805,1007.859,2.000,1.064
0.505000,684596,1000.00,12,0,1,1029.478,-3.081,4.804,1006.706,1.484,1.084
0.506000,684597,1000.00,12,0,1,1031.400,-1.025,4.727,1005.217,-0.822,1.068
0.507000,684598,1000.00,12,0,1,1031.976,1.018,4.714,1005.289,-0.558,1.070
0.508000,684599,1000.00,12,0,1,1029.790,-1.622,4.702,1005.938,-0.074,1.065
0.509000,684600,1000.00,12,0,1,1034.162,1.263,4.703,1008.388,1.837,1.082
0.510000,684601,1000.00,12,0,1,1038.077,4.570,4.719,1006.899,1.066,1.092
0.511000,684602,1000.00,12,0,1,1042.713,6.218,4.750,1006.130,-0.796,1.098
0.512000,684603,1000.00,12,0,1,1044.611,6.543,4.839,1007.307,0.694,1.097
0.513000,684604,1000.00,12,0,1,1044.779,3.829,4.851,1007.283,0.518,1.098
0.514000,684605,1000.00,12,0,1,1046.485,3.356,4.874,1004.833,-1.432,1.113
0.515000,684606,1000.00,12,0,1,1049.127,4.084,4.908,1006.923,-0.374,1.090
0.516000,684607,1000.00,12,0,1,1048.887,2.874,4.909,1007.379,1.223,1.088
0.517000,684608,1000.00,12,0,1,1042.761,-2.868,4.925,1006.706,-0.157,1.055
0.518000,684609,1000.00,12,0,1,1034.979,-9.734,5.107,1007.451,0.640,1.058
0.519000,684610,1000.00,12,0,1,1031.544,-11.132,5.287,1008.172,1.205,1.069
0.520000,684611,1000.00,12,0,1,1033.201,-7.175,5.291,1006.322,-0.353,1.066
0.521000,684612,1000.00,12,0,1,1033.201,-3.842,5.293,1007.643,0.062,1.055
0.522000,684613,1000.00,12,0,1,1033.706,-1.858,5.257,1006.274,-0.219,1.055
0.523000,684614,1000.00,12,0,1,1035.507,1.807,5.262,1007.643,-0.231,1.045
0.524000,684615,1000.00,12,0,1,1034.474,2.196,5.090,1007.403,0.629,1.045
0.525000,684616,1000.00,12,0,1,1035.003,2.624,4.928,1004.112,-2.782,1.115
0.526000,684617,1000.00,12,0,1,1032.745,1.639,4.905,1006.514,-1.210,1.115
0.527000,684618,1000.00,12,0,1,1023.353,-6.548,4.992,1007.331,0.841,1.121
0.528000,684619,1000.00,12,0,1,1025.274,-6.382,5.068,1006.106,-1.073,1.127
0.529000,684620,1000.00,12,0,1,1031.880,1.323,5.067,1005.697,-1.031,1.137
0.530000,684621,1000.00,12,0,1,1032.048,0.882,5.068,1006.418,-0.651,1.136
0.531000,684622,1000.00,12,0,1,1034.114,0.846,4.949,1006.010,-0.431,1.138
0.532000,684623,1000.00,12,0,1,1036.324,2.236,4.884,1005.481,-1.164,1.146
0.533000,684624,1000.00,12,0,1,1040.984,4.089,4.726,1006.778,0.128,1.135
0.534000,684625,1000.00,12,0,1,1048.935,9.791,4.683,1008.436,1.731,1.153
0.535000,684626,1000.00,12,0,1,1050.760,10.021,4.852,1006.923,0.579,1.149
0.536000,684627,1000.00,12,0,1,1048.166,5.325,4.902,1006.226,-0.622,1.127
0.537000,684628,1000.00,12,0,1,1042.761,-0.221,4.861,1006.058,-0.364,1.115
0.538000,684629,1000.00,12,0,1,1038.053,-4.779,4.719,1006.778,0.105,1.103
0.539000,684630,1000.00,12,0,1,1034.498,-6.361,4.776,1005.289,-0.615,1.100
0.540000,684631,1000.00,12,0,1,1040.960,-0.202,4.684,1004.016,-2.055,1.137
0.541000,684632,1000.00,12,0,1,1038.534,1.943,4.677,1006.538,0.277,1.116
0.542000,684633,1000.00,12,0,1,1036.924,-0.901,4.672,1005.818,0.592,1.081
0.543000,684634,1000.00,12,0,1,1030.655,-2.705,4.619,1005.842,-0.343,1.079
0.544000,684635,1000.00,12,0,1,1027.989,-5.895,4.547,1006.634,1.005,1.078
0.545000,684636,1000.00,12,0,1,1027.508,-3.306,4.447,1007.115,0.947,1.057
0.546000,684637,1000.00,12,0,1,1027.076,-3.193,4.467,1007.619,1.412,1.075
0.547000,684638,1000.00,12,0,1,1032.793,1.781,4.402,1007.043,0.680,1.067
0.548000,684639,1000.00,12,0,1,1042.329,10.054,4.606,1006.562,-0.071,1.058
0.549000,684640,1000.00,12,0,1,1046.965,12.224,4.919,1007.571,0.658,1.025
0.550000,684641,1000.00,12,0,1,1040.023,4.205,4.955,1005.794,-0.542,0.988
0.551000,684642,1000.00,12,0,1,1033.634,-5.534,5.009,1003.896,-2.624,1.055
0.552000,684643,1000.00,12,0,1,1028.277,-10.016,5.198,1006.418,-0.387,1.050
0.553000,684644,1000.00,12,0,1,1027.604,-11.864,5.461,1006.850,0.935,1.053
0.554000,684645,1000.00,12,0,1,1035.867,-3.701,5.485,1006.514,0.001,1.014
0.555000,684646,1000.00,12,0,1,1039.471,0.924,5.470,1003.824,-1.602,1.018
0.556000,684647,1000.00,12,0,1,1038.270,-0.707,5.469,1006.514,-0.355,1.012
0.557000,684648,1000.00,12,0,1,1036.924,-1.421,5.470,1007.619,2.230,1.057
0.558000,684649,1000.00,12,0,1,1036.348,-1.307,5.469,1003.416,-1.963,1.093
0.559000,684650,1000.00,12,0,1,1036.660,0.294,5.466,1003.872,-2.068,1.101
0.560000,684651,1000.00,12,0,1,1037.837,2.480,5.439,1006.586,1.256,1.105
0.561000,684652,1000.00,12,0,1,1033.946,1.036,5.369,1006.322,1.058,1.110
0.562000,684653,1000.00,12,0,1,1032.697,-0.017,5.289,1007.523,1.614,1.129
0.563000,684654,1000.00,12,0,1,1037.044,5.290,5.314,1005.697,0.491,1.128
0.564000,684655,1000.00,12,0,1,1037.213,6.614,5.375,1006.298,-0.106,1.110
0.565000,684656,1000.00,12,0,1,1035.171,4.030,5.374,1008.460,2.301,1.156
0.566000,684657,1000.00,12,0,1,1028.901,-0.984,5.360,1007.139,0.994,1.151
0.567000,684658,1000.00,12,0,1,1029.190,-2.606,5.358,1006.971,0.023,1.151
0.568000,684659,1000.00,12,0,1,1034.426,2.778,5.193,1006.778,0.244,1.148
0.569000,684660,1000.00,12,0,1,1041.728,7.388,5.058,1003.920,-2.375,1.184
0.570000,684661,1000.00,12,0,1,1043.650,8.089,5.085,1007.187,-0.203,1.183
0.571000,684662,1000.00,12,0,1,1037.068,-0.277,5.056,1005.241,-0.099,1.183
0.572000,684663,1000.00,12,0,1,1034.666,-5.277,5.104,1005.265,-1.777,1.209
0.573000,684664,1000.00,12,0,1,1040.359,-0.991,5.100,1006.346,0.588,1.212
0.574000,684665,1000.00,12,0,1,1044.539,2.354,5.101,1007.523,0.930,1.215
0.575000,684666,1000.00,12,0,1,1046.773,3.017,5.105,1007.211,1.166,1.162
0.576000,684667,1000.00,12,0,1,1042.233,-1.020,5.102,1008.460,1.476,1.168
0.577000,684668,1000.00,12,0,1,1035.819,-7.417,5.126,1007.235,0.914,1.169
0.578000,684669,1000.00,12,0,1,1036.900,-5.835,5.113,1006.490,-0.532,1.162
0.579000,684670,1000.00,12,0,1,1040.840,-0.151,5.109,1005.289,-1.150,1.164
0.580000,684671,1000.00,12,0,1,1042.137,2.307,5.118,1007.403,0.164,1.160
0.581000,684672,1000.00,12,0,1,1040.768,2.164,5.126,1007.187,0.834,1.165
0.582000,684673,1000.00,12,0,1,1035.747,-1.213,5.119,1008.148,0.710,1.157
0.583000,684674,1000.00,12,0,1,1035.315,-1.425,5.090,1007.787,0.923,1.165
0.584000,684675,1000.00,12,0,1,1034.138,-0.342,4.899,1006.370,-0.866,1.145
0.585000,684676,1000.00,12,0,1,1030.727,-3.056,4.709,1006.923,-0.590,1.145
0.586000,684677,1000.00,12,0,1,1030.463,-2.876,4.666,1007.763,0.471,1.144
0.587000,684678,1000.00,12,0,1,1031.400,-1.416,4.670,1006.370,-0.839,1.149
0.588000,684679,1000.00,12,0,1,1033.682,0.073,4.621,1006.442,-1.008,1.158
0.589000,684680,1000.00,12,0,1,1033.946,0.225,4.533,1006.562,-0.589,1.157
0.590000,684681,1000.00,12,0,1,1037.597,1.296,4.537,1007.979,0.441,1.122
0.591000,684682,1000.00,12,0,1,1043.770,5.860,4.603,1008.340,1.066,1.131
0.592000,684683,1000.00,12,0,1,1046.196,6.109,4.682,1007.019,-0.314,1.129
0.593000,684684,1000.00,12,0,1,1044.467,2.488,4.680,1006.178,-1.218,1.141
0.594000,684685,1000.00,12,0,1,1042.954,-0.817,4.606,1006.610,-0.678,1.136
0.595000,684686,1000.00,12,0,1,1043.026,-1.579,4.588,1004.424,-2.033,1.164
0.596000,684687,1000.00,12,0,1,1041.416,-2.819,4.583,1007.451,-0.184,1.148
0.597000,684688,1000.00,12,0,1,1041.584,-2.855,4.594,1007.523,1.463,1.162
0.598000,684689,1000.00,12,0,1,1039.158,-3.144,4.391,1007.355,0.052,1.162
0.599000,684690,1000.00,12,0,1,1036.084,-5.186,4.102,1009.156,2.022,1.193
0.600000,684691,1000.00,12,0,1,1036.948,-2.614,4.076,1008.868,1.637,1.213
0.601000,684692,1000.00,12,0,1,1035.843,-1.172,4.003,1006.658,-0.656,1.158
0.602000,684693,1000.00,12,0,1,1034.618,-1.174,3.748,1006.082,-1.384,1.174
0.603000,684694,1000.00,12,0,1,1034.066,0.100,3.352,1005.001,-1.933,1.198
0.604000,684695,1000.00,12,0,1,1039.711,4.992,3.385,1006.298,-0.980,1.206
0.605000,684696,1000.00,12,0,1,1037.789,5.431,3.469,1008.556,1.439,1.202
0.606000,684697,1000.00,12,0,1,1032.961,-0.890,3.469,1007.187,0.495,1.203
0.607000,684698,1000.00,12,0,1,1036.228,1.403,3.469,1007.283,-0.290,1.161
0.608000,684699,1000.00,12,0,1,1040.936,5.252,3.543,1010.141,2.439,1.179
0.609000,684700,1000.00,12,0,1,1041.728,4.413,3.597,1008.772,1.412,1.160
0.610000,684701,1000.00,12,0,1,1041.849,2.385,3.596,1006.899,-1.052,1.156
0.611000,684702,1000.00,12,0,1,1050.208,6.617,3.713,1005.193,-2.177,1.186
0.612000,684703,1000.00,12,0,1,1052.874,8.549,3.905,1006.346,-1.468,1.183
0.613000,684704,1000.00,12,0,1,1043.458,-2.567,3.850,1006.250,-0.536,1.183
0.614000,684705,1000.00,12,0,1,1043.746,-5.401,3.812,1006.490,-0.760,1.188
0.615000,684706,1000.00,12,0,1,1049.847,0.884,3.771,1006.346,-0.261,1.143
0.616000,684707,1000.00,12,0,1,1048.022,-0.503,3.769,1005.986,-0.720,1.139
0.617000,684708,1000.00,12,0,1,1044.034,-4.531,3.805,1004.136,-1.840,1.168
0.618000,684709,1000.00,12,0,1,1037.213,-8.807,3.985,1006.826,-0.041,1.168
0.619000,684710,1000.00,12,0,1,1039.663,-6.562,3.955,1007.019,1.406,1.136
0.620000,684711,1000.00,12,0,1,1038.870,-2.723,3.806,1006.466,0.014,1.136
0.621000,684712,1000.00,12,0,1,1038.294,-3.211,3.833,1006.634,0.485,1.138
0.622000,684713,1000.00,12,0,1,1039.567,0.603,3.760,1006.538,0.266,1.110
0.623000,684714,1000.00,12,0,1,1038.534,0.680,3.759,1004.520,-1.305,1.122
0.624000,684715,1000.00,12,0,1,1029.598,-5.417,3.822,1004.617,-1.504,1.135
0.625000,684716,1000.00,12,0,1,1032.024,-4.563,3.852,1005.914,0.105,1.123
0.626000,684717,1000.00,12,0,1,1028.421,-3.601,3.883,1006.899,1.074,1.114
0.627000,684718,1000.00,12,0,1,1027.340,-6.671,3.856,1007.763,1.643,1.130
0.628000,684719,1000.00,12,0,1,1030.871,-1.731,3.775,1008.220,1.976,1.162
0.629000,684720,1000.00,12,0,1,1038.077,3.441,3.806,1007.163,0.776,1.156
0.630000,684721,1000.00,12,0,1,1040.287,5.393,3.868,1006.586,-0.022,1.155
0.631000,684722,1000.00,12,0,1,1039.951,2.675,3.874,1008.244,1.184,1.161
0.632000,684723,1000.00,12,0,1,1045.139,4.860,3.931,1008.268,1.573,1.178
0.633000,684724,1000.00,12,0,1,1049.799,8.262,4.096,1007.931,0.618,1.174
0.634000,684725,1000.00,12,0,1,1049.944,5.968,4.182,1006.947,-0.005,1.168
0.635000,684726,1000.00,12,0,1,1051.313,5.498,4.231,1006.802,-0.567,1.168
0.636000,684727,1000.00,12,0,1,1050.880,4.187,4.253,1006.010,-0.775,1.171
0.637000,684728,1000.00,12,0,1,1041.897,-3.272,4.274,1007.859,0.296,1.166
0.638000,684729,1000.00,12,0,1,1036.684,-8.681,4.446,1006.610,0.200,1.157
0.639000,684730,1000.00,12,0,1,1035.675,-6.517,4.541,1006.418,-0.997,1.163
0.640000,684731,1000.00,12,0,1,1035.675,-4.620,4.584,1005.770,-0.697,1.165
0.641000,684732,1000.00,12,0,1,1036.204,-1.575,4.514,1004.857,-1.848,1.185
0.642000,684733,1000.00,12,0,1,1040.023,2.928,4.450,1008.700,1.310,1.198
0.643000,684734,1000.00,12,0,1,1035.747,1.745,4.443,1006.370,0.629,1.189
0.644000,684735,1000.00,12,0,1,1030.343,-3.754,4.473,1006.010,-1.587,1.206
0.645000,684736,1000.00,12,0,1,1031.664,-1.722,4.474,1007.115,0.677,1.175
0.646000,684737,1000.00,12,0,1,1034.210,1.335,4.460,1009.685,1.859,1.204
0.647000,684738,1000.00,12,0,1,1036.372,2.607,4.457,1009.373,2.367,1.233
0.648000,684739,1000.00,12,0,1,1038.077,3.325,4.460,1008.100,0.065,1.233
0.649000,684740,1000.00,12,0,1,1041.608,4.274,4.440,1007.979,0.010,1.199
0.650000,684741,1000.00,12,0,1,1044.827,5.672,4.497,1008.844,0.545,1.179
0.651000,684742,1000.00,12,0,1,1044.803,3.312,4.518,1009.036,0.732,1.180
0.652000,684743,1000.00,12,0,1,1042.641,-0.490,4.516,1006.923,-0.989,1.172
0.653000,684744,1000.00,12,0,1,1043.746,-1.487,4.521,1005.697,-2.473,1.192
0.654000,684745,1000.00,12,0,1,1043.050,-1.939,4.474,1006.298,-1.359,1.199
0.655000,684746,1000.00,12,0,1,1043.146,-2.872,4.426,1007.187,-0.418,1.183
0.656000,684747,1000.00,12,0,1,1043.122,-1.906,4.432,1007.859,0.494,1.183
0.657000,684748,1000.00,12,0,1,1041.608,-2.662,4.444,1005.842,-1.035,1.192
0.658000,684749,1000.00,12,0,1,1040.527,-2.454,4.395,1005.938,-1.389,1.158
0.659000,684750,1000.00,12,0,1,1037.861,-2.878,4.369,1007.355,0.428,1.142
0.660000,684751,1000.00,12,0,1,1036.588,-2.755,4.374,1005.289,-1.048,1.142
0.661000,684752,1000.00,12,0,1,1032.384,-3.565,4.302,1003.440,-2.979,1.177
0.662000,684753,1000.00,12,0,1,1027.604,-6.490,4.229,1005.481,-0.952,1.167
0.663000,684754,1000.00,12,0,1,1031.856,-1.272,4.218,1007.691,1.504,1.184
0.664000,684755,1000.00,12,0,1,1032.360,2.102,4.159,1007.979,1.655,1.202
0.665000,684756,1000.00,12,0,1,1034.714,2.972,4.178,1007.739,1.069,1.211
0.666000,684757,1000.00,12,0,1,1032.432,2.534,4.193,1008.580,1.436,1.223
0.667000,684758,1000.00,12,0,1,1029.310,-2.318,4.156,1008.364,1.239,1.208
0.668000,684759,1000.00,12,0,1,1030.391,-1.526,3.971,1007.619,0.155,1.208
0.669000,684760,1000.00,12,0,1,1032.961,-0.028,3.861,1006.802,-0.554,1.194
0.670000,684761,1000.00,12,0,1,1033.201,-0.497,3.843,1006.899,-0.593,1.197
0.671000,684762,1000.00,12,0,1,1037.549,1.405,3.821,1006.202,-0.790,1.201
0.672000,684763,1000.00,12,0,1,1043.410,5.754,3.906,1007.403,-0.035,1.200
0.673000,684764,1000.00,12,0,1,1046.653,7.031,4.029,1008.724,1.638,1.208
0.674000,684765,1000.00,12,0,1,1046.364,5.098,4.021,1006.130,-0.461,1.191
0.675000,684766,1000.00,12,0,1,1041.849,0.267,3.969,1004.088,-2.653,1.249
0.676000,684767,1000.00,12,0,1,1032.865,-7.663,4.083,1006.370,-0.385,1.241
0.677000,684768,1000.00,12,0,1,1036.804,-4.724,4.028,1006.490,0.586,1.221
0.678000,684769,1000.00,12,0,1,1043.602,4.691,4.075,1005.217,-0.856,1.195
0.679000,684770,1000.00,12,0,1,1049.896,10.035,4.287,1006.082,-0.085,1.190
0.680000,684771,1000.00,12,0,1,1047.301,9.378,4.422,1004.400,-0.904,1.197
0.681000,684772,1000.00,12,0,1,1044.707,5.131,4.466,1003.680,-2.091,1.222
0.682000,684773,1000.00,12,0,1,1040.383,2.645,4.428,1006.202,0.526,1.203
0.683000,684774,1000.00,12,0,1,1036.084,-1.693,4.278,1007.763,2.097,1.236
0.684000,684775,1000.00,12,0,1,1027.052,-7.826,4.337,1006.178,0.605,1.239
0.685000,684776,1000.00,12,0,1,1022.368,-12.063,4.596,1007.139,0.583,1.239
0.686000,684777,1000.00,12,0,1,1021.383,-10.540,4.795,1005.337,-0.178,1.235
0.687000,684778,1000.00,12,0,1,1028.061,-4.395,4.813,1005.241,-1.338,1.249
0.688000,684779,1000.00,12,0,1,1032.360,1.009,4.656,1007.523,1.293,1.262
0.689000,684780,1000.00,12,0,1,1034.306,1.174,4.567,1006.010,0.248,1.254
0.690000,684781,1000.00,12,0,1,1038.870,3.553,4.547,1005.770,-0.682,1.254
0.691000,684782,1000.00,12,0,1,1041.656,4.837,4.593,1006.658,0.723,1.231
0.692000,684783,1000.00,12,0,1,1042.329,2.916,4.593,1005.001,-0.650,1.220
0.693000,684784,1000.00,12,0,1,1045.692,4.055,4.622,1004.448,-1.225,1.229
0.694000,684785,1000.00,12,0,1,1048.887,5.418,4.655,1006.178,0.551,1.211
0.695000,684786,1000.00,12,0,1,1053.499,7.750,4.776,1008.124,2.490,1.258
0.696000,684787,1000.00,12,0,1,1044.419,0.558,4.773,1007.931,2.296,1.272
0.697000,684788,1000.00,12,0,1,1038.846,-7.047,4.862,1004.569,-0.762,1.232
0.698000,684789,1000.00,12,0,1,1037.405,-5.257,4.896,1005.097,-1.089,1.241
0.699000,684790,1000.00,12,0,1,1036.708,-4.629,4.903,1007.043,1.385,1.257
0.700000,684791,1000.00,12,0,1,1036.948,-1.864,4.844,1006.923,1.053,1.263
0.701000,684792,1000.00,12,0,1,1035.531,-0.992,4.823,1007.643,1.235,1.271
0.702000,684793,1000.00,12,0,1,1033.153,-1.646,4.828,1006.730,0.582,1.266
0.703000,684794,1000.00,12,0,1,1033.465,-0.017,4.824,1005.409,-1.184,1.228
0.704000,684795,1000.00,12,0,1,1037.405,3.982,4.849,1006.202,-0.520,1.215
0.705000,684796,1000.00,12,0,1,1032.745,1.569,4.837,1007.667,0.778,1.219
0.706000,684797,1000.00,12,0,1,1028.709,-4.140,4.864,1007.955,1.001,1.225
0.707000,684798,1000.00,12,0,1,1033.081,-0.162,4.850,1005.842,-0.937,1.223
0.708000,684799,1000.00,12,0,1,1036.468,2.511,4.850,1005.890,-1.425,1.224
0.709000,684800,1000.00,12,0,1,1038.750,2.683,4.848,1007.355,0.333,1.224
0.710000,684801,1000.00,12,0,1,1042.425,3.975,4.865,1007.643,0.606,1.218
0.711000,684802,1000.00,12,0,1,1044.851,4.103,4.874,1005.217,-1.284,1.157
0.712000,684803,1000.00,12,0,1,1046.965,3.571,4.813,1006.370,-0.910,1.156
0.713000,684804,1000.00,12,0,1,1043.986,-0.206,4.810,1006.442,0.286,1.137
0.714000,684805,1000.00,12,0,1,1035.363,-8.816,4.960,1005.049,-1.311,1.128
0.715000,684806,1000.00,12,0,1,1034.642,-10.161,5.147,1008.532,1.507,1.138
0.716000,684807,1000.00,12,0,1,1036.924,-5.412,5.191,1006.514,1.062,1.130
0.717000,684808,1000.00,12,0,1,1033.994,-6.073,5.251,1007.331,-0.099,1.116
0.718000,684809,1000.00,12,0,1,1034.811,-4.104,5.279,1005.337,-0.065,1.116
0.719000,684810,1000.00,12,0,1,1033.201,-2.039,5.287,1004.496,-2.354,1.162
0.720000,684811,1000.00,12,0,1,1031.400,-2.438,5.297,1007.163,0.874,1.165
0.721000,684812,1000.00,12,0,1,1034.714,2.579,5.306,1007.955,1.582,1.181
0.722000,684813,1000.00,12,0,1,1030.967,2.015,5.251,1007.691,0.904,1.188
0.723000,684814,1000.00,12,0,1,1029.718,0.276,5.156,1006.995,0.230,1.166
0.724000,684815,1000.00,12,0,1,1031.424,3.603,5.131,1006.538,-0.649,1.168
0.725000,684816,1000.00,12,0,1,1029.622,2.072,5.139,1005.169,-1.452,1.125
0.726000,684817,1000.00,12,0,1,1031.328,2.542,5.037,1005.818,-1.430,1.142
0.727000,684818,1000.00,12,0,1,1035.627,5.831,5.060,1006.418,-0.094,1.139
0.728000,684819,1000.00,12,0,1,1044.395,10.937,5.249,1006.298,-0.503,1.134
0.729000,684820,1000.00,12,0,1,1044.971,10.488,5.267,1006.370,-0.173,1.135
0.730000,684821,1000.00,12,0,1,1044.034,4.748,5.141,1007.571,0.698,1.132
0.731000,684822,1000.00,12,0,1,1042.906,2.170,5.099,1007.403,0.919,1.100
0.732000,684823,1000.00,12,0,1,1037.357,-4.761,5.130,1006.442,-0.211,1.098
0.733000,684824,1000.00,12,0,1,1035.940,-7.532,5.234,1005.842,-0.636,1.061
0.734000,684825,1000.00,12,0,1,1039.302,-4.014,5.147,1007.187,0.467,1.060
0.735000,684826,1000.00,12,0,1,1035.771,-5.650,4.921,1006.322,0.297,1.057
0.736000,684827,1000.00,12,0,1,1035.915,-5.892,4.763,1007.019,0.233,1.057
0.737000,684828,1000.00,12,0,1,1038.029,-1.466,4.727,1006.034,0.149,1.041
0.738000,684829,1000.00,12,0,1,1034.426,-2.816,4.742,1005.529,-0.946,1.033
0.739000,684830,1000.00,12,0,1,1031.856,-3.985,4.772,1005.577,-0.411,1.034
0.740000,684831,1000.00,12,0,1,1031.087,-2.096,4.755,1005.529,-0.522,1.032
0.741000,684832,1000.00,12,0,1,1031.688,-0.064,4.705,1006.442,0.239,1.028
0.742000,684833,1000.00,12,0,1,1036.948,5.776,4.758,1007.979,1.618,1.049
0.743000,684834,1000.00,12,0,1,1037.885,7.891,4.853,1006.250,0.187,1.035
0.744000,684835,1000.00,12,0,1,1037.525,6.236,4.873,1005.818,-0.908,1.040
0.745000,684836,1000.00,12,0,1,1043.914,10.306,4.967,1005.818,-0.504,0.981
0.746000,684837,1000.00,12,0,1,1038.798,6.177,5.042,1004.881,-1.345,0.945
0.747000,684838,1000.00,12,0,1,1043.962,4.879,4.991,1007.451,0.531,0.942
0.748000,684839,1000.00,12,0,1,1040.912,4.369,4.974,1006.298,0.618,0.933
0.749000,684840,1000.00,12,0,1,1036.732,-4.834,4.977,1005.842,-0.978,0.923
0.750000,684841,1000.00,12,0,1,1047.205,3.192,4.991,1007.283,0.997,0.922
0.751000,684842,1000.00,12,0,1,1046.268,3.008,5.007,1006.250,0.104,0.905
0.752000,684843,1000.00,12,0,1,1033.513,-11.028,5.239,1007.475,0.674,0.906
0.753000,684844,1000.00,12,0,1,1025.370,-18.191,5.837,1007.811,1.599,0.919
0.754000,684845,1000.00,12,0,1,1029.238,-13.948,6.135,1006.082,-0.337,0.917
0.755000,684846,1000.00,12,0,1,1033.826,-5.933,6.188,1006.778,0.079,0.911
0.756000,684847,1000.00,12,0,1,1038.510,-1.164,6.163,1007.019,0.694,0.905
0.757000,684848,1000.00,12,0,1,1037.357,0.717,6.164,1007.595,0.803,0.903
0.758000,684849,1000.00,12,0,1,1038.606,1.162,6.156,1006.394,0.135,0.880
0.759000,684850,1000.00,12,0,1,1036.396,2.157,6.151,1005.649,-1.077,0.892
0.760000,684851,1000.00,12,0,1,1032.529,-1.279,6.128,1007.091,0.334,0.889
0.761000,684852,1000.00,12,0,1,1030.102,-1.577,6.105,1007.091,0.572,0.874
0.762000,684853,1000.00,12,0,1,1028.349,-1.785,6.089,1007.091,0.090,0.864
0.763000,684854,1000.00,12,0,1,1027.316,-1.503,6.093,1007.883,0.795,0.871
0.764000,684855,1000.00,12,0,1,1027.508,-0.282,5.964,1008.100,0.761,0.858
0.765000,684856,1000.00,12,0,1,1026.956,-0.303,5.788,1007.115,-0.204,0.831
0.766000,684857,1000.00,12,0,1,1023.569,-2.731,5.751,1007.211,-0.551,0.821
0.767000,684858,1000.00,12,0,1,1029.526,0.697,5.687,1008.436,0.609,0.826
0.768000,684859,1000.00,12,0,1,1032.505,4.955,5.701,1007.931,0.244,0.826
0.769000,684860,1000.00,12,0,1,1034.162,3.343,5.713,1006.850,-0.988,0.769
0.770000,684861,1000.00,12,0,1,1041.560,8.447,5.826,1006.875,-0.929,0.770
0.771000,684862,1000.00,12,0,1,1046.076,10.737,6.010,1006.082,-1.265,0.759
0.772000,684863,1000.00,12,0,1,1043.362,6.000,6.063,1005.722,-1.586,0.781
0.773000,684864,1000.00,12,0,1,1043.482,3.204,6.079,1006.923,-0.247,0.781
0.774000,684865,1000.00,12,0,1,1044.563,3.512,6.078,1007.787,0.819,0.784
0.775000,684866,1000.00,12,0,1,1039.759,-0.953,6.073,1007.235,0.374,0.758
0.776000,684867,1000.00,12,0,1,1034.666,-5.910,6.120,1009.925,2.123,0.790
0.777000,684868,1000.00,12,0,1,1033.345,-5.657,6.116,1007.859,1.264,0.810
0.778000,684869,1000.00,12,0,1,1030.583,-5.848,5.975,1006.058,-1.700,0.842
0.779000,684870,1000.00,12,0,1,1028.901,-5.579,5.841,1005.986,-1.060,0.855
0.780000,684871,1000.00,12,0,1,1029.742,-2.581,5.814,1006.514,-0.781,0.856
0.781000,684872,1000.00,12,0,1,1030.030,-0.265,5.806,1007.259,0.143,0.847
0.782000,684873,1000.00,12,0,1,1030.991,1.518,5.771,1006.490,-0.394,0.848
0.783000,684874,1000.00,12,0,1,1032.793,3.874,5.698,1006.658,-0.656,0.848
0.784000,684875,1000.00,12,0,1,1031.400,2.887,5.685,1006.778,-0.114,0.846
0.785000,684876,1000.00,12,0,1,1025.611,-2.464,5.639,1006.610,-0.560,0.848
0.786000,684877,1000.00,12,0,1,1027.893,-2.108,5.585,1007.043,-0.017,0.848
0.787000,684878,1000.00,12,0,1,1032.985,3.069,5.598,1006.298,-0.575,0.851
0.788000,684879,1000.00,12,0,1,1035.435,3.666,5.608,1006.202,-0.802,0.849
0.789000,684880,1000.00,12,0,1,1034.306,1.437,5.583,1009.132,1.660,0.878
0.790000,684881,1000.00,12,0,1,1031.880,-2.519,5.587,1008.628,1.851,0.914
0.791000,684882,1000.00,12,0,1,1034.522,-1.706,5.592,1005.914,-1.215,0.929
0.792000,684883,1000.00,12,0,1,1039.855,2.694,5.545,1007.091,-0.405,0.902
0.793000,684884,1000.00,12,0,1,1041.224,3.293,5.451,1007.187,0.452,0.904
0.794000,684885,1000.00,12,0,1,1043.938,4.160,5.412,1007.283,0.041,0.895
0.795000,684886,1000.00,12,0,1,1035.123,-2.094,5.220,1006.899,0.209,0.893
0.796000,684887,1000.00,12,0,1,1029.238,-9.159,5.307,1006.442,-0.485,0.875
0.797000,684888,1000.00,12,0,1,1030.823,-4.896,5.307,1007.259,0.372,0.873
0.798000,684889,1000.00,12,0,1,1034.714,0.162,5.271,1007.811,0.959,0.879
0.799000,684890,1000.00,12,0,1,1037.189,4.277,5.262,1007.403,0.491,0.871
0.800000,684891,1000.00,12,0,1,1037.477,5.290,5.295,1006.923,-0.068,0.860
0.801000,684892,1000.00,12,0,1,1030.871,0.569,5.279,1007.643,0.335,0.861
0.802000,684893,1000.00,12,0,1,1025.707,-4.195,5.078,1007.283,0.268,0.856
0.803000,684894,1000.00,12,0,1,1028.349,-1.130,4.381,1008.172,0.430,0.828
0.804000,684895,1000.00,12,0,1,1037.621,7.439,4.051,1007.403,0.253,0.828
0.805000,684896,1000.00,12,0,1,1048.598,16.024,4.565,1007.763,-0.267,0.828
0.806000,684897,1000.00,12,0,1,1055.180,19.404,5.324,1008.172,0.551,0.826
0.807000,684898,1000.00,12,0,1,1055.204,15.180,5.740,1007.547,-0.326,0.820
0.808000,684899,1000.00,12,0,1,1037.645,-2.401,5.747,1005.457,-1.933,0.864
0.809000,684900,1000.00,12,0,1,1024.842,-18.640,6.316,1006.923,-1.106,0.865
0.810000,684901,1000.00,12,0,1,1032.889,-11.277,6.511,1008.244,0.909,0.873
0.811000,684902,1000.00,12,0,1,1038.870,-3.575,6.527,1008.820,1.045,0.882
0.812000,684903,1000.00,12,0,1,1038.534,-4.600,6.555,1008.003,0.517,0.885
0.813000,684904,1000.00,12,0,1,1034.787,-7.204,6.630,1008.124,0.174,0.878
0.814000,684905,1000.00,12,0,1,1039.158,-4.393,6.659,1008.652,0.809,0.879
0.815000,684906,1000.00,12,0,1,1045.067,3.094,6.673,1008.364,0.520,0.881
0.816000,684907,1000.00,12,0,1,1047.493,4.887,6.698,1006.370,-1.199,0.894
0.817000,684908,1000.00,12,0,1,1040.696,0.191,6.697,1005.049,-2.397,0.952
0.818000,684909,1000.00,12,0,1,1034.162,-6.275,6.719,1006.899,-0.713,0.957
0.819000,684910,1000.00,12,0,1,1033.537,-4.968,6.739,1006.802,0.089,0.947
0.820000,684911,1000.00,12,0,1,1033.393,-2.884,6.645,1009.012,1.099,0.950
0.821000,684912,1000.00,12,0,1,1025.683,-7.247,6.550,1006.010,-0.157,0.934
0.822000,684913,1000.00,12,0,1,1027.316,-5.956,6.549,1006.298,-1.760,0.940
0.823000,684914,1000.00,12,0,1,1032.000,1.346,6.536,1009.060,1.899,0.977
0.824000,684915,1000.00,12,0,1,1032.336,1.901,6.523,1009.925,2.102,1.014
0.825000,684916,1000.00,12,0,1,1028.589,-1.225,6.524,1009.733,1.669,1.040
0.826000,684917,1000.00,12,0,1,1028.949,-1.989,6.476,1007.643,-0.341,0.997
0.827000,684918,1000.00,12,0,1,1034.498,2.591,6.437,1006.442,-1.963,1.019
0.828000,684919,1000.00,12,0,1,1035.964,3.765,6.406,1007.283,-0.846,0.998
0.829000,684920,1000.00,12,0,1,1035.915,1.446,6.360,1009.325,0.834,0.994
0.830000,684921,1000.00,12,0,1,1036.084,0.836,6.351,1006.730,-0.578,0.991
0.831000,684922,1000.00,12,0,1,1039.831,2.143,6.358,1006.202,-2.169,1.037
0.832000,684923,1000.00,12,0,1,1047.229,7.890,6.451,1006.778,-0.493,1.038
0.833000,684924,1000.00,12,0,1,1047.109,7.160,6.507,1007.523,-0.156,1.034
0.834000,684925,1000.00,12,0,1,1044.563,2.686,6.506,1009.301,1.711,1.062
0.835000,684926,1000.00,12,0,1,1039.639,-1.387,6.499,1008.172,0.952,1.067
0.836000,684927,1000.00,12,0,1,1031.207,-8.431,6.601,1005.818,-1.539,1.089
0.837000,684928,1000.00,12,0,1,1032.505,-6.795,6.656,1004.929,-2.097,1.126
0.838000,684929,1000.00,12,0,1,1032.240,-2.995,6.650,1005.818,-1.160,1.132
0.839000,684930,1000.00,12,0,1,1028.421,-5.276,6.688,1005.505,-0.723,1.112
0.840000,684931,1000.00,12,0,1,1027.148,-4.190,6.705,1008.532,1.243,1.095
0.841000,684932,1000.00,12,0,1,1026.355,-2.830,6.713,1008.340,2.170,1.124
0.842000,684933,1000.00,12,0,1,1028.877,0.395,6.702,1006.178,-0.811,1.129
0.843000,684934,1000.00,12,0,1,1029.070,2.309,6.694,1007.571,0.293,1.128
0.844000,684935,1000.00,12,0,1,1022.752,-3.036,6.682,1008.820,1.639,1.151
0.845000,684936,1000.00,12,0,1,1018.212,-7.234,6.753,1007.259,0.090,1.151
0.846000,684937,1000.00,12,0,1,1016.291,-7.909,6.721,1007.763,-0.035,1.149
0.847000,684938,1000.00,12,0,1,1016.171,-7.359,6.766,1008.364,0.817,1.154
0.848000,684939,1000.00,12,0,1,1017.323,-5.536,6.811,1008.604,0.717,1.150
0.849000,684940,1000.00,12,0,1,1017.684,-4.616,6.816,1005.746,-1.395,1.165
0.850000,684941,1000.00,12,0,1,1026.475,2.038,6.781,1005.914,-1.962,1.197
0.851000,684942,1000.00,12,0,1,1037.117,11.942,6.987,1007.835,0.586,1.199
0.852000,684943,1000.00,12,0,1,1046.869,17.902,7.408,1008.292,1.036,1.208
0.853000,684944,1000.00,12,0,1,1050.832,19.506,7.904,1008.604,1.135,1.217
0.854000,684945,1000.00,12,0,1,1043.554,10.377,7.969,1008.844,1.352,1.231
0.855000,684946,1000.00,12,0,1,1035.603,0.622,7.641,1008.556,0.844,1.236
0.856000,684947,1000.00,12,0,1,1038.197,2.080,7.137,1006.058,-1.098,1.243
0.857000,684948,1000.00,12,0,1,1038.726,4.337,6.834,1007.331,-0.801,1.248
0.858000,684949,1000.00,12,0,1,1037.669,2.972,6.839,1006.130,-0.491,1.219
0.859000,684950,1000.00,12,0,1,1033.225,0.590,6.311,1006.298,-1.441,1.226
0.860000,684951,1000.00,12,0,1,1036.588,2.569,6.117,1008.892,1.547,1.239
0.861000,684952,1000.00,12,0,1,1032.432,2.219,6.104,1007.259,0.300,1.231
0.862000,684953,1000.00,12,0,1,1032.312,-0.326,6.069,1006.778,-0.990,1.237
0.863000,684954,1000.00,12,0,1,1033.898,3.151,6.000,1008.676,1.005,1.245
0.864000,684955,1000.00,12,0,1,1028.181,-2.291,5.976,1009.132,1.271,1.252
0.865000,684956,1000.00,12,0,1,1019.221,-10.485,6.142,1009.949,1.543,1.269
0.866000,684957,1000.00,12,0,1,1021.671,-9.101,6.237,1008.124,0.078,1.258
0.867000,684958,1000.00,12,0,1,1025.707,-3.835,6.261,1007.331,-1.375,1.227
0.868000,684959,1000.00,12,0,1,1034.474,2.149,6.205,1006.418,-1.562,1.242
0.869000,684960,1000.00,12,0,1,1043.698,9.576,6.312,1007.283,-1.146,1.253
0.870000,684961,1000.00,12,0,1,1038.750,3.933,6.323,1006.178,-1.130,1.253
0.871000,684962,1000.00,12,0,1,1034.522,-4.115,6.267,1008.940,0.404,1.255
0.872000,684963,1000.00,12,0,1,1038.462,-1.038,6.212,1008.604,1.543,1.249
0.873000,684964,1000.00,12,0,1,1035.435,-3.325,6.227,1008.364,0.105,1.220
0.874000,684965,1000.00,12,0,1,1036.780,-3.709,6.243,1007.571,0.171,1.183
0.875000,684966,1000.00,12,0,1,1038.101,-0.535,6.241,1007.787,-0.232,1.160
0.876000,684967,1000.00,12,0,1,1042.569,2.656,6.246,1007.499,0.019,1.159
0.877000,684968,1000.00,12,0,1,1044.323,6.133,6.295,1008.412,0.446,1.127
0.878000,684969,1000.00,12,0,1,1034.787,-1.525,6.276,1008.340,0.687,1.125
0.879000,684970,1000.00,12,0,1,1030.823,-5.597,6.323,1008.244,0.258,1.119
0.880000,684971,1000.00,12,0,1,1037.477,2.443,6.331,1008.652,0.478,1.118
0.881000,684972,1000.00,12,0,1,1042.113,8.084,6.426,1006.298,-1.214,1.089
0.882000,684973,1000.00,12,0,1,1040.263,6.604,6.397,1007.691,-1.034,1.096
0.883000,684974,1000.00,12,0,1,1035.915,1.808,6.322,1008.652,0.985,1.105
0.884000,684975,1000.00,12,0,1,1030.175,-3.370,6.328,1008.892,0.301,1.079
0.885000,684976,1000.00,12,0,1,1028.541,-5.680,6.376,1008.412,0.303,1.072
0.886000,684977,1000.00,12,0,1,1027.893,-5.433,6.311,1006.178,-1.927,1.084
0.887000,684978,1000.00,12,0,1,1034.234,-1.421,6.240,1004.953,-2.942,1.123
0.888000,684979,1000.00,12,0,1,1040.071,4.151,6.253,1005.457,-2.056,1.148
0.889000,684980,1000.00,12,0,1,1035.171,-1.526,6.212,1007.739,0.180,1.144
0.890000,684981,1000.00,12,0,1,1037.117,-3.229,6.201,1008.412,1.390,1.147
0.891000,684982,1000.00,12,0,1,1043.602,2.676,6.200,1007.211,0.058,1.105
0.892000,684983,1000.00,12,0,1,1040.191,-1.007,6.201,1007.379,0.106,1.099
0.893000,684984,1000.00,12,0,1,1035.387,-6.791,6.266,1009.469,1.887,1.131
0.894000,684985,1000.00,12,0,1,1036.516,-5.582,6.301,1008.748,1.639,1.131
0.895000,684986,1000.00,12,0,1,1038.366,-2.503,6.228,1006.298,-1.020,1.140
0.896000,684987,1000.00,12,0,1,1041.248,0.688,6.127,1008.652,0.592,1.143
0.897000,684988,1000.00,12,0,1,1036.228,-1.307,6.041,1007.043,0.377,1.138
0.898000,684989,1000.00,12,0,1,1026.187,-9.381,6.135,1007.595,-0.571,1.137
0.899000,684990,1000.00,12,0,1,1025.707,-8.145,6.208,1009.108,1.755,1.146
0.900000,684991,1000.00,12,0,1,1026.716,-3.150,6.218,1009.108,1.130,1.124
0.901000,684992,1000.00,12,0,1,1030.727,1.438,5.987,1010.261,1.837,1.150
0.902000,684993,1000.00,12,0,1,1031.544,4.884,5.469,1007.283,-0.396,1.142
0.903000,684994,1000.00,12,0,1,1031.280,3.899,4.755,1007.931,-1.243,1.145
0.904000,684995,1000.00,12,0,1,1023.833,-1.105,4.526,1008.652,0.627,1.132
0.905000,684996,1000.00,12,0,1,1026.595,-1.466,4.529,1007.739,-0.896,1.133
0.906000,684997,1000.00,12,0,1,1032.601,5.688,4.591,1009.253,0.454,1.124
0.907000,684998,1000.00,12,0,1,1036.012,6.496,4.642,1008.844,0.444,1.120
0.908000,684999,1000.00,12,0,1,1036.876,5.768,4.694,1008.724,-0.278,1.119
0.909000,685000,1000.00,12,0,1,1038.029,4.124,4.729,1008.820,0.165,1.100
0.910000,685001,1000.00,12,0,1,1040.527,4.137,4.751,1010.117,0.804,1.084
0.911000,685002,1000.00,12,0,1,1040.047,2.453,4.754,1008.940,0.369,1.085
0.912000,685003,1000.00,12,0,1,1042.641,1.954,4.762,1008.844,-0.598,1.079
0.913000,685004,1000.00,12,0,1,1049.823,7.569,4.860,1008.892,0.061,1.069
0.914000,685005,1000.00,12,0,1,1055.420,10.938,5.090,1008.052,-0.909,1.062
0.915000,685006,1000.00,12,0,1,1053.210,8.152,5.004,1007.259,-1.418,1.059
0.916000,685007,1000.00,12,0,1,1040.792,-3.673,4.863,1006.370,-1.945,1.094
0.917000,685008,1000.00,12,0,1,1029.790,-13.476,5.195,1005.625,-2.359,1.127
0.918000,685009,1000.00,12,0,1,1027.989,-12.778,5.492,1006.490,-1.298,1.120
0.919000,685010,1000.00,12,0,1,1029.262,-7.885,5.438,1008.003,0.344,1.109
0.920000,685011,1000.00,12,0,1,1028.998,-5.186,5.459,1006.322,-0.606,1.101
0.921000,685012,1000.00,12,0,1,1029.982,-2.363,5.438,1006.850,-0.894,1.107
0.922000,685013,1000.00,12,0,1,1033.081,1.878,5.443,1006.226,-0.403,1.087
0.923000,685014,1000.00,12,0,1,1033.321,3.096,5.440,1007.115,-0.426,1.088
0.924000,685015,1000.00,12,0,1,1036.804,4.891,5.459,1007.163,0.514,1.090
0.925000,685016,1000.00,12,0,1,1038.101,6.085,5.526,1009.277,1.455,1.109
0.926000,685017,1000.00,12,0,1,1039.471,4.564,5.550,1008.460,1.611,1.132
0.927000,685018,1000.00,12,0,1,1038.173,2.379,5.493,1006.250,-1.203,1.143
0.928000,685019,1000.00,12,0,1,1047.133,5.974,5.553,1009.685,1.425,1.157
0.929000,685020,1000.00,12,0,1,1051.457,9.815,5.669,1007.379,0.832,1.162
0.930000,685021,1000.00,12,0,1,1051.289,5.009,5.702,1009.229,0.293,1.161
0.931000,685022,1000.00,12,0,1,1045.091,-1.585,5.591,1008.076,1.412,1.165
0.932000,685023,1000.00,12,0,1,1036.972,-10.882,5.723,1005.986,-2.080,1.193
0.933000,685024,1000.00,12,0,1,1044.539,-5.522,5.771,1005.409,-1.484,1.203
0.934000,685025,1000.00,12,0,1,1048.767,1.660,5.756,1005.553,-1.464,1.220
0.935000,685026,1000.00,12,0,1,1052.153,2.532,5.711,1008.292,1.183,1.231
0.936000,685027,1000.00,12,0,1,1056.093,7.549,5.759,1007.331,1.195,1.212
0.937000,685028,1000.00,12,0,1,1047.373,0.308,5.755,1005.001,-1.655,1.162
0.938000,685029,1000.00,12,0,1,1033.177,-11.872,5.966,1005.529,-0.839,1.132
0.939000,685030,1000.00,12,0,1,1030.151,-13.278,6.251,1005.697,-0.413,1.133
0.940000,685031,1000.00,12,0,1,1038.678,-2.566,6.245,1008.100,1.444,1.134
0.941000,685032,1000.00,12,0,1,1044.155,5.233,6.277,1008.220,2.044,1.170
0.942000,685033,1000.00,12,0,1,1045.596,6.241,6.337,1005.481,-0.869,1.177
0.943000,685034,1000.00,12,0,1,1035.915,-1.169,6.266,1006.658,-0.430,1.148
0.944000,685035,1000.00,12,0,1,1032.192,-7.234,6.300,1006.346,0.192,1.124
0.945000,685036,1000.00,12,0,1,1035.435,-2.782,6.302,1006.442,-0.526,1.118
0.946000,685037,1000.00,12,0,1,1036.588,-2.161,6.309,1008.940,1.934,1.148
0.947000,685038,1000.00,12,0,1,1044.371,2.799,6.319,1007.475,0.934,1.154
0.948000,685039,1000.00,12,0,1,1049.968,7.474,6.268,1007.499,-0.043,1.151
0.949000,685040,1000.00,12,0,1,1046.340,1.694,6.166,1007.883,0.910,1.131
0.950000,685041,1000.00,12,0,1,1043.554,-3.286,6.167,1007.499,0.156,1.120
0.951000,685042,1000.00,12,0,1,1046.413,-2.138,6.171,1009.084,1.445,1.109
0.952000,685043,1000.00,12,0,1,1047.085,-1.279,6.135,1008.700,1.425,1.125
0.953000,685044,1000.00,12,0,1,1042.161,-5.809,6.165,1007.475,-0.175,1.112
0.954000,685045,1000.00,12,0,1,1040.551,-7.208,6.247,1006.226,-1.023,1.118
0.955000,685046,1000.00,12,0,1,1045.308,-1.586,6.248,1007.283,-0.409,1.112
0.956000,685047,1000.00,12,0,1,1047.926,2.791,6.208,1008.340,1.094,1.121
0.957000,685048,1000.00,12,0,1,1048.719,4.030,6.166,1007.451,0.162,1.119
0.958000,685049,1000.00,12,0,1,1046.917,3.730,6.135,1007.355,-0.200,1.119
0.959000,685050,1000.00,12,0,1,1044.659,2.087,6.114,1008.484,0.793,1.124
0.960000,685051,1000.00,12,0,1,1040.720,0.024,6.086,1008.820,1.024,1.128
0.961000,685052,1000.00,12,0,1,1041.152,0.397,6.076,1008.676,0.580,1.130
0.962000,685053,1000.00,12,0,1,1042.473,3.033,6.085,1007.115,-0.840,1.133
0.963000,685054,1000.00,12,0,1,1042.473,2.713,6.003,1008.316,-0.431,1.134
0.964000,685055,1000.00,12,0,1,1043.122,2.682,5.812,1007.979,-0.026,1.127
0.965000,685056,1000.00,12,0,1,1046.004,3.981,5.724,1006.538,-1.827,1.139
0.966000,685057,1000.00,12,0,1,1047.974,4.366,5.734,1007.811,-0.723,1.110
0.967000,685058,1000.00,12,0,1,1053.138,6.109,5.477,1006.298,-1.270,1.074
0.968000,685059,1000.00,12,0,1,1055.973,6.854,5.260,1005.938,-2.234,1.104
0.969000,685060,1000.00,12,0,1,1056.045,3.664,5.167,1007.643,-0.000,1.103
0.970000,685061,1000.00,12,0,1,1056.645,1.615,5.119,1007.091,-0.211,1.100
0.971000,685062,1000.00,12,0,1,1051.097,-4.198,5.143,1007.259,-0.281,1.093
0.972000,685063,1000.00,12,0,1,1056.477,-2.898,5.152,1007.811,0.569,1.095
0.973000,685064,1000.00,12,0,1,1059.408,2.104,5.142,1009.445,1.701,1.119
0.974000,685065,1000.00,12,0,1,1060.032,0.265,5.096,1007.523,0.637,1.121
0.975000,685066,1000.00,12,0,1,1050.448,-5.666,5.086,1007.883,-0.179,1.102
0.976000,685067,1000.00,12,0,1,1047.878,-9.889,5.235,1008.772,1.403,1.096
0.977000,685068,1000.00,12,0,1,1050.520,-3.564,5.249,1006.730,-0.610,1.086
0.978000,685069,1000.00,12,0,1,1050.688,-1.927,5.187,1006.442,-1.214,1.081
0.979000,685070,1000.00,12,0,1,1051.289,0.008,4.998,1008.124,0.577,1.078
0.980000,685071,1000.00,12,0,1,1057.822,6.351,5.029,1006.322,-0.622,1.081
0.981000,685072,1000.00,12,0,1,1060.513,9.582,5.203,1006.058,-1.472,1.082
0.982000,685073,1000.00,12,0,1,1058.663,6.759,5.061,1008.244,0.785,1.047
0.983000,685074,1000.00,12,0,1,1052.730,0.468,5.001,1008.532,1.233,1.041
0.984000,685075,1000.00,12,0,1,1049.439,-3.890,5.026,1007.067,-0.389,1.022
0.985000,685076,1000.00,12,0,1,1052.850,-1.881,5.020,1007.955,0.024,1.008
0.986000,685077,1000.00,12,0,1,1058.951,2.951,4.923,1006.562,-0.600,0.997
0.987000,685078,1000.00,12,0,1,1064.572,5.768,4.990,1005.625,-1.971,1.009
0.988000,685079,1000.00,12,0,1,1065.101,4.463,4.741,1006.082,-1.046,1.012
0.989000,685080,1000.00,12,0,1,1066.542,1.972,4.363,1007.211,0.031,1.011
0.990000,685081,1000.00,12,0,1,1065.413,-0.093,4.347,1007.019,0.253,0.991
0.991000,685082,1000.00,12,0,1,1058.663,-7.825,4.425,1007.547,0.434,0.949
0.992000,685083,1000.00,12,0,1,1060.657,-7.693,4.470,1009.661,2.296,0.996
0.993000,685084,1000.00,12,0,1,1064.668,-2.465,4.481,1006.322,0.021,0.994
0.994000,685085,1000.00,12,0,1,1061.714,-4.548,4.409,1006.226,-1.464,1.015
0.995000,685086,1000.00,12,0,1,1058.447,-6.947,4.500,1007.955,1.226,1.027
0.996000,685087,1000.00,12,0,1,1063.852,-1.494,4.495,1007.211,0.312,0.991
0.997000,685088,1000.00,12,0,1,1067.262,4.102,4.515,1008.364,1.012,0.992
0.998000,685089,1000.00,12,0,1,1062.867,0.830,4.391,1008.964,1.822,1.025
0.999000,685090,1000.00,12,0,1,1065.101,2.102,4.395,1007.739,0.345,1.018
1.000000,685091,1000.00,12,0,1,1072.499,9.694,4.580,1006.899,-0.565,1.021
1.001000,685092,1000.00,12,0,1,1065.893,4.819,4.621,1008.772,0.712,1.006
1.002000,685093,1000.00,12,0,1,1058.399,-4.307,4.657,1008.412,0.963,0.995
1.003000,685094,1000.00,12,0,1,1052.538,-8.194,4.728,1009.613,0.927,1.003
1.004000,685095,1000.00,12,0,1,1051.000,-9.972,4.828,1008.868,0.958,1.002
1.005000,685096,1000.00,12,0,1,1055.084,-5.307,4.880,1011.583,1.814,1.032
1.006000,685097,1000.00,12,0,1,1056.357,-3.468,4.889,1009.445,1.225,1.035
1.007000,685098,1000.00,12,0,1,1056.309,-4.485,4.897,1008.244,-1.683,1.062
1.008000,685099,1000.00,12,0,1,1057.942,-3.446,4.893,1009.205,-0.055,1.062
1.009000,685100,1000.00,12,0,1,1059.576,-2.722,4.899,1008.676,-0.625,1.059
1.010000,685101,1000.00,12,0,1,1059.504,-3.097,4.919,1008.364,-1.047,1.060
1.011000,685102,1000.00,12,0,1,1061.546,-2.337,4.929,1007.739,-1.161,1.069
1.012000,685103,1000.00,12,0,1,1064.812,0.740,4.912,1008.796,-0.638,1.067
1.013000,685104,1000.00,12,0,1,1066.109,1.678,4.902,1008.604,0.067,1.065
1.014000,685105,1000.00,12,0,1,1058.687,-3.805,4.917,1009.012,-0.293,1.066
1.015000,685106,1000.00,12,0,1,1055.781,-7.128,4.988,1009.541,0.760,1.040
1.016000,685107,1000.00,12,0,1,1052.610,-6.309,5.029,1008.652,-0.322,1.035
1.017000,685108,1000.00,12,0,1,1055.949,-2.935,4.972,1006.706,-1.831,1.052
1.018000,685109,1000.00,12,0,1,1058.207,2.975,4.895,1008.796,-0.522,1.006
1.019000,685110,1000.00,12,0,1,1058.423,3.540,4.893,1008.820,0.571,1.010
1.020000,685111,1000.00,12,0,1,1056.285,3.300,4.910,1008.003,-0.893,1.017
1.021000,685112,1000.00,12,0,1,1052.562,0.465,4.874,1008.220,-0.437,1.018
1.022000,685113,1000.00,12,0,1,1053.907,1.600,4.862,1008.940,0.098,1.015
1.023000,685114,1000.00,12,0,1,1052.658,2.143,4.862,1008.964,0.197,0.986
1.024000,685115,1000.00,12,0,1,1049.415,-1.763,4.869,1008.172,-0.541,0.985
1.025000,685116,1000.00,12,0,1,1051.193,-0.339,4.803,1007.523,-1.237,1.000
1.026000,685117,1000.00,12,0,1,1055.156,2.653,4.610,1009.829,0.666,0.985
1.027000,685118,1000.00,12,0,1,1060.320,5.966,4.659,1009.445,0.939,0.990
1.028000,685119,1000.00,12,0,1,1064.932,8.224,4.794,1006.995,-1.636,1.002
1.029000,685120,1000.00,12,0,1,1062.098,4.185,4.831,1007.283,-1.487,1.021
1.030000,685121,1000.00,12,0,1,1060.537,-0.368,4.747,1009.853,1.128,1.029
1.031000,685122,1000.00,12,0,1,1056.117,-3.992,4.584,1011.366,2.576,1.072
1.032000,685123,1000.00,12,0,1,1055.612,-6.137,4.567,1009.493,0.938,1.074
1.033000,685124,1000.00,12,0,1,1059.816,-1.136,4.569,1009.084,-0.229,1.061
1.034000,685125,1000.00,12,0,1,1059.119,-0.627,4.537,1011.390,1.944,1.094
1.035000,685126,1000.00,12,0,1,1064.452,3.116,4.550,1010.189,1.158,1.107
1.036000,685127,1000.00,12,0,1,1066.830,7.574,4.656,1008.820,-0.799,1.109
1.037000,685128,1000.00,12,0,1,1057.126,-0.870,4.586,1007.907,-1.249,1.088
1.038000,685129,1000.00,12,0,1,1050.784,-6.532,4.635,1007.571,-1.656,1.103
1.039000,685130,1000.00,12,0,1,1054.940,-1.272,4.630,1009.613,0.236,1.103
1.040000,685131,1000.00,12,0,1,1052.994,0.271,4.630,1009.325,0.533,1.105
1.041000,685132,1000.00,12,0,1,1049.535,-2.998,4.516,1008.124,-1.046,1.114
1.042000,685133,1000.00,12,0,1,1048.262,-2.470,4.397,1009.108,-0.175,1.066
1.043000,685134,1000.00,12,0,1,1050.208,-0.582,4.384,1009.685,0.520,1.068
1.044000,685135,1000.00,12,0,1,1056.741,5.217,4.399,1009.805,0.383,1.049
1.045000,685136,1000.00,12,0,1,1058.183,6.520,4.385,1010.694,0.968,1.044
1.046000,685137,1000.00,12,0,1,1055.132,1.576,4.386,1009.373,-0.027,1.043
1.047000,685138,1000.00,12,0,1,1053.403,-1.433,4.352,1008.844,-1.076,1.044
1.048000,685139,1000.00,12,0,1,1060.513,2.495,4.365,1010.526,0.558,1.015
1.049000,685140,1000.00,12,0,1,1067.142,8.088,4.502,1009.781,0.248,1.014
1.050000,685141,1000.00,12,0,1,1068.992,6.999,4.401,1007.619,-1.927,1.047
1.051000,685142,1000.00,12,0,1,1070.673,6.110,4.433,1009.637,-0.381,1.044
1.052000,685143,1000.00,12,0,1,1074.084,6.924,4.499,1011.462,1.923,1.070
1.053000,685144,1000.00,12,0,1,1069.881,2.707,4.364,1009.180,-0.104,1.062
1.054000,685145,1000.00,12,0,1,1067.935,-1.393,4.135,1009.301,-0.690,1.058
1.055000,685146,1000.00,12,0,1,1053.643,-10.777,4.342,1007.379,-1.336,1.044
1.056000,685147,1000.00,12,0,1,1044.443,-20.034,5.162,1009.973,-0.226,1.030
1.057000,685148,1000.00,12,0,1,1045.956,-13.671,5.475,1012.207,3.077,1.092
1.058000,685149,1000.00,12,0,1,1048.310,-7.865,5.566,1010.718,1.020,1.102
1.059000,685150,1000.00,12,0,1,1045.644,-6.525,5.629,1009.012,-0.716,1.103
1.060000,685151,1000.00,12,0,1,1049.319,-2.098,5.619,1007.979,-1.665,1.118
1.061000,685152,1000.00,12,0,1,1052.562,3.632,5.633,1007.475,-2.002,1.141
1.062000,685153,1000.00,12,0,1,1049.439,1.557,5.636,1008.100,-1.177,1.150
1.063000,685154,1000.00,12,0,1,1044.875,-2.724,5.645,1008.244,-0.778,1.155
1.064000,685155,1000.00,12,0,1,1047.686,-0.594,5.620,1008.316,-0.611,1.158
1.065000,685156,1000.00,12,0,1,1052.490,3.843,5.555,1010.382,0.984,1.161
1.066000,685157,1000.00,12,0,1,1058.087,7.333,5.580,1009.541,0.875,1.167
1.067000,685158,1000.00,12,0,1,1065.221,11.341,5.791,1009.733,0.034,1.138
1.068000,685159,1000.00,12,0,1,1063.852,8.612,5.903,1008.844,0.024,1.135
1.069000,685160,1000.00,12,0,1,1060.224,1.434,5.885,1008.748,-0.786,1.138
1.070000,685161,1000.00,12,0,1,1054.411,-4.184,5.896,1008.844,-0.074,1.131
1.071000,685162,1000.00,12,0,1,1055.204,-5.654,5.950,1009.084,-0.090,1.129
1.072000,685163,1000.00,12,0,1,1057.870,-1.513,5.950,1009.589,0.562,1.132
1.073000,685164,1000.00,12,0,1,1056.045,-2.812,5.955,1010.165,1.034,1.141
1.074000,685165,1000.00,12,0,1,1052.898,-4.630,5.986,1010.910,1.530,1.159
1.075000,685166,1000.00,12,0,1,1051.841,-4.157,6.014,1009.613,0.596,1.149
1.076000,685167,1000.00,12,0,1,1055.348,0.404,6.003,1009.373,-0.280,1.145
1.077000,685168,1000.00,12,0,1,1053.955,2.060,5.950,1008.052,-0.752,1.143
1.078000,685169,1000.00,12,0,1,1052.730,0.941,5.837,1009.421,-0.327,1.120
1.079000,685170,1000.00,12,0,1,1054.363,4.121,5.836,1008.460,0.014,1.100
1.080000,685171,1000.00,12,0,1,1055.372,5.431,5.886,1007.259,-1.852,1.119
1.081000,685172,1000.00,12,0,1,1051.457,2.722,5.872,1007.523,-1.039,1.069
1.082000,685173,1000.00,12,0,1,1048.646,-0.726,5.808,1008.244,-0.372,1.062
1.083000,685174,1000.00,12,0,1,1048.839,-0.324,5.806,1008.340,-0.050,1.061
1.084000,685175,1000.00,12,0,1,1050.760,0.867,5.807,1008.844,0.273,1.026
1.085000,685176,1000.00,12,0,1,1053.739,2.649,5.802,1009.661,0.934,1.021
1.086000,685177,1000.00,12,0,1,1051.409,0.079,5.703,1008.052,-0.222,1.015
1.087000,685178,1000.00,12,0,1,1051.745,-2.227,5.710,1005.169,-3.029,1.088
1.088000,685179,1000.00,12,0,1,1053.186,-0.991,5.636,1005.673,-2.466,1.118
1.089000,685180,1000.00,12,0,1,1051.457,-3.625,5.657,1007.787,0.011,1.117
1.090000,685181,1000.00,12,0,1,1054.940,-1.806,5.662,1009.132,1.461,1.134
1.091000,685182,1000.00,12,0,1,1054.652,-0.941,5.648,1010.814,2.658,1.185
1.092000,685183,1000.00,12,0,1,1057.366,-0.300,5.637,1006.971,-0.082,1.185
1.093000,685184,1000.00,12,0,1,1060.345,3.753,5.662,1007.043,-1.505,1.202
1.094000,685185,1000.00,12,0,1,1058.303,1.775,5.619,1007.307,0.255,1.201
1.095000,685186,1000.00,12,0,1,1056.165,0.134,5.543,1008.052,0.138,1.194
1.096000,685187,1000.00,12,0,1,1056.285,1.082,5.541,1008.292,1.117,1.204
1.097000,685188,1000.00,12,0,1,1057.606,3.214,5.556,1009.565,1.607,1.216
1.098000,685189,1000.00,12,0,1,1055.901,3.082,5.561,1008.052,0.866,1.219
1.099000,685190,1000.00,12,0,1,1052.610,0.442,5.443,1008.820,0.515,1.221
1.100000,685191,1000.00,12,0,1,1048.358,-2.097,5.360,1009.541,1.730,1.215
1.101000,685192,1000.00,12,0,1,1048.358,-2.052,5.298,1008.508,0.444,1.216
1.102000,685193,1000.00,12,0,1,1046.725,-1.635,5.212,1008.244,-0.136,1.185
1.103000,685194,1000.00,12,0,1,1046.196,-2.756,5.213,1010.766,1.901,1.215
1.104000,685195,1000.00,12,0,1,1049.007,0.071,5.209,1009.901,1.434,1.228
1.105000,685196,1000.00,12,0,1,1050.880,1.306,4.984,1009.012,-0.220,1.214
1.106000,685197,1000.00,12,0,1,1053.619,2.209,4.113,1009.613,0.289,1.214
1.107000,685198,1000.00,12,0,1,1055.012,2.470,3.647,1008.940,-0.196,1.134
1.108000,685199,1000.00,12,0,1,1054.700,0.253,3.473,1008.508,-0.969,1.133
1.109000,685200,1000.00,12,0,1,1052.418,-2.670,3.369,1009.180,-0.177,1.128
1.110000,685201,1000.00,12,0,1,1057.294,-0.529,3.357,1010.838,1.047,1.113
1.111000,685202,1000.00,12,0,1,1057.606,1.135,3.322,1010.574,1.131,1.089
1.112000,685203,1000.00,12,0,1,1055.564,-2.476,3.333,1006.706,-2.425,1.129
1.113000,685204,1000.00,12,0,1,1051.721,-4.533,3.372,1006.658,-2.947,1.199
1.114000,685205,1000.00,12,0,1,1052.682,-3.964,3.417,1009.180,0.101,1.196
1.115000,685206,1000.00,12,0,1,1053.186,-0.839,3.376,1009.805,0.896,1.194
1.116000,685207,1000.00,12,0,1,1054.363,0.748,3.214,1008.844,-0.012,1.188
1.117000,685208,1000.00,12,0,1,1055.997,3.831,2.838,1006.899,-1.656,1.211
1.118000,685209,1000.00,12,0,1,1051.817,1.672,2.574,1009.229,-0.103,1.211
1.119000,685210,1000.00,12,0,1,1049.872,-0.346,2.566,1009.421,1.170,1.217
1.120000,685211,1000.00,12,0,1,1051.673,2.842,2.529,1011.342,1.598,1.238
1.121000,685212,1000.00,12,0,1,1055.084,5.689,2.531,1010.478,1.777,1.263
1.122000,685213,1000.00,12,0,1,1057.486,7.921,2.759,1009.493,-0.403,1.262
1.123000,685214,1000.00,12,0,1,1053.258,3.321,2.771,1010.093,0.408,1.254
1.124000,685215,1000.00,12,0,1,1045.572,-4.762,2.775,1009.925,0.122,1.236
1.125000,685216,1000.00,12,0,1,1041.104,-9.450,3.024,1008.460,-1.218,1.245
1.126000,685217,1000.00,12,0,1,1046.316,-5.334,3.116,1008.027,-1.667,1.266
1.127000,685218,1000.00,12,0,1,1046.364,-3.498,3.141,1008.027,-1.413,1.278
1.128000,685219,1000.00,12,0,1,1050.568,-2.383,3.157,1010.406,0.613,1.280
1.129000,685220,1000.00,12,0,1,1056.141,3.423,3.140,1009.325,0.385,1.281
1.130000,685221,1000.00,12,0,1,1054.387,0.737,3.046,1009.901,-0.073,1.254
1.131000,685222,1000.00,12,0,1,1046.316,-6.774,3.170,1008.580,-0.285,1.246
1.132000,685223,1000.00,12,0,1,1042.569,-10.468,3.497,1007.331,-2.027,1.277
1.133000,685224,1000.00,12,0,1,1047.157,-4.950,3.566,1009.012,-0.217,1.278
1.134000,685225,1000.00,12,0,1,1054.580,3.531,3.599,1006.226,-1.659,1.298
1.135000,685226,1000.00,12,0,1,1050.088,1.797,3.588,1008.580,-0.929,1.298
1.136000,685227,1000.00,12,0,1,1047.133,-1.676,3.596,1008.364,0.964,1.305
1.137000,685228,1000.00,12,0,1,1045.572,-0.398,3.583,1008.460,-0.486,1.235
1.138000,685229,1000.00,12,0,1,1043.674,-1.029,3.583,1008.700,0.847,1.191
1.139000,685230,1000.00,12,0,1,1039.591,-2.388,3.562,1007.643,-0.623,1.194
1.140000,685231,1000.00,12,0,1,1039.182,-1.958,3.564,1005.818,-1.833,1.204
1.141000,685232,1000.00,12,0,1,1039.398,0.325,3.562,1006.682,-1.295,1.158
1.142000,685233,1000.00,12,0,1,1040.936,2.027,3.573,1008.724,1.006,1.167
1.143000,685234,1000.00,12,0,1,1042.449,3.816,3.574,1009.541,1.826,1.176
1.144000,685235,1000.00,12,0,1,1041.128,2.434,3.582,1007.619,0.038,1.176
1.145000,685236,1000.00,12,0,1,1043.146,2.503,3.599,1008.244,0.025,1.176
1.146000,685237,1000.00,12,0,1,1048.166,6.320,3.706,1010.141,1.945,1.197
1.147000,685238,1000.00,12,0,1,1051.241,7.224,3.817,1009.901,1.729,1.200
1.148000,685239,1000.00,12,0,1,1050.016,4.495,3.845,1009.301,0.644,1.198
1.149000,685240,1000.00,12,0,1,1050.112,1.916,3.854,1007.331,-0.788,1.201
1.150000,685241,1000.00,12,0,1,1058.327,7.215,3.976,1005.409,-2.756,1.238
1.151000,685242,1000.00,12,0,1,1060.200,8.739,4.153,1008.820,0.235,1.237
1.152000,685243,1000.00,12,0,1,1050.208,-1.732,4.154,1008.100,0.903,1.244
1.153000,685244,1000.00,12,0,1,1046.677,-6.633,4.241,1009.397,0.680,1.218
1.154000,685245,1000.00,12,0,1,1049.655,-2.289,4.253,1010.622,2.714,1.261
1.155000,685246,1000.00,12,0,1,1046.316,-3.240,4.274,1011.679,2.598,1.313
1.156000,685247,1000.00,12,0,1,1044.155,-4.710,4.314,1010.093,1.533,1.330
1.157000,685248,1000.00,12,0,1,1042.857,-3.235,4.324,1009.036,-0.410,1.331
1.158000,685249,1000.00,12,0,1,1041.464,-3.065,4.346,1008.484,-0.614,1.327
1.159000,685250,1000.00,12,0,1,1044.155,0.726,4.330,1008.820,-0.553,1.329
1.160000,685251,1000.00,12,0,1,1042.954,1.699,4.336,1007.931,-0.995,1.328
1.161000,685252,1000.00,12,0,1,1041.008,-0.342,4.334,1007.163,-1.785,1.342
1.162000,685253,1000.00,12,0,1,1042.569,1.471,4.324,1009.661,0.231,1.298
1.163000,685254,1000.00,12,0,1,1045.332,3.630,4.307,1007.571,-0.464,1.231
1.164000,685255,1000.00,12,0,1,1045.956,3.611,4.301,1009.012,-0.792,1.236
1.165000,685256,1000.00,12,0,1,1045.716,1.808,4.307,1008.268,0.288,1.230
1.166000,685257,1000.00,12,0,1,1049.968,3.565,4.335,1008.508,-0.962,1.238
1.167000,685258,1000.00,12,0,1,1054.459,6.302,4.393,1008.868,0.438,1.217
1.168000,685259,1000.00,12,0,1,1053.859,3.775,4.419,1008.652,-0.324,1.218
1.169000,685260,1000.00,12,0,1,1054.219,1.505,4.423,1005.697,-2.236,1.247
1.170000,685261,1000.00,12,0,1,1053.955,0.368,4.405,1007.019,-1.816,1.253
1.171000,685262,1000.00,12,0,1,1052.081,-2.401,4.345,1009.060,1.101,1.238
1.172000,685263,1000.00,12,0,1,1050.976,-3.587,4.228,1007.739,0.011,1.236
1.173000,685264,1000.00,12,0,1,1053.811,-1.060,4.205,1008.436,0.038,1.235
1.174000,685265,1000.00,12,0,1,1054.051,0.583,4.151,1007.739,0.332,1.236
1.175000,685266,1000.00,12,0,1,1048.478,-3.558,3.962,1008.964,0.393,1.225
1.176000,685267,1000.00,12,0,1,1046.653,-4.720,3.947,1007.811,0.590,1.205
1.177000,685268,1000.00,12,0,1,1050.400,0.454,3.916,1007.523,-0.823,1.194
1.178000,685269,1000.00,12,0,1,1051.553,3.183,3.928,1008.124,0.529,1.193
1.179000,685270,1000.00,12,0,1,1048.887,1.419,3.903,1009.229,1.002,1.200
1.180000,685271,1000.00,12,0,1,1051.289,3.000,3.924,1007.187,-0.165,1.201
1.181000,685272,1000.00,12,0,1,1045.836,0.211,3.806,1006.586,-1.499,1.218
1.182000,685273,1000.00,12,0,1,1036.828,-9.042,3.732,1008.580,0.665,1.188
1.183000,685274,1000.00,12,0,1,1040.239,-6.109,3.766,1009.132,1.382,1.204
1.184000,685275,1000.00,12,0,1,1054.652,6.888,3.858,1008.772,0.648,1.184
1.185000,685276,1000.00,12,0,1,1060.657,12.314,4.225,1008.172,0.192,1.177
1.186000,685277,1000.00,12,0,1,1055.252,4.540,4.267,1008.796,0.277,1.170
1.187000,685278,1000.00,12,0,1,1052.202,-1.509,4.272,1010.165,1.676,1.192
1.188000,685279,1000.00,12,0,1,1053.138,-1.800,4.277,1009.132,0.675,1.189
1.189000,685280,1000.00,12,0,1,1048.911,-5.844,4.343,1008.604,-0.255,1.187
1.190000,685281,1000.00,12,0,1,1039.038,-14.469,4.793,1009.421,0.482,1.160
1.191000,685282,1000.00,12,0,1,1039.567,-14.246,5.199,1009.709,0.770,1.151
1.192000,685283,1000.00,12,0,1,1045.163,-5.853,5.257,1009.973,0.744,1.147
1.193000,685284,1000.00,12,0,1,1044.923,-4.060,5.260,1010.454,1.067,1.127
1.194000,685285,1000.00,12,0,1,1040.960,-5.862,5.314,1009.397,0.118,1.127
1.195000,685286,1000.00,12,0,1,1042.017,-3.671,5.328,1007.787,-1.502,1.147
1.196000,685287,1000.00,12,0,1,1042.978,0.112,5.252,1007.547,-1.679,1.139
1.197000,685288,1000.00,12,0,1,1042.209,0.790,5.153,1006.490,-2.059,1.150
1.198000,685289,1000.00,12,0,1,1039.831,0.441,5.114,1007.691,-1.237,1.159
1.199000,685290,1000.00,12,0,1,1040.311,1.525,5.112,1005.890,-1.621,1.176
1.200000,685291,1000.00,12,0,1,1036.948,0.616,5.009,1007.859,-0.956,1.118
1.201000,685292,1000.00,12,0,1,1037.501,0.404,4.855,1008.940,1.422,1.136
1.202000,685293,1000.00,12,0,1,1044.515,7.222,4.955,1008.436,0.175,1.129
1.203000,685294,1000.00,12,0,1,1049.920,11.549,5.132,1008.027,0.032,1.125
1.204000,685295,1000.00,12,0,1,1049.079,9.114,5.282,1007.643,-0.460,1.059
1.205000,685296,1000.00,12,0,1,1042.281,1.274,5.265,1007.595,-0.515,0.996
1.206000,685297,1000.00,12,0,1,1043.482,-0.792,5.224,1006.178,-1.342,0.991
1.207000,685298,1000.00,12,0,1,1050.256,5.094,5.253,1008.580,0.053,0.989
1.208000,685299,1000.00,12,0,1,1048.166,2.506,5.247,1006.514,-0.158,0.985
1.209000,685300,1000.00,12,0,1,1044.563,-2.835,5.262,1006.130,-1.983,1.021
1.210000,685301,1000.00,12,0,1,1043.674,-3.786,5.283,1009.613,2.049,1.052
1.211000,685302,1000.00,12,0,1,1040.047,-6.269,5.357,1009.012,1.742,1.051
1.212000,685303,1000.00,12,0,1,1037.765,-7.820,5.466,1010.285,1.843,1.082
1.213000,685304,1000.00,12,0,1,1039.663,-4.492,5.479,1009.541,1.944,1.115
1.214000,685305,1000.00,12,0,1,1039.086,-2.689,5.468,1007.931,-0.490,1.111
1.215000,685306,1000.00,12,0,1,1040.672,-0.553,5.463,1008.532,0.262,1.111
1.216000,685307,1000.00,12,0,1,1038.125,-0.046,5.440,1008.196,0.092,1.103
1.217000,685308,1000.00,12,0,1,1037.309,-0.796,5.367,1008.003,-0.237,1.102
1.218000,685309,1000.00,12,0,1,1036.804,1.097,5.343,1008.916,0.610,1.104
1.219000,685310,1000.00,12,0,1,1037.068,1.586,5.343,1007.163,-0.575,1.061
1.220000,685311,1000.00,12,0,1,1035.843,1.814,5.349,1007.859,-0.667,1.034
1.221000,685312,1000.00,12,0,1,1035.027,0.876,5.340,1008.268,0.467,1.024
1.222000,685313,1000.00,12,0,1,1035.435,1.430,5.320,1007.019,-0.932,1.032
1.223000,685314,1000.00,12,0,1,1034.714,0.782,5.319,1007.163,-0.867,1.040
1.224000,685315,1000.00,12,0,1,1038.558,2.700,5.332,1007.619,-0.187,1.039
1.225000,685316,1000.00,12,0,1,1040.047,4.372,5.344,1008.148,0.134,1.038
1.226000,685317,1000.00,12,0,1,1043.410,4.526,5.340,1008.244,0.382,1.036
1.227000,685318,1000.00,12,0,1,1044.851,5.544,5.397,1007.931,-0.119,1.029
1.228000,685319,1000.00,12,0,1,1048.310,5.491,5.434,1008.052,-0.015,1.027
1.229000,685320,1000.00,12,0,1,1043.122,1.467,5.435,1008.484,0.298,1.018
1.230000,685321,1000.00,12,0,1,1037.117,-6.509,5.496,1008.268,0.204,1.018
1.231000,685322,1000.00,12,0,1,1044.971,0.053,5.496,1005.770,-1.810,1.028
1.232000,685323,1000.00,12,0,1,1043.938,2.091,5.353,1006.370,-1.697,1.051
1.233000,685324,1000.00,12,0,1,1039.398,-3.768,5.309,1006.778,-0.309,1.034
1.234000,685325,1000.00,12,0,1,1038.173,-2.887,5.235,1008.772,0.920,1.038
1.235000,685326,1000.00,12,0,1,1034.474,-4.862,4.985,1007.115,0.535,1.040
1.236000,685327,1000.00,12,0,1,1033.225,-4.562,4.985,1006.850,-0.808,1.046
1.237000,685328,1000.00,12,0,1,1033.922,-1.857,4.988,1005.529,-0.831,1.025
1.238000,685329,1000.00,12,0,1,1035.051,0.465,4.982,1005.697,-1.320,1.038
1.239000,685330,1000.00,12,0,1,1031.135,-1.136,4.915,1008.676,1.778,1.067
1.240000,685331,1000.00,12,0,1,1025.491,-5.845,4.545,1008.316,1.896,1.098
1.241000,685332,1000.00,12,0,1,1026.259,-4.397,4.121,1006.971,-0.077,1.093
1.242000,685333,1000.00,12,0,1,1030.391,0.449,4.037,1006.490,-0.260,1.089
1.243000,685334,1000.00,12,0,1,1033.658,3.446,4.026,1006.802,-0.285,1.079
1.244000,685335,1000.00,12,0,1,1033.225,2.688,3.958,1006.971,0.223,1.079
1.245000,685336,1000.00,12,0,1,1034.931,2.348,3.938,1006.442,-0.422,1.060
1.246000,685337,1000.00,12,0,1,1038.750,4.913,3.999,1009.301,1.708,1.061
1.247000,685338,1000.00,12,0,1,1041.777,5.989,4.086,1007.571,1.067,1.031
1.248000,685339,1000.00,12,0,1,1043.746,6.069,4.174,1008.364,0.166,1.016
1.249000,685340,1000.00,12,0,1,1046.172,6.322,4.264,1010.213,2.630,1.058
1.250000,685341,1000.00,12,0,1,1046.004,5.079,4.323,1008.940,0.990,1.058
1.251000,685342,1000.00,12,0,1,1040.600,-0.500,4.323,1008.124,-0.156,1.039
1.252000,685343,1000.00,12,0,1,1038.318,-3.498,4.230,1007.115,-0.815,1.045
1.253000,685344,1000.00,12,0,1,1045.812,3.347,3.930,1005.938,-1.956,1.081
1.254000,685345,1000.00,12,0,1,1044.419,4.512,3.767,1005.409,-1.972,1.115
1.255000,685346,1000.00,12,0,1,1046.917,4.269,3.811,1006.418,-0.994,1.121
1.256000,685347,1000.00,12,0,1,1048.598,7.847,3.968,1007.019,0.180,1.105
1.257000,685348,1000.00,12,0,1,1044.034,2.832,3.922,1007.811,0.638,1.109
1.258000,685349,1000.00,12,0,1,1037.501,-2.696,3.925,1007.163,0.478,1.111
1.259000,685350,1000.00,12,0,1,1027.412,-10.442,4.174,1007.043,-0.134,1.075
1.260000,685351,1000.00,12,0,1,1020.302,-15.884,4.710,1006.418,-0.272,1.036
1.261000,685352,1000.00,12,0,1,1024.794,-10.001,4.837,1008.412,0.841,1.013
1.262000,685353,1000.00,12,0,1,1029.358,-3.230,4.731,1006.778,0.350,0.980
1.263000,685354,1000.00,12,0,1,1033.802,0.547,4.689,1008.003,-0.009,0.941
1.264000,685355,1000.00,12,0,1,1039.038,4.833,4.723,1008.628,1.556,0.964
1.265000,685356,1000.00,12,0,1,1043.362,7.129,4.829,1008.244,0.342,0.964
1.266000,685357,1000.00,12,0,1,1041.728,4.197,4.865,1009.373,1.215,0.979
1.267000,685358,1000.00,12,0,1,1043.026,2.225,4.874,1007.811,0.106,0.979
1.268000,685359,1000.00,12,0,1,1038.390,-1.644,4.877,1006.995,-1.423,0.996
1.269000,685360,1000.00,12,0,1,1038.630,-4.329,4.911,1007.595,-0.337,0.994
1.270000,685361,1000.00,12,0,1,1045.692,2.593,4.917,1008.460,0.188,0.989
1.271000,685362,1000.00,12,0,1,1048.118,4.860,4.964,1007.307,-0.268,0.988
1.272000,685363,1000.00,12,0,1,1038.990,-2.907,4.977,1007.187,-0.948,0.988
1.273000,685364,1000.00,12,0,1,1038.894,-4.625,5.018,1006.490,-0.786,0.987
1.274000,685365,1000.00,12,0,1,1037.141,-2.473,5.016,1007.091,-0.663,0.991
1.275000,685366,1000.00,12,0,1,1033.826,-5.133,5.030,1006.947,-0.033,0.991
1.276000,685367,1000.00,12,0,1,1032.745,-3.675,5.016,1007.979,0.400,0.991
1.277000,685368,1000.00,12,0,1,1034.042,-0.925,4.956,1008.964,1.663,1.018
1.278000,685369,1000.00,12,0,1,1036.036,2.330,4.906,1008.100,0.708,1.023
1.279000,685370,1000.00,12,0,1,1035.075,2.737,4.917,1006.778,-0.718,1.027
1.280000,685371,1000.00,12,0,1,1034.210,1.484,4.835,1007.883,0.045,1.027
1.281000,685372,1000.00,12,0,1,1034.162,1.897,4.842,1009.132,1.307,1.012
1.282000,685373,1000.00,12,0,1,1038.990,4.595,4.877,1009.084,1.088,0.995
1.283000,685374,1000.00,12,0,1,1038.197,4.534,4.890,1007.859,-0.255,0.994
1.284000,685375,1000.00,12,0,1,1038.342,1.311,4.876,1007.379,-0.917,0.994
1.285000,685376,1000.00,12,0,1,1042.305,4.038,4.861,1007.163,-0.994,1.001
1.286000,685377,1000.00,12,0,1,1047.541,6.315,4.900,1006.370,-1.516,1.018
1.287000,685378,1000.00,12,0,1,1047.686,5.138,4.947,1006.130,-1.689,1.039
1.288000,685379,1000.00,12,0,1,1045.812,0.771,4.948,1006.923,-0.688,1.027
1.289000,685380,1000.00,12,0,1,1038.414,-6.025,5.018,1007.331,-0.068,0.995
1.290000,685381,1000.00,12,0,1,1036.396,-9.335,5.122,1006.322,-0.718,0.964
1.291000,685382,1000.00,12,0,1,1040.600,-4.027,5.116,1006.802,-0.502,0.966
1.292000,685383,1000.00,12,0,1,1044.611,0.638,5.117,1006.658,-0.010,0.966
1.293000,685384,1000.00,12,0,1,1047.013,3.314,5.115,1005.962,-0.758,0.971
1.294000,685385,1000.00,12,0,1,1045.236,2.688,5.115,1005.770,-0.639,0.974
1.295000,685386,1000.00,12,0,1,1037.765,-3.329,5.126,1006.058,-0.245,0.973
1.296000,685387,1000.00,12,0,1,1035.243,-5.113,5.130,1004.809,-0.898,0.951
1.297000,685388,1000.00,12,0,1,1034.234,-3.507,5.083,1006.394,0.068,0.939
1.298000,685389,1000.00,12,0,1,1031.400,-4.453,5.050,1007.499,1.784,0.972
1.299000,685390,1000.00,12,0,1,1032.360,-2.706,4.985,1008.508,2.035,0.943
1.300000,685391,1000.00,12,0,1,1033.201,-0.220,4.933,1008.580,2.185,0.983
1.301000,685392,1000.00,12,0,1,1033.393,-0.177,4.932,1007.739,0.908,0.991
1.302000,685393,1000.00,12,0,1,1040.143,4.982,4.958,1006.274,-0.507,0.987
1.303000,685394,1000.00,12,0,1,1046.124,9.845,5.128,1008.172,0.608,0.951
1.304000,685395,1000.00,12,0,1,1045.884,7.460,5.196,1006.802,0.258,0.910
1.305000,685396,1000.00,12,0,1,1046.220,4.660,5.203,1005.241,-1.953,0.941
1.306000,685397,1000.00,12,0,1,1046.725,3.278,5.104,1006.538,-0.494,0.943
1.307000,685398,1000.00,12,0,1,1047.253,1.464,5.093,1007.091,0.387,0.940
1.308000,685399,1000.00,12,0,1,1045.452,-1.088,5.081,1006.923,0.058,0.938
1.309000,685400,1000.00,12,0,1,1045.308,-2.809,4.878,1005.818,-0.592,0.941
1.310000,685401,1000.00,12,0,1,1046.773,-1.387,4.334,1005.890,-0.855,0.948
1.311000,685402,1000.00,12,0,1,1048.166,-0.256,4.097,1006.250,0.036,0.941
1.312000,685403,1000.00,12,0,1,1049.799,1.385,4.076,1007.019,0.482,0.942
1.313000,685404,1000.00,12,0,1,1049.511,1.708,4.083,1006.202,0.247,0.943
1.314000,685405,1000.00,12,0,1,1045.476,-1.255,4.029,1004.977,-1.155,0.931
1.315000,685406,1000.00,12,0,1,1043.770,-2.402,3.916,1005.289,-0.690,0.935
1.316000,685407,1000.00,12,0,1,1042.473,-1.804,3.879,1005.025,-0.543,0.922
1.317000,685408,1000.00,12,0,1,1038.534,-3.941,3.906,1004.256,-1.184,0.937
1.318000,685409,1000.00,12,0,1,1039.831,-2.414,3.914,1004.929,-0.483,0.918
1.319000,685410,1000.00,12,0,1,1042.689,1.828,3.874,1007.691,1.916,0.956
1.320000,685411,1000.00,12,0,1,1043.530,2.415,3.872,1008.124,2.625,1.025
1.321000,685412,1000.00,12,0,1,1040.239,-0.377,3.811,1006.802,0.776,1.030
1.322000,685413,1000.00,12,0,1,1037.957,-3.689,3.824,1007.043,0.642,1.025
1.323000,685414,1000.00,12,0,1,1043.410,0.219,3.768,1006.971,0.633,1.023
1.324000,685415,1000.00,12,0,1,1046.076,2.757,3.772,1007.019,0.330,1.020
1.325000,685416,1000.00,12,0,1,1044.515,-0.634,3.703,1006.947,0.347,1.021
1.326000,685417,1000.00,12,0,1,1044.563,-1.997,3.677,1007.523,0.549,1.022
1.327000,685418,1000.00,12,0,1,1041.993,-4.628,3.732,1007.043,0.374,0.996
1.328000,685419,1000.00,12,0,1,1040.407,-6.966,3.846,1008.652,1.132,1.004
1.329000,685420,1000.00,12,0,1,1040.407,-6.208,3.926,1007.475,0.836,1.006
1.330000,685421,1000.00,12,0,1,1037.741,-7.450,4.060,1007.931,0.105,1.006
1.331000,685422,1000.00,12,0,1,1037.741,-6.713,4.160,1006.442,-0.220,0.990
1.332000,685423,1000.00,12,0,1,1040.984,-1.896,4.118,1006.802,-0.906,0.986
1.333000,685424,1000.00,12,0,1,1041.392,0.349,4.068,1007.763,0.726,0.991
1.334000,685425,1000.00,12,0,1,1040.912,0.878,4.066,1007.163,-0.013,0.982
1.335000,685426,1000.00,12,0,1,1039.831,1.442,4.031,1007.883,0.305,0.973
1.336000,685427,1000.00,12,0,1,1041.344,3.333,3.959,1007.883,0.656,0.953
1.337000,685428,1000.00,12,0,1,1039.927,3.830,3.929,1008.172,0.260,0.924
1.338000,685429,1000.00,12,0,1,1046.148,7.817,4.080,1005.169,-1.638,0.947
1.339000,685430,1000.00,12,0,1,1053.739,15.452,4.549,1007.259,-1.236,0.963
1.340000,685431,1000.00,12,0,1,1048.046,9.363,4.550,1006.586,0.044,0.958
1.341000,685432,1000.00,12,0,1,1041.488,0.391,4.515,1004.977,-2.626,1.025
1.342000,685433,1000.00,12,0,1,1047.734,4.057,4.550,1004.833,-1.899,1.060
1.343000,685434,1000.00,12,0,1,1054.219,9.364,4.716,1006.754,-0.444,1.056
1.344000,685435,1000.00,12,0,1,1055.612,7.975,4.834,1006.706,0.277,1.053
1.345000,685436,1000.00,12,0,1,1057.438,6.434,4.896,1007.043,0.045,1.052
1.346000,685437,1000.00,12,0,1,1058.711,5.239,4.899,1004.761,-1.294,1.061
1.347000,685438,1000.00,12,0,1,1051.793,-2.456,4.886,1005.746,-1.175,1.073
1.348000,685439,1000.00,12,0,1,1052.850,-4.830,4.893,1006.514,0.537,1.046
1.349000,685440,1000.00,12,0,1,1050.760,-4.744,4.924,1004.761,-1.042,1.017
1.350000,685441,1000.00,12,0,1,1046.100,-10.100,5.127,1005.241,-0.854,0.976
1.351000,685442,1000.00,12,0,1,1044.203,-10.176,5.325,1007.739,1.844,1.002
1.352000,685443,1000.00,12,0,1,1048.190,-5.724,5.340,1007.043,1.415,1.019
1.353000,685444,1000.00,12,0,1,1047.566,-3.328,5.177,1007.523,1.207,1.030
1.354000,685445,1000.00,12,0,1,1044.010,-5.766,5.133,1007.427,1.403,1.048
1.355000,685446,1000.00,12,0,1,1044.010,-4.357,5.128,1005.722,-0.340,1.012
1.356000,685447,1000.00,12,0,1,1042.833,-3.035,5.125,1005.049,-1.123,1.022
1.357000,685448,1000.00,12,0,1,1042.041,-3.067,5.139,1008.220,1.534,1.044
1.358000,685449,1000.00,12,0,1,1049.487,4.095,5.169,1008.148,2.114,1.086
1.359000,685450,1000.00,12,0,1,1054.363,9.388,5.322,1006.923,0.143,1.082
1.360000,685451,1000.00,12,0,1,1052.033,6.165,5.390,1008.292,1.120,1.087
1.361000,685452,1000.00,12,0,1,1044.827,-1.402,5.393,1007.187,0.498,1.090
1.362000,685453,1000.00,12,0,1,1046.052,-2.476,5.401,1006.370,-1.011,1.097
1.363000,685454,1000.00,12,0,1,1047.998,0.125,5.396,1005.169,-1.464,1.116
1.364000,685455,1000.00,12,0,1,1050.280,0.350,5.393,1004.737,-2.186,1.146
1.365000,685456,1000.00,12,0,1,1048.815,-0.840,5.384,1005.049,-1.276,1.156
1.366000,685457,1000.00,12,0,1,1045.524,-5.180,5.427,1006.730,0.096,1.154
1.367000,685458,1000.00,12,0,1,1049.896,-2.288,5.408,1006.010,0.159,1.142
1.368000,685459,1000.00,12,0,1,1057.630,4.933,5.442,1006.634,-0.006,1.140
1.369000,685460,1000.00,12,0,1,1053.523,1.677,5.441,1005.553,-0.135,1.107
1.370000,685461,1000.00,12,0,1,1050.856,-2.833,5.445,1006.298,-0.272,1.044
1.371000,685462,1000.00,12,0,1,1046.533,-4.747,5.486,1004.641,-0.654,1.042
1.372000,685463,1000.00,12,0,1,1043.794,-7.222,5.556,1004.737,-1.397,1.057
1.373000,685464,1000.00,12,0,1,1040.143,-7.551,5.658,1007.163,1.372,1.071
1.374000,685465,1000.00,12,0,1,1038.125,-7.936,5.755,1006.923,1.400,1.088
1.375000,685466,1000.00,12,0,1,1039.519,-4.183,5.785,1006.466,0.391,1.088
1.376000,685467,1000.00,12,0,1,1048.791,5.026,5.821,1005.409,-0.144,1.086
1.377000,685468,1000.00,12,0,1,1049.295,8.063,5.896,1005.361,-0.729,1.089
1.378000,685469,1000.00,12,0,1,1049.199,5.748,5.869,1007.139,1.175,1.090
1.379000,685470,1000.00,12,0,1,1055.492,10.756,5.999,1008.892,2.481,1.139
1.380000,685471,1000.00,12,0,1,1055.036,10.004,6.073,1007.451,1.350,1.155
1.381000,685472,1000.00,12,0,1,1040.888,-3.859,6.023,1006.826,-0.137,1.154
1.382000,685473,1000.00,12,0,1,1023.473,-19.866,6.641,1007.091,0.366,1.149
1.383000,685474,1000.00,12,0,1,1019.389,-22.986,7.394,1007.307,0.278,1.145
1.384000,685475,1000.00,12,0,1,1020.734,-17.166,7.781,1006.754,-0.098,1.145
1.385000,685476,1000.00,12,0,1,1036.036,-3.541,7.794,1007.619,0.275,1.145
1.386000,685477,1000.00,12,0,1,1046.052,9.546,7.896,1004.761,-1.483,1.160
1.387000,685478,1000.00,12,0,1,1044.010,5.716,7.919,1005.265,-2.059,1.195
1.388000,685479,1000.00,12,0,1,1045.091,5.082,7.875,1007.355,0.838,1.179
1.389000,685480,1000.00,12,0,1,1047.109,6.597,7.623,1006.322,-0.050,1.166
1.390000,685481,1000.00,12,0,1,1049.415,7.266,7.577,1005.529,-1.038,1.175
1.391000,685482,1000.00,12,0,1,1052.226,9.365,7.691,1007.571,0.787,1.120
1.392000,685483,1000.00,12,0,1,1045.932,3.842,7.689,1006.370,0.276,1.088
1.393000,685484,1000.00,12,0,1,1042.833,-0.488,7.575,1006.682,-0.275,1.087
1.394000,685485,1000.00,12,0,1,1044.995,2.610,7.499,1007.139,0.682,1.091
1.395000,685486,1000.00,12,0,1,1049.031,6.436,7.499,1006.466,-0.186,1.091
1.396000,685487,1000.00,12,0,1,1044.875,4.111,7.485,1006.658,-0.157,1.076
1.397000,685488,1000.00,12,0,1,1039.663,-1.577,7.480,1006.490,-0.073,1.063
1.398000,685489,1000.00,12,0,1,1038.438,-1.841,7.454,1006.058,-0.666,1.064
1.399000,685490,1000.00,12,0,1,1037.165,-2.010,7.429,1004.857,-1.358,1.071
1.400000,685491,1000.00,12,0,1,1039.807,0.038,7.290,1005.073,-1.431,1.084
1.401000,685492,1000.00,12,0,1,1047.349,6.785,7.211,1007.763,1.233,1.066
1.402000,685493,1000.00,12,0,1,1052.033,10.032,7.304,1007.763,1.581,1.071
1.403000,685494,1000.00,12,0,1,1052.322,8.161,7.380,1006.778,0.158,1.057
1.404000,685495,1000.00,12,0,1,1054.411,6.880,7.399,1006.394,-0.155,1.039
1.405000,685496,1000.00,12,0,1,1052.346,3.778,7.393,1006.058,-0.476,1.040
1.406000,685497,1000.00,12,0,1,1056.093,3.128,7.394,1006.850,0.158,1.028
1.407000,685498,1000.00,12,0,1,1059.552,5.931,7.428,1005.722,-0.374,1.006
1.408000,685499,1000.00,12,0,1,1069.809,10.655,7.557,1005.842,-0.790,0.967
1.409000,685500,1000.00,12,0,1,1067.575,9.466,7.559,1006.610,0.425,0.969
1.410000,685501,1000.00,12,0,1,1050.328,-9.009,7.616,1005.649,-0.407,0.957
1.411000,685502,1000.00,12,0,1,1043.194,-16.664,7.970,1003.728,-1.977,0.995
1.412000,685503,1000.00,12,0,1,1045.043,-12.068,8.143,1005.241,-0.856,0.992
1.413000,685504,1000.00,12,0,1,1048.406,-7.131,8.205,1005.890,0.580,0.974
1.414000,685505,1000.00,12,0,1,1046.677,-5.526,8.242,1005.409,-0.148,0.924
1.415000,685506,1000.00,12,0,1,1046.340,-5.532,8.279,1005.697,0.172,0.906
1.416000,685507,1000.00,12,0,1,1041.344,-6.491,8.297,1005.601,0.213,0.906
1.417000,685508,1000.00,12,0,1,1039.567,-8.224,8.372,1005.770,0.170,0.906
1.418000,685509,1000.00,12,0,1,1041.728,-3.504,8.358,1005.145,-0.099,0.907
1.419000,685510,1000.00,12,0,1,1041.080,-2.916,8.364,1004.544,-0.865,0.915
1.420000,685511,1000.00,12,0,1,1040.479,-3.022,8.366,1007.043,1.230,0.930
1.421000,685512,1000.00,12,0,1,1045.236,1.077,8.340,1005.938,0.974,0.936
1.422000,685513,1000.00,12,0,1,1044.971,1.639,8.281,1007.019,0.700,0.920
1.423000,685514,1000.00,12,0,1,1050.928,4.090,8.232,1008.244,2.489,0.966
1.424000,685515,1000.00,12,0,1,1055.324,8.329,8.239,1005.818,-0.029,0.945
1.425000,685516,1000.00,12,0,1,1052.490,3.453,8.233,1005.145,-1.135,0.957
1.426000,685517,1000.00,12,0,1,1049.151,-1.357,8.204,1006.274,0.222,0.957
1.427000,685518,1000.00,12,0,1,1050.760,-1.092,8.126,1006.538,0.499,0.955
1.428000,685519,1000.00,12,0,1,1051.769,-0.084,8.085,1007.403,1.104,0.953
1.429000,685520,1000.00,12,0,1,1050.376,-1.441,7.944,1006.730,0.667,0.891
1.430000,685521,1000.00,12,0,1,1046.437,-4.505,7.842,1005.481,-0.735,0.876
1.431000,685522,1000.00,12,0,1,1041.656,-7.603,7.897,1006.106,-0.290,0.877
1.432000,685523,1000.00,12,0,1,1043.074,-5.426,7.420,1007.523,1.124,0.890
1.433000,685524,1000.00,12,0,1,1049.247,2.352,6.678,1008.172,1.564,0.916
1.434000,685525,1000.00,12,0,1,1052.850,6.780,6.295,1005.770,-0.447,0.918
1.435000,685526,1000.00,12,0,1,1051.937,6.421,6.340,1005.217,-1.670,0.947
1.436000,685527,1000.00,12,0,1,1045.836,1.228,6.197,1006.154,-0.303,0.925
1.437000,685528,1000.00,12,0,1,1044.851,-0.449,6.145,1006.538,-0.032,0.878
1.438000,685529,1000.00,12,0,1,1044.971,1.107,6.105,1006.154,-0.268,0.871
1.439000,685530,1000.00,12,0,1,1042.617,-1.075,6.035,1005.337,-1.039,0.883
1.440000,685531,1000.00,12,0,1,1047.229,2.059,5.954,1004.833,-1.432,0.894
1.441000,685532,1000.00,12,0,1,1049.127,4.598,5.841,1005.722,-0.565,0.890
1.442000,685533,1000.00,12,0,1,1048.935,2.207,5.824,1006.850,0.631,0.894
1.443000,685534,1000.00,12,0,1,1047.517,0.410,5.824,1006.442,0.389,0.895
1.444000,685535,1000.00,12,0,1,1044.155,-3.903,5.838,1006.394,0.008,0.890
1.445000,685536,1000.00,12,0,1,1044.131,-4.786,5.807,1006.058,-0.029,0.889
1.446000,685537,1000.00,12,0,1,1049.799,-0.198,5.778,1006.658,0.173,0.889
1.447000,685538,1000.00,12,0,1,1055.973,5.053,5.817,1005.601,-0.227,0.890
1.448000,685539,1000.00,12,0,1,1052.850,2.288,5.820,1006.370,-0.198,0.885
1.449000,685540,1000.00,12,0,1,1045.908,-5.255,5.861,1007.451,1.336,0.885
1.450000,685541,1000.00,12,0,1,1045.668,-5.376,5.910,1009.036,2.170,0.914
1.451000,685542,1000.00,12,0,1,1051.361,0.738,5.832,1007.739,1.376,0.918
1.452000,685543,1000.00,12,0,1,1052.129,3.169,5.675,1006.682,-0.431,0.893
1.453000,685544,1000.00,12,0,1,1044.491,-2.923,5.572,1006.370,-0.444,0.895
1.454000,685545,1000.00,12,0,1,1034.306,-10.791,5.694,1004.689,-1.779,0.929
1.455000,685546,1000.00,12,0,1,1038.149,-6.784,5.750,1004.160,-2.356,0.985
1.456000,685547,1000.00,12,0,1,1041.488,0.580,5.733,1006.778,0.226,0.985
1.457000,685548,1000.00,12,0,1,1043.170,1.905,5.678,1009.132,2.524,1.046
1.458000,685549,1000.00,12,0,1,1048.959,7.567,5.578,1006.010,0.079,1.040
1.459000,685550,1000.00,12,0,1,1053.114,10.870,5.629,1005.385,-1.711,1.067
1.460000,685551,1000.00,12,0,1,1051.097,7.716,5.591,1005.097,-0.902,1.073
1.461000,685552,1000.00,12,0,1,1049.847,4.201,5.104,1006.610,-0.295,1.036
1.462000,685553,1000.00,12,0,1,1049.463,2.531,4.824,1008.172,1.780,1.060
1.463000,685554,1000.00,12,0,1,1049.896,1.297,4.721,1007.355,0.725,1.061
1.464000,685555,1000.00,12,0,1,1050.808,0.815,4.657,1003.392,-2.591,1.123
1.465000,685556,1000.00,12,0,1,1050.280,-0.573,4.592,1004.665,-2.223,1.166
1.466000,685557,1000.00,12,0,1,1052.682,-0.119,4.499,1004.136,-1.069,1.175
1.467000,685558,1000.00,12,0,1,1055.108,1.944,4.355,1005.746,-0.563,1.177
1.468000,685559,1000.00,12,0,1,1052.153,-1.238,4.330,1003.416,-0.973,1.185
1.469000,685560,1000.00,12,0,1,1047.998,-5.323,4.376,1005.337,-0.758,1.184
1.470000,685561,1000.00,12,0,1,1044.203,-7.790,4.492,1006.586,1.973,1.204
1.471000,685562,1000.00,12,0,1,1042.353,-8.150,4.635,1005.457,0.280,1.197
1.472000,685563,1000.00,12,0,1,1040.191,-7.639,4.753,1004.737,-0.292,1.193
1.473000,685564,1000.00,12,0,1,1046.893,-1.112,4.721,1006.178,0.881,1.147
1.474000,685565,1000.00,12,0,1,1051.481,6.090,4.652,1005.601,0.705,1.151
1.475000,685566,1000.00,12,0,1,1051.193,5.321,4.687,1006.538,0.988,1.148
1.476000,685567,1000.00,12,0,1,1052.778,6.431,4.770,1004.953,0.131,1.148
1.477000,685568,1000.00,12,0,1,1050.688,4.800,4.816,1003.752,-1.490,1.165
1.478000,685569,1000.00,12,0,1,1048.646,1.522,4.821,1007.163,1.371,1.171
1.479000,685570,1000.00,12,0,1,1053.162,4.728,4.863,1007.163,2.285,1.211
1.480000,685571,1000.00,12,0,1,1051.313,3.409,4.845,1003.079,-2.026,1.240
1.481000,685572,1000.00,12,0,1,1041.224,-6.726,4.819,1003.416,-2.005,1.271
1.482000,685573,1000.00,12,0,1,1034.066,-13.684,5.136,1005.722,0.620,1.264
1.483000,685574,1000.00,12,0,1,1040.095,-8.229,5.256,1005.289,0.583,1.248
1.484000,685575,1000.00,12,0,1,1045.043,-1.432,5.171,1005.481,0.235,1.247
1.485000,685576,1000.00,12,0,1,1054.700,5.085,5.142,1006.682,1.494,1.242
1.486000,685577,1000.00,12,0,1,1060.801,11.189,5.377,1004.881,0.038,1.241
1.487000,685578,1000.00,12,0,1,1058.039,6.341,5.451,1003.103,-1.910,1.270
1.488000,685579,1000.00,12,0,1,1056.141,2.512,5.460,1004.208,-0.790,1.275
1.489000,685580,1000.00,12,0,1,1050.568,-2.120,5.466,1006.850,1.753,1.290
1.490000,685581,1000.00,12,0,1,1041.488,-10.392,5.653,1004.953,0.633,1.277
1.491000,685582,1000.00,12,0,1,1035.435,-13.969,5.953,1005.409,-0.120,1.275
1.492000,685583,1000.00,12,0,1,1033.249,-13.286,6.234,1006.058,1.282,1.285
1.493000,685584,1000.00,12,0,1,1041.272,-3.984,6.259,1005.241,0.069,1.284
1.494000,685585,1000.00,12,0,1,1051.241,7.758,6.331,1002.599,-1.891,1.311
1.495000,685586,1000.00,12,0,1,1048.286,6.660,6.365,1004.064,-1.227,1.323
1.496000,685587,1000.00,12,0,1,1048.286,4.401,6.395,1004.064,0.009,1.322
1.497000,685588,1000.00,12,0,1,1043.938,2.627,6.366,1002.455,-1.783,1.346
1.498000,685589,1000.00,12,0,1,1046.725,2.130,6.365,1003.824,-0.529,1.348
1.499000,685590,1000.00,12,0,1,1045.572,3.687,6.343,1005.697,1.613,1.354
1.500000,685591,1000.00,12,0,1,1043.530,-0.778,6.298,1008.100,3.190,1.394
1.501000,685592,1000.00,12,0,1,1042.089,-1.308,6.300,1006.682,2.355,1.420
1.502000,685593,1000.00,12,0,1,1043.578,-1.284,6.286,1005.577,0.045,1.418
1.503000,685594,1000.00,12,0,1,1048.526,2.760,6.285,1006.394,1.023,1.424
1.504000,685595,1000.00,12,0,1,1045.620,0.659,6.097,1004.617,-0.526,1.404
1.505000,685596,1000.00,12,0,1,1043.194,-3.904,6.047,1004.232,-1.337,1.377
1.506000,685597,1000.00,12,0,1,1046.701,-0.343,6.046,1005.842,0.414,1.378
1.507000,685598,1000.00,12,0,1,1053.931,5.100,6.083,1007.763,1.989,1.360
1.508000,685599,1000.00,12,0,1,1053.210,5.450,6.038,1005.553,0.439,1.361
1.509000,685600,1000.00,12,0,1,1055.084,4.094,5.867,1008.076,1.144,1.349
1.510000,685601,1000.00,12,0,1,1057.822,7.307,5.857,1005.962,0.927,1.350
1.511000,685602,1000.00,12,0,1,1050.256,0.372,5.827,1004.977,-1.802,1.373
1.512000,685603,1000.00,12,0,1,1048.214,-3.075,5.832,1003.440,-1.710,1.371
1.513000,685604,1000.00,12,0,1,1045.644,-2.679,5.842,1004.424,-1.762,1.390
1.514000,685605,1000.00,12,0,1,1044.299,-4.265,5.872,1004.857,-0.175,1.341
1.515000,685606,1000.00,12,0,1,1038.990,-5.861,5.929,1006.298,0.478,1.305
1.516000,685607,1000.00,12,0,1,1039.350,-6.156,5.993,1005.697,0.563,1.299
1.517000,685608,1000.00,12,0,1,1039.038,-3.011,6.002,1003.656,-1.581,1.316
1.518000,685609,1000.00,12,0,1,1026.595,-12.357,6.248,1004.953,-0.795,1.313
1.519000,685610,1000.00,12,0,1,1012.880,-23.117,7.012,1005.073,0.249,1.309
1.520000,685611,1000.00,12,0,1,1017.852,-16.868,7.324,1004.977,-0.575,1.282
1.521000,685612,1000.00,12,0,1,1024.554,-5.767,7.279,1003.512,-1.047,1.290
1.522000,685613,1000.00,12,0,1,1030.607,0.026,7.198,1004.761,-0.833,1.294
1.523000,685614,1000.00,12,0,1,1043.578,11.286,7.371,1004.232,-0.019,1.288
1.524000,685615,1000.00,12,0,1,1050.184,17.048,7.707,1003.223,-1.641,1.305
1.525000,685616,1000.00,12,0,1,1054.435,16.511,8.018,1005.409,0.584,1.300
1.526000,685617,1000.00,12,0,1,1059.624,18.551,8.387,1004.881,0.719,1.304
1.527000,685618,1000.00,12,0,1,1061.858,16.817,8.691,1004.617,-0.203,1.287
1.528000,685619,1000.00,12,0,1,1055.204,8.870,8.779,1004.016,-0.082,1.273
1.529000,685620,1000.00,12,0,1,1029.022,-14.467,8.989,1003.416,-0.967,1.239
1.530000,685621,1000.00,12,0,1,1031.231,-16.777,9.285,1002.671,-1.036,1.214
1.531000,685622,1000.00,12,0,1,1040.696,-0.443,9.236,1002.647,-1.127,1.191
1.532000,685623,1000.00,12,0,1,1035.363,-4.288,9.051,1006.106,1.965,1.220
1.533000,685624,1000.00,12,0,1,1029.454,-7.759,9.043,1006.442,2.928,1.286
1.534000,685625,1000.00,12,0,1,1036.540,-0.523,9.041,1005.577,1.199,1.296
1.535000,685626,1000.00,12,0,1,1048.214,12.077,9.173,1005.049,0.821,1.284
1.536000,685627,1000.00,12,0,1,1051.601,15.488,9.297,1003.632,-0.646,1.287
1.537000,685628,1000.00,12,0,1,1051.145,12.416,9.419,1001.638,-2.251,1.298
1.538000,685629,1000.00,12,0,1,1048.094,8.562,9.490,1004.400,-0.231,1.294
1.539000,685630,1000.00,12,0,1,1043.194,1.732,9.488,1006.298,2.392,1.314
1.540000,685631,1000.00,12,0,1,1044.323,1.047,9.375,1006.130,1.608,1.331
1.541000,685632,1000.00,12,0,1,1050.016,4.719,9.188,1006.730,1.790,1.355
1.542000,685633,1000.00,12,0,1,1049.439,3.487,9.008,1005.842,0.976,1.349
1.543000,685634,1000.00,12,0,1,1044.803,-3.153,9.001,1006.202,0.511,1.351
1.544000,685635,1000.00,12,0,1,1039.038,-8.887,9.022,1007.115,1.528,1.342
1.545000,685636,1000.00,12,0,1,1041.440,-8.199,9.047,1003.800,-1.333,1.344
1.546000,685637,1000.00,12,0,1,1045.620,-2.983,9.036,1004.040,-1.975,1.373
1.547000,685638,1000.00,12,0,1,1041.825,-5.845,9.066,1004.593,-0.416,1.351
1.548000,685639,1000.00,12,0,1,1039.999,-7.933,9.130,1004.737,-0.649,1.352
1.549000,685640,1000.00,12,0,1,1042.233,-4.348,9.136,1004.520,-0.374,1.334
1.550000,685641,1000.00,12,0,1,1045.524,-0.523,9.136,1004.713,-0.391,1.256
1.551000,685642,1000.00,12,0,1,1038.438,-4.113,9.152,1005.601,0.535,1.213
1.552000,685643,1000.00,12,0,1,1025.202,-15.062,9.395,1004.496,-0.160,1.214
1.553000,685644,1000.00,12,0,1,1033.898,-7.001,9.439,1004.520,-0.665,1.209
1.554000,685645,1000.00,12,0,1,1041.248,5.368,9.469,1004.376,-0.209,1.207
1.555000,685646,1000.00,12,0,1,1032.769,-1.524,9.455,1005.361,0.145,1.192
1.556000,685647,1000.00,12,0,1,1031.159,-3.488,9.468,1003.776,-0.463,1.192
1.557000,685648,1000.00,12,0,1,1030.367,-1.381,9.443,1004.448,-0.852,1.165
1.558000,685649,1000.00,12,0,1,1020.350,-8.985,9.496,1007.403,2.301,1.208
1.559000,685650,1000.00,12,0,1,1019.269,-10.059,9.585,1005.722,0.979,1.205
1.560000,685651,1000.00,12,0,1,1025.779,-1.786,9.532,1004.617,-0.948,1.205
1.561000,685652,1000.00,12,0,1,1029.070,2.131,9.537,1005.169,-0.079,1.178
1.562000,685653,1000.00,12,0,1,1028.181,1.222,9.529,1004.881,-0.416,1.155
1.563000,685654,1000.00,12,0,1,1031.231,2.643,9.529,1004.857,-0.402,1.129
1.564000,685655,1000.00,12,0,1,1031.712,3.505,9.522,1002.815,-1.814,1.157
1.565000,685656,1000.00,12,0,1,1026.764,-1.670,9.489,1003.656,-1.517,1.175
1.566000,685657,1000.00,12,0,1,1035.940,4.132,9.467,1004.809,0.418,1.174
1.567000,685658,1000.00,12,0,1,1049.367,17.178,9.765,1004.208,-0.203,1.153
1.568000,685659,1000.00,12,0,1,1042.449,10.725,9.726,1003.608,-0.633,1.151
1.569000,685660,1000.00,12,0,1,1039.567,3.715,9.175,1006.178,1.355,1.166
1.570000,685661,1000.00,12,0,1,1035.243,2.089,8.864,1005.481,1.521,1.183
1.571000,685662,1000.00,12,0,1,1027.700,-5.467,8.861,1005.649,0.581,1.177
1.572000,685663,1000.00,12,0,1,1031.784,-1.122,8.862,1005.890,1.286,1.185
1.573000,685664,1000.00,12,0,1,1039.999,8.294,8.796,1004.448,-0.317,1.186
1.574000,685665,1000.00,12,0,1,1037.405,7.145,8.519,1005.722,0.341,1.164
1.575000,685666,1000.00,12,0,1,1026.812,-2.395,8.200,1004.665,0.188,1.161
1.576000,685667,1000.00,12,0,1,1024.554,-5.095,7.802,1006.850,0.795,1.162
1.577000,685668,1000.00,12,0,1,1026.571,-0.990,7.432,1005.169,0.774,1.167
1.578000,685669,1000.00,12,0,1,1028.637,0.893,7.326,1003.872,-1.932,1.198
1.579000,685670,1000.00,12,0,1,1028.013,1.085,7.037,1004.737,-0.321,1.191
1.580000,685671,1000.00,12,0,1,1031.376,2.312,6.633,1004.833,-0.356,1.183
1.581000,685672,1000.00,12,0,1,1031.760,3.147,6.647,1006.082,0.620,1.176
1.582000,685673,1000.00,12,0,1,1033.730,2.172,6.627,1004.520,-0.174,1.143
1.583000,685674,1000.00,12,0,1,1032.553,1.147,6.537,1003.512,-1.821,1.096
1.584000,685675,1000.00,12,0,1,1029.982,-3.206,6.553,1004.544,-0.325,1.084
1.585000,685676,1000.00,12,0,1,1031.183,-2.822,6.339,1005.121,0.197,1.078
1.586000,685677,1000.00,12,0,1,1024.578,-7.306,6.037,1003.896,-0.539,1.077
1.587000,685678,1000.00,12,0,1,1021.407,-11.433,5.998,1004.496,-0.478,1.031
1.588000,685679,1000.00,12,0,1,1023.449,-6.842,5.954,1004.689,0.346,1.031
1.589000,685680,1000.00,12,0,1,1030.703,0.003,5.949,1003.367,-0.967,0.984
1.590000,685681,1000.00,12,0,1,1031.183,3.493,5.968,1004.520,-0.132,0.957
1.591000,685682,1000.00,12,0,1,1035.964,5.825,5.987,1004.569,0.546,0.927
1.592000,685683,1000.00,12,0,1,1039.663,11.182,6.173,1004.929,0.305,0.917
1.593000,685684,1000.00,12,0,1,1032.553,4.556,6.190,1006.971,2.208,0.966
1.594000,685685,1000.00,12,0,1,1022.152,-4.846,6.100,1006.995,2.161,0.990
1.595000,685686,1000.00,12,0,1,1018.188,-7.475,6.081,1006.274,0.948,0.981
1.596000,685687,1000.00,12,0,1,1016.867,-6.301,6.132,1003.584,-1.266,0.957
1.597000,685688,1000.00,12,0,1,1018.765,-3.140,6.092,1004.376,-1.353,0.975
1.598000,685689,1000.00,12,0,1,1021.119,0.407,5.988,1005.217,0.354,0.972
1.599000,685690,1000.00,12,0,1,1027.652,5.775,6.012,1005.073,-0.185,0.971
1.600000,685691,1000.00,12,0,1,1038.438,14.299,6.343,1003.872,-0.872,0.977
1.601000,685692,1000.00,12,0,1,1035.099,11.058,6.507,1003.536,-1.413,0.994
1.602000,685693,1000.00,12,0,1,1032.264,3.317,6.166,1007.043,1.596,1.019
1.603000,685694,1000.00,12,0,1,1035.723,5.374,6.133,1003.824,0.029,1.015
1.604000,685695,1000.00,12,0,1,1042.569,8.529,6.204,1003.007,-2.424,1.071
1.605000,685696,1000.00,12,0,1,1044.779,9.304,6.339,1004.569,0.303,1.071
1.606000,685697,1000.00,12,0,1,1054.676,13.118,6.586,1005.385,0.596,1.073
1.607000,685698,1000.00,12,0,1,1058.471,15.985,6.961,1006.923,2.025,1.104
1.608000,685699,1000.00,12,0,1,1059.288,11.517,7.035,1007.379,2.275,1.103
1.609000,685700,1000.00,12,0,1,1033.081,-9.470,7.018,1007.355,1.676,1.119
1.610000,685701,1000.00,12,0,1,1029.982,-19.397,7.531,1005.770,0.302,1.112
1.611000,685702,1000.00,12,0,1,1024.554,-14.427,7.797,1005.073,-0.996,1.121
