# FW/GUI: v9.6.1-multi17-dual (PyQt5)
# StartTime: 2026-04-03 16:20:28
# Slot: 13
# DeviceID: 13
# Label: EMG13
# IP: 192.168.137.206
# TCP: 3333
# DeviceFW: EMG_FW_v9.6_MULTI17_DUALCH_RUNTIMECFG_CHEN
# IMU1_RefTime = format(imu_ms) = relative since power-on Time (IMU acquisition time)
IMU1_RefTime,ax_g,ay_g,az_g,gx_dps,gy_dps,gz_dps,mx_uT,my_uT,mz_uT,temp_C,qw,qx,qy,qz
'00:12:21.984,0.060059,0.029785,1.002441,0.426829,1.341463,-0.548781,-4.775000,17.500000,19.287500,29.876,0.56785593,-0.00987576,-0.02897978,-0.82255837
'00:12:21.994,0.060547,0.030273,1.004395,0.304878,1.280488,-0.548781,-5.081250,17.906250,19.618750,29.891,0.56785104,-0.00987576,-0.02897846,-0.82256180
'00:12:22.004,0.059082,0.030273,1.003418,0.365854,1.341463,-0.548781,-5.081250,17.906250,19.618750,29.876,0.56784639,-0.00986060,-0.02897334,-0.82256537
'00:12:22.014,0.059082,0.029785,1.003906,0.365854,1.341463,-0.609756,-5.237500,18.150000,19.743750,29.891,0.56783238,-0.00984211,-0.02895959,-0.82257575
'00:12:22.024,0.059570,0.029297,1.005371,0.243902,1.280488,-0.548781,-5.237500,18.150000,19.743750,29.891,0.56782269,-0.00983870,-0.02893895,-0.82258321
'00:12:22.034,0.058594,0.029785,1.004395,0.304878,1.280488,-0.548781,-4.825000,17.568750,19.387501,29.921,0.56782870,-0.00984062,-0.02894028,-0.82257899
'00:12:22.044,0.061035,0.028809,1.002930,0.365854,1.341463,-0.548781,-4.825000,17.568750,19.387501,29.906,0.56783498,-0.00985280,-0.02894738,-0.82257426
'00:12:22.054,0.059570,0.029297,1.003418,0.365854,1.402439,-0.609756,-4.806250,17.512501,19.306250,29.937,0.56783726,-0.00985024,-0.02894858,-0.82257267
'00:12:22.066,0.059570,0.030273,1.004395,0.304878,1.341463,-0.548781,-4.806250,17.512501,19.306250,29.937,0.56784476,-0.00985140,-0.02895450,-0.82256727
'00:12:22.074,0.061523,0.029297,1.003906,0.304878,1.341463,-0.609756,-4.800000,17.587500,19.362501,29.906,0.56784791,-0.00986507,-0.02896186,-0.82256468
'00:12:22.084,0.061035,0.028809,1.002930,0.304878,1.341463,-0.548781,-4.800000,17.587500,19.362501,29.906,0.56785629,-0.00988153,-0.02896660,-0.82255853
'00:12:22.094,0.058594,0.028809,1.002441,0.365854,1.341463,-0.548781,-4.775000,17.550001,19.287500,29.906,0.56786595,-0.00988208,-0.02896756,-0.82255182
'00:12:22.106,0.058594,0.029297,1.003418,0.365854,1.402439,-0.548781,-4.775000,17.550001,19.287500,29.906,0.56787757,-0.00987489,-0.02896790,-0.82254387
'00:12:22.114,0.059082,0.029297,1.003418,0.243902,1.280488,-0.548781,-5.168750,17.931250,19.662500,29.876,0.56786943,-0.00987041,-0.02895016,-0.82255017
'00:12:22.124,0.060059,0.028320,1.003906,0.304878,1.280488,-0.548781,-5.168750,17.931250,19.662500,29.921,0.56785956,-0.00987085,-0.02893078,-0.82255765
'00:12:22.134,0.059570,0.029297,1.004395,0.304878,1.341463,-0.609756,-4.975000,17.750000,19.500000,29.906,0.56785474,-0.00986871,-0.02892265,-0.82256129
'00:12:22.146,0.060547,0.029297,1.004395,0.365854,1.402439,-0.548781,-4.787500,17.481251,19.293751,29.906,0.56786338,-0.00987260,-0.02892937,-0.82255505
'00:12:22.154,0.058594,0.028809,1.003906,0.365854,1.402439,-0.609756,-4.787500,17.481251,19.293751,29.876,0.56786575,-0.00986794,-0.02892565,-0.82255360
'00:12:22.164,0.059570,0.029785,1.003418,0.365854,1.341463,-0.548781,-4.787500,17.481251,19.293751,29.906,0.56787268,-0.00986840,-0.02893357,-0.82254853
'00:12:22.174,0.060059,0.029297,1.002441,0.365854,1.341463,-0.609756,-4.831250,17.506250,19.325001,29.937,0.56787269,-0.00987123,-0.02893798,-0.82254834
'00:12:22.186,0.059570,0.029297,1.002441,0.304878,1.341463,-0.609756,-4.806250,17.493750,19.343750,29.937,0.56787428,-0.00987666,-0.02893760,-0.82254719
'00:12:22.194,0.060059,0.029785,1.003906,0.365854,1.341463,-0.548781,-4.806250,17.493750,19.343750,29.906,0.56787878,-0.00987829,-0.02894407,-0.82254383
'00:12:22.204,0.060059,0.030273,1.003906,0.304878,1.280488,-0.548781,-5.106250,17.956251,19.643751,29.937,0.56787328,-0.00987500,-0.02894085,-0.82254778
'00:12:22.214,0.059570,0.028809,1.005371,0.304878,1.280488,-0.548781,-5.106250,17.956251,19.643751,29.906,0.56786813,-0.00987444,-0.02892715,-0.82255182
'00:12:22.226,0.060547,0.029297,1.003906,0.304878,1.280488,-0.609756,-4.981250,17.837500,19.500000,29.906,0.56786405,-0.00988455,-0.02892772,-0.82255450
'00:12:22.234,0.059570,0.029785,1.004883,0.304878,1.341463,-0.548781,-4.981250,17.837500,19.500000,29.906,0.56786490,-0.00988186,-0.02892453,-0.82255406
'00:12:22.244,0.060547,0.029785,1.003418,0.365854,1.341463,-0.548781,-4.806250,17.562500,19.350000,29.921,0.56787216,-0.00988764,-0.02893657,-0.82254855
'00:12:22.254,0.059570,0.029785,1.003418,0.304878,1.341463,-0.609756,-4.806250,17.562500,19.350000,29.906,0.56787498,-0.00989075,-0.02894029,-0.82254644
'00:12:22.266,0.060547,0.030273,1.002441,0.304878,1.341463,-0.609756,-4.843750,17.543751,19.343750,29.906,0.56787451,-0.00989573,-0.02894891,-0.82254640
'00:12:22.274,0.060059,0.029785,1.004395,0.365854,1.341463,-0.609756,-4.843750,17.543751,19.343750,29.876,0.56787433,-0.00989560,-0.02895370,-0.82254635
'00:12:22.284,0.059570,0.030273,1.004395,0.365854,1.341463,-0.609756,-4.831250,17.606251,19.325001,29.921,0.56787646,-0.00989240,-0.02896302,-0.82254460
'00:12:22.294,0.060059,0.028809,1.003418,0.365854,1.341463,-0.548781,-4.831250,17.606251,19.325001,29.891,0.56788322,-0.00989803,-0.02896612,-0.82253975
'00:12:22.304,0.059082,0.029297,1.003906,0.304878,1.341463,-0.548781,-5.150000,18.050001,19.668751,29.937,0.56787719,-0.00988731,-0.02894934,-0.82254463
'00:12:22.314,0.059082,0.029785,1.003418,0.304878,1.280488,-0.609756,-5.150000,18.050001,19.668751,29.891,0.56786660,-0.00987924,-0.02893882,-0.82255241
'00:12:22.324,0.060059,0.028320,1.003418,0.426829,1.341463,-0.609756,-5.125000,18.050001,19.637501,29.876,0.56785839,-0.00987318,-0.02893177,-0.82255840
'00:12:22.334,0.060059,0.029785,1.004883,0.426829,1.402439,-0.548781,-5.125000,18.050001,19.637501,29.937,0.56785448,-0.00985712,-0.02892932,-0.82256138
'00:12:22.344,0.059082,0.029785,1.002930,0.304878,1.341463,-0.548781,-4.781250,17.525000,19.350000,29.891,0.56786267,-0.00985933,-0.02893259,-0.82255558
'00:12:22.354,0.059570,0.029785,1.003418,0.243902,1.280488,-0.548781,-4.781250,17.525000,19.350000,29.876,0.56787061,-0.00987149,-0.02893612,-0.82254983
'00:12:22.364,0.060547,0.030273,1.004395,0.304878,1.341463,-0.609756,-4.837500,17.556250,19.281250,29.906,0.56787129,-0.00987590,-0.02894356,-0.82254905
'00:12:22.374,0.061035,0.028809,1.004395,0.365854,1.341463,-0.548781,-4.837500,17.556250,19.281250,29.937,0.56787666,-0.00988577,-0.02894880,-0.82254504
'00:12:22.384,0.061035,0.028809,1.004395,0.365854,1.341463,-0.548781,-4.768750,17.493750,19.325001,29.937,0.56788511,-0.00989910,-0.02895770,-0.82253873
'00:12:22.394,0.058594,0.029297,1.004883,0.365854,1.341463,-0.548781,-4.768750,17.493750,19.325001,29.906,0.56789352,-0.00989658,-0.02895952,-0.82253289
'00:12:22.404,0.060547,0.028809,1.004395,0.304878,1.341463,-0.609756,-4.787500,17.462500,19.331251,29.906,0.56789539,-0.00990825,-0.02895971,-0.82253145
'00:12:22.414,0.060547,0.029785,1.001953,0.304878,1.341463,-0.548781,-4.787500,17.462500,19.331251,29.876,0.56790138,-0.00991657,-0.02896635,-0.82252698
'00:12:22.424,0.059570,0.030273,1.002930,0.365854,1.341463,-0.548781,-5.006250,17.831251,19.587500,29.937,0.56789992,-0.00990670,-0.02896717,-0.82252808
'00:12:22.434,0.060059,0.029297,1.002441,0.426829,1.402439,-0.548781,-5.006250,17.831251,19.587500,29.906,0.56789888,-0.00989618,-0.02896592,-0.82252897
'00:12:22.444,0.058594,0.030273,1.002930,0.365854,1.341463,-0.548781,-4.868750,17.662500,19.350000,29.937,0.56790392,-0.00988651,-0.02897011,-0.82252545
'00:12:22.454,0.059570,0.029785,1.003906,0.243902,1.280488,-0.609756,-4.756250,17.487501,19.318750,29.906,0.56790824,-0.00989876,-0.02897383,-0.82252220
'00:12:22.464,0.059570,0.029785,1.002930,0.365854,1.280488,-0.548781,-4.756250,17.487501,19.318750,29.921,0.56791698,-0.00990513,-0.02898654,-0.82251564
'00:12:22.474,0.060059,0.029297,1.002930,0.365854,1.341463,-0.548781,-4.818750,17.556250,19.375000,29.921,0.56792291,-0.00990884,-0.02899169,-0.82251132
'00:12:22.484,0.059570,0.029785,1.002930,0.426829,1.402439,-0.548781,-4.818750,17.556250,19.375000,29.876,0.56792892,-0.00990044,-0.02899897,-0.82250701
'00:12:22.494,0.060547,0.029785,1.003906,0.365854,1.341463,-0.609756,-4.806250,17.550001,19.306250,29.921,0.56793133,-0.00990505,-0.02900920,-0.82250493
'00:12:22.504,0.059570,0.029785,1.003906,0.243902,1.280488,-0.609756,-4.806250,17.550001,19.306250,29.876,0.56793348,-0.00991459,-0.02900975,-0.82250331
'00:12:22.514,0.060059,0.029785,1.003418,0.304878,1.341463,-0.548781,-5.137500,18.000000,19.656250,29.906,0.56792678,-0.00990694,-0.02899841,-0.82250843
'00:12:22.524,0.061035,0.029785,1.003906,0.304878,1.280488,-0.609756,-5.137500,18.000000,19.656250,29.906,0.56791558,-0.00990884,-0.02899385,-0.82251630
'00:12:22.534,0.060059,0.029297,1.002930,0.426829,1.341463,-0.548781,-4.956250,17.800001,19.518751,29.952,0.56791723,-0.00990482,-0.02899816,-0.82251506
'00:12:22.544,0.060059,0.029297,1.003418,0.426829,1.402439,-0.609756,-4.956250,17.800001,19.518751,29.876,0.56791466,-0.00989623,-0.02899925,-0.82251690
'00:12:22.554,0.061035,0.029785,1.002930,0.304878,1.341463,-0.609756,-4.787500,17.512501,19.437500,29.952,0.56791689,-0.00990797,-0.02900773,-0.82251492
'00:12:22.564,0.059570,0.029297,1.002930,0.304878,1.341463,-0.548781,-4.787500,17.512501,19.437500,29.937,0.56792362,-0.00991344,-0.02900748,-0.82251021
'00:12:22.574,0.059570,0.029297,1.003418,0.243902,1.280488,-0.548781,-4.800000,17.600000,19.337500,29.906,0.56793175,-0.00992621,-0.02900706,-0.82250446
'00:12:22.584,0.060059,0.028809,1.004395,0.365854,1.280488,-0.548781,-4.800000,17.600000,19.337500,29.906,0.56794003,-0.00993714,-0.02901407,-0.82249836
'00:12:22.594,0.060547,0.029785,1.004395,0.365854,1.341463,-0.548781,-4.918750,17.650000,19.350000,29.921,0.56794108,-0.00993581,-0.02901726,-0.82249754
'00:12:22.604,0.060547,0.029297,1.003906,0.304878,1.341463,-0.548781,-4.918750,17.650000,19.350000,29.906,0.56794217,-0.00993951,-0.02901349,-0.82249688
'00:12:22.614,0.059570,0.028809,1.003906,0.365854,1.341463,-0.609756,-4.975000,17.750000,19.531250,29.937,0.56793684,-0.00993502,-0.02900534,-0.82250090
'00:12:22.624,0.060547,0.028320,1.003418,0.304878,1.341463,-0.609756,-4.975000,17.750000,19.531250,29.921,0.56793156,-0.00994102,-0.02899418,-0.82250487
'00:12:22.634,0.060059,0.030273,1.003418,0.365854,1.341463,-0.548781,-5.100000,18.012501,19.593750,29.891,0.56792783,-0.00993029,-0.02899337,-0.82250760
'00:12:22.644,0.059570,0.029785,1.002930,0.365854,1.341463,-0.548781,-5.100000,18.012501,19.593750,29.906,0.56792424,-0.00991905,-0.02898823,-0.82251040
'00:12:22.654,0.059570,0.029785,1.003906,0.365854,1.341463,-0.609756,-4.781250,17.493750,19.325001,29.891,0.56792701,-0.00991884,-0.02899542,-0.82250823
'00:12:22.664,0.060059,0.029785,1.004395,0.426829,1.402439,-0.609756,-4.781250,17.493750,19.325001,29.921,0.56792996,-0.00991384,-0.02900552,-0.82250590
'00:12:22.674,0.060059,0.029297,1.002930,0.365854,1.280488,-0.548781,-4.806250,17.425001,19.275000,29.891,0.56793380,-0.00992038,-0.02901135,-0.82250296
'00:12:22.684,0.058594,0.030273,1.002930,0.304878,1.341463,-0.609756,-4.806250,17.425001,19.275000,29.891,0.56793318,-0.00991329,-0.02900960,-0.82250354
'00:12:22.694,0.059082,0.029297,1.004395,0.304878,1.341463,-0.609756,-4.793750,17.481251,19.375000,29.891,0.56793459,-0.00991442,-0.02900573,-0.82250269
'00:12:22.704,0.059082,0.030273,1.003418,0.304878,1.341463,-0.609756,-4.793750,17.481251,19.375000,29.937,0.56793577,-0.00991187,-0.02900790,-0.82250183
'00:12:22.714,0.059570,0.028809,1.003418,0.304878,1.341463,-0.609756,-5.093750,17.900000,19.562500,29.906,0.56792586,-0.00990611,-0.02899045,-0.82250936
'00:12:22.724,0.060059,0.029297,1.003906,0.365854,1.280488,-0.548781,-5.218750,18.050001,19.668751,29.891,0.56791500,-0.00989786,-0.02897921,-0.82251735
'00:12:22.734,0.060059,0.029297,1.003906,0.365854,1.341463,-0.548781,-5.218750,18.050001,19.668751,29.937,0.56790436,-0.00988541,-0.02896518,-0.82252534
'00:12:22.744,0.060547,0.029785,1.003906,0.304878,1.341463,-0.548781,-4.956250,17.737501,19.487501,29.937,0.56790457,-0.00988749,-0.02896409,-0.82252520
'00:12:22.754,0.059570,0.030762,1.004395,0.243902,1.280488,-0.548781,-4.956250,17.737501,19.487501,29.891,0.56790442,-0.00988767,-0.02896321,-0.82252534
'00:12:22.764,0.059082,0.029785,1.003418,0.365854,1.341463,-0.548781,-4.918750,17.662500,19.393751,29.937,0.56790591,-0.00987972,-0.02896241,-0.82252443
'00:12:22.774,0.059570,0.029297,1.003906,0.304878,1.280488,-0.548781,-4.918750,17.662500,19.393751,29.921,0.56790731,-0.00988377,-0.02895920,-0.82252353
'00:12:22.784,0.059082,0.028809,1.002930,0.304878,1.280488,-0.609756,-4.806250,17.575001,19.362501,29.937,0.56791030,-0.00989262,-0.02895847,-0.82252139
'00:12:22.794,0.059570,0.031250,1.004395,0.365854,1.341463,-0.609756,-4.806250,17.575001,19.362501,29.891,0.56791294,-0.00988671,-0.02897427,-0.82251908
'00:12:22.804,0.060059,0.029785,1.003418,0.365854,1.341463,-0.548781,-4.831250,17.587500,19.337500,29.906,0.56791887,-0.00988825,-0.02898210,-0.82251469
'00:12:22.814,0.059570,0.028809,1.004395,0.304878,1.280488,-0.609756,-4.831250,17.587500,19.337500,29.861,0.56792042,-0.00989790,-0.02898070,-0.82251355
'00:12:22.824,0.059570,0.029785,1.003906,0.365854,1.280488,-0.548781,-5.243750,18.006250,19.631250,29.891,0.56790701,-0.00988323,-0.02896773,-0.82252344
'00:12:22.834,0.060547,0.030273,1.004395,0.365854,1.341463,-0.548781,-5.243750,18.006250,19.631250,29.906,0.56789374,-0.00986776,-0.02895816,-0.82253313
'00:12:22.844,0.060059,0.029297,1.003418,0.365854,1.341463,-0.548781,-5.050000,17.837500,19.456251,29.906,0.56789034,-0.00986218,-0.02895265,-0.82253574
'00:12:22.854,0.059082,0.029297,1.004395,0.365854,1.402439,-0.609756,-5.050000,17.837500,19.456251,29.921,0.56788278,-0.00984667,-0.02894020,-0.82254158
'00:12:22.865,0.060059,0.030762,1.003418,0.365854,1.341463,-0.548781,-4.800000,17.493750,19.356251,29.861,0.56788918,-0.00984572,-0.02895591,-0.82253662
'00:12:22.874,0.059570,0.029785,1.002930,0.365854,1.280488,-0.548781,-4.800000,17.493750,19.356251,29.861,0.56789444,-0.00984998,-0.02896470,-0.82253263
'00:12:22.884,0.059082,0.029297,1.003906,0.304878,1.280488,-0.548781,-4.762500,17.468750,19.343750,29.906,0.56790241,-0.00985860,-0.02896722,-0.82252693
'00:12:22.894,0.061035,0.028320,1.004883,0.304878,1.280488,-0.609756,-4.762500,17.468750,19.343750,29.876,0.56790610,-0.00988141,-0.02897134,-0.82252397
'00:12:22.904,0.059570,0.030273,1.003906,0.365854,1.341463,-0.548781,-4.781250,17.506250,19.325001,29.967,0.56791360,-0.00988026,-0.02898196,-0.82251843
'00:12:22.914,0.059082,0.030273,1.003418,0.304878,1.341463,-0.609756,-4.781250,17.506250,19.325001,29.921,0.56791665,-0.00987934,-0.02898637,-0.82251618
'00:12:22.924,0.061035,0.028809,1.002441,0.365854,1.280488,-0.609756,-5.000000,17.775000,19.550001,29.846,0.56791016,-0.00988750,-0.02898673,-0.82252055
'00:12:22.934,0.059570,0.029785,1.002930,0.304878,1.280488,-0.548781,-5.000000,17.775000,19.550001,29.937,0.56790784,-0.00988679,-0.02898235,-0.82252232
'00:12:22.944,0.061035,0.029297,1.003906,0.304878,1.280488,-0.548781,-5.006250,17.762501,19.531250,29.906,0.56790496,-0.00989523,-0.02897979,-0.82252429
'00:12:22.955,0.060059,0.028809,1.002441,0.304878,1.341463,-0.548781,-4.806250,17.550001,19.318750,29.906,0.56791267,-0.00990565,-0.02897906,-0.82251887
'00:12:22.964,0.058594,0.029785,1.003418,0.365854,1.341463,-0.548781,-4.806250,17.550001,19.318750,29.876,0.56791886,-0.00990034,-0.02898191,-0.82251456
'00:12:22.974,0.059570,0.029297,1.003418,0.365854,1.341463,-0.548781,-4.762500,17.437500,19.256250,29.876,0.56792644,-0.00990282,-0.02898689,-0.82250912
'00:12:22.984,0.060547,0.029297,1.004395,0.365854,1.341463,-0.548781,-4.762500,17.437500,19.256250,29.921,0.56793395,-0.00991045,-0.02899515,-0.82250355
'00:12:22.994,0.059082,0.028809,1.003418,0.365854,1.341463,-0.609756,-4.806250,17.537500,19.275000,29.921,0.56793643,-0.00991049,-0.02899419,-0.82250188
'00:12:23.004,0.059082,0.029297,1.003418,0.365854,1.341463,-0.548781,-4.806250,17.537500,19.275000,29.876,0.56794317,-0.00990875,-0.02899595,-0.82249718
'00:12:23.014,0.059570,0.028809,1.004395,0.365854,1.402439,-0.548781,-5.043750,17.781250,19.537500,29.906,0.56793851,-0.00989681,-0.02898046,-0.82250109
'00:12:23.024,0.059082,0.029297,1.003906,0.304878,1.341463,-0.548781,-5.043750,17.781250,19.537500,29.952,0.56793361,-0.00988801,-0.02896495,-0.82250512
'00:12:23.034,0.059082,0.028809,1.002930,0.304878,1.341463,-0.609756,-5.075000,17.975000,19.606251,29.906,0.56792666,-0.00988236,-0.02894964,-0.82251052
'00:12:23.044,0.060059,0.028320,1.002930,0.304878,1.280488,-0.548781,-5.075000,17.975000,19.606251,29.876,0.56792407,-0.00988854,-0.02893857,-0.82251263
'00:12:23.054,0.060059,0.029785,1.002930,0.365854,1.341463,-0.548781,-4.843750,17.543751,19.312500,29.906,0.56792821,-0.00988875,-0.02894518,-0.82250953
'00:12:23.064,0.060059,0.028809,1.002930,0.426829,1.402439,-0.548781,-4.843750,17.543751,19.312500,29.906,0.56793275,-0.00988536,-0.02894749,-0.82250636
'00:12:23.075,0.059082,0.029297,1.002930,0.426829,1.402439,-0.548781,-4.806250,17.537500,19.393751,29.906,0.56793999,-0.00987632,-0.02895168,-0.82250133
'00:12:23.084,0.060059,0.030273,1.002441,0.365854,1.341463,-0.548781,-4.806250,17.537500,19.393751,29.906,0.56794548,-0.00987719,-0.02896243,-0.82249714
'00:12:23.094,0.060059,0.029297,1.002930,0.304878,1.280488,-0.609756,-4.825000,17.487501,19.275000,29.891,0.56794518,-0.00988689,-0.02896472,-0.82249715
'00:12:23.104,0.060059,0.028809,1.004395,0.304878,1.280488,-0.609756,-4.825000,17.487501,19.275000,29.921,0.56794498,-0.00989803,-0.02896361,-0.82249720
'00:12:23.114,0.060547,0.030273,1.003418,0.365854,1.280488,-0.609756,-4.837500,17.568750,19.343750,29.921,0.56794524,-0.00990370,-0.02897825,-0.82249643
'00:12:23.124,0.059082,0.029785,1.004395,0.365854,1.341463,-0.548781,-4.837500,17.568750,19.343750,29.906,0.56795017,-0.00989864,-0.02898078,-0.82249300
'00:12:23.134,0.059082,0.029785,1.004395,0.365854,1.341463,-0.548781,-5.362500,18.318750,19.812500,29.906,0.56793568,-0.00987499,-0.02896125,-0.82250398
'00:12:23.144,0.059570,0.029785,1.003906,0.365854,1.402439,-0.609756,-5.362500,18.318750,19.812500,29.921,0.56791709,-0.00984992,-0.02894114,-0.82251782
'00:12:23.154,0.059082,0.029297,1.002441,0.304878,1.341463,-0.609756,-4.906250,17.618750,19.418751,29.921,0.56791404,-0.00984773,-0.02893385,-0.82252021
'00:12:23.164,0.060547,0.028809,1.004395,0.304878,1.280488,-0.548781,-4.906250,17.618750,19.418751,29.921,0.56791531,-0.00985969,-0.02893177,-0.82251926
'00:12:23.174,0.059570,0.028809,1.003906,0.365854,1.280488,-0.548781,-4.812500,17.525000,19.337500,29.876,0.56792126,-0.00986741,-0.02893569,-0.82251493
'00:12:23.184,0.060059,0.029297,1.003906,0.365854,1.341463,-0.548781,-4.812500,17.525000,19.337500,29.937,0.56792719,-0.00987141,-0.02894117,-0.82251059
'00:12:23.194,0.060059,0.028320,1.004883,0.426829,1.402439,-0.548781,-4.781250,17.493750,19.281250,29.937,0.56793520,-0.00987290,-0.02894378,-0.82250495
'00:12:23.204,0.060547,0.028809,1.003418,0.426829,1.402439,-0.609756,-4.781250,17.493750,19.281250,29.952,0.56793866,-0.00987529,-0.02895161,-0.82250226
'00:12:23.214,0.059570,0.029785,1.002441,0.365854,1.341463,-0.548781,-4.800000,17.518751,19.343750,29.952,0.56794510,-0.00987547,-0.02895903,-0.82249755
'00:12:23.224,0.059570,0.029785,1.001953,0.304878,1.280488,-0.548781,-4.800000,17.518751,19.343750,29.906,0.56795129,-0.00988311,-0.02896516,-0.82249296
'00:12:23.235,0.060059,0.030762,1.002441,0.304878,1.341463,-0.609756,-5.068750,17.868750,19.568750,29.952,0.56794102,-0.00987329,-0.02896231,-0.82250028
'00:12:23.245,0.060547,0.029297,1.003906,0.365854,1.341463,-0.609756,-5.162500,17.987501,19.743750,29.921,0.56792792,-0.00986617,-0.02895275,-0.82250974
'00:12:23.254,0.059082,0.029785,1.005859,0.304878,1.341463,-0.609756,-5.162500,17.987501,19.743750,29.876,0.56791610,-0.00985339,-0.02893715,-0.82251860
'00:12:23.264,0.059082,0.029785,1.004883,0.304878,1.341463,-0.609756,-4.806250,17.518751,19.281250,29.952,0.56791813,-0.00985307,-0.02893741,-0.82251720
'00:12:23.276,0.059570,0.028809,1.003418,0.304878,1.341463,-0.548781,-4.806250,17.518751,19.281250,29.906,0.56792600,-0.00986110,-0.02893396,-0.82251179
'00:12:23.284,0.059570,0.029297,1.004395,0.365854,1.341463,-0.548781,-4.762500,17.493750,19.293751,29.876,0.56793313,-0.00986416,-0.02893932,-0.82250664
'00:12:23.294,0.059570,0.029785,1.002930,0.365854,1.341463,-0.548781,-4.762500,17.493750,19.293751,29.906,0.56794189,-0.00986629,-0.02894926,-0.82250021
'00:12:23.304,0.059570,0.028320,1.004883,0.304878,1.280488,-0.548781,-4.806250,17.568750,19.281250,29.937,0.56794949,-0.00987934,-0.02894699,-0.82249489
'00:12:23.314,0.061035,0.029297,1.004883,0.304878,1.280488,-0.609756,-4.806250,17.568750,19.281250,29.891,0.56795240,-0.00989626,-0.02895590,-0.82249237
'00:12:23.324,0.059570,0.030273,1.004395,0.365854,1.341463,-0.548781,-4.950000,17.668751,19.387501,29.921,0.56795166,-0.00988684,-0.02895703,-0.82249295
'00:12:23.334,0.059082,0.028809,1.003418,0.426829,1.402439,-0.609756,-4.950000,17.668751,19.387501,29.921,0.56794710,-0.00987324,-0.02894987,-0.82249652
'00:12:23.345,0.060059,0.029785,1.003418,0.304878,1.341463,-0.548781,-5.093750,17.975000,19.668751,29.906,0.56794237,-0.00986799,-0.02894134,-0.82250014
'00:12:23.355,0.060059,0.028809,1.004883,0.304878,1.341463,-0.548781,-5.093750,17.975000,19.668751,29.906,0.56793833,-0.00986677,-0.02892774,-0.82250343
'00:12:23.364,0.059570,0.029297,1.002930,0.365854,1.341463,-0.548781,-4.881250,17.506250,19.375000,29.921,0.56793880,-0.00986414,-0.02892605,-0.82250319
'00:12:23.374,0.059082,0.029785,1.002930,0.365854,1.341463,-0.548781,-4.881250,17.506250,19.375000,29.906,0.56793923,-0.00985664,-0.02892508,-0.82250302
'00:12:23.384,0.059570,0.029785,1.004395,0.365854,1.341463,-0.609756,-4.793750,17.543751,19.250000,29.921,0.56794284,-0.00985704,-0.02893356,-0.82250023
'00:12:23.394,0.059570,0.028809,1.002930,0.304878,1.280488,-0.548781,-4.793750,17.543751,19.250000,29.891,0.56795077,-0.00986910,-0.02893552,-0.82249454
'00:12:23.404,0.059570,0.029297,1.003418,0.243902,1.280488,-0.548781,-4.837500,17.587500,19.362501,29.906,0.56795601,-0.00988018,-0.02893298,-0.82249088
'00:12:23.414,0.060059,0.029297,1.002930,0.365854,1.341463,-0.548781,-4.837500,17.587500,19.362501,29.937,0.56796145,-0.00988348,-0.02893824,-0.82248689
'00:12:23.424,0.060059,0.029297,1.002930,0.426829,1.341463,-0.548781,-4.806250,17.493750,19.293751,29.891,0.56796714,-0.00988412,-0.02894811,-0.82248261
'00:12:23.434,0.060547,0.030273,1.003906,0.365854,1.341463,-0.548781,-4.806250,17.493750,19.293751,29.921,0.56797252,-0.00988639,-0.02896045,-0.82247843
'00:12:23.444,0.059082,0.029785,1.003906,0.365854,1.280488,-0.548781,-5.156250,18.043751,19.693750,29.861,0.56796539,-0.00987470,-0.02895289,-0.82248376
'00:12:23.454,0.059570,0.027832,1.003418,0.304878,1.280488,-0.548781,-5.156250,18.043751,19.693750,29.906,0.56795864,-0.00987646,-0.02893236,-0.82248912
'00:12:23.464,0.060059,0.029297,1.004395,0.304878,1.280488,-0.609756,-4.900000,17.681250,19.356251,29.891,0.56795744,-0.00988416,-0.02893319,-0.82248983
'00:12:23.476,0.059082,0.029297,1.002930,0.365854,1.341463,-0.609756,-4.831250,17.481251,19.343750,29.937,0.56795632,-0.00987998,-0.02893255,-0.82249068
'00:12:23.484,0.059570,0.029297,1.003418,0.365854,1.402439,-0.609756,-4.831250,17.481251,19.343750,29.937,0.56795570,-0.00987585,-0.02893108,-0.82249121
'00:12:23.494,0.059570,0.029785,1.003418,0.426829,1.341463,-0.609756,-4.800000,17.481251,19.293751,29.937,0.56795712,-0.00987196,-0.02894203,-0.82248988
'00:12:23.504,0.061035,0.029297,1.004395,0.365854,1.341463,-0.548781,-4.800000,17.481251,19.293751,29.861,0.56796290,-0.00988111,-0.02895087,-0.82248547
'00:12:23.516,0.060547,0.029785,1.003418,0.365854,1.341463,-0.609756,-4.787500,17.493750,19.268751,29.891,0.56796596,-0.00988745,-0.02896447,-0.82248281
'00:12:23.524,0.059570,0.030273,1.002930,0.365854,1.341463,-0.609756,-4.787500,17.493750,19.268751,29.891,0.56796791,-0.00988579,-0.02897270,-0.82248119
'00:12:23.534,0.059082,0.030273,1.003906,0.304878,1.280488,-0.609756,-5.181250,18.043751,19.675001,29.891,0.56795466,-0.00987365,-0.02896157,-0.82249087
'00:12:23.544,0.060547,0.030273,1.003906,0.365854,1.341463,-0.548781,-5.181250,18.043751,19.675001,29.921,0.56794605,-0.00986242,-0.02895750,-0.82249710
'00:12:23.556,0.059570,0.029297,1.004395,0.365854,1.341463,-0.548781,-5.193750,18.025000,19.656250,29.906,0.56793464,-0.00984600,-0.02894009,-0.82250579
'00:12:23.564,0.059570,0.029785,1.003906,0.365854,1.341463,-0.609756,-5.193750,18.025000,19.656250,29.891,0.56792352,-0.00983376,-0.02893109,-0.82251393
'00:12:23.574,0.059570,0.029297,1.002930,0.304878,1.341463,-0.609756,-4.825000,17.543751,19.356251,29.967,0.56792460,-0.00983818,-0.02893030,-0.82251316
'00:12:23.584,0.059570,0.029785,1.003906,0.243902,1.280488,-0.609756,-4.825000,17.543751,19.356251,29.906,0.56792537,-0.00984778,-0.02893054,-0.82251251
'00:12:23.594,0.061035,0.028809,1.003418,0.243902,1.219512,-0.548781,-4.875000,17.537500,19.362501,29.937,0.56792683,-0.00987064,-0.02892997,-0.82251124
'00:12:23.604,0.059570,0.029297,1.003418,0.182927,1.219512,-0.609756,-4.875000,17.537500,19.362501,29.906,0.56792377,-0.00988602,-0.02892215,-0.82251344
'00:12:23.614,0.060547,0.029297,1.002930,0.243902,1.280488,-0.548781,-4.850000,17.537500,19.393751,29.937,0.56792685,-0.00990110,-0.02892159,-0.82251116
'00:12:23.624,0.061035,0.028809,1.003906,0.304878,1.341463,-0.609756,-4.850000,17.537500,19.393751,29.876,0.56792582,-0.00991279,-0.02892112,-0.82251174
'00:12:23.636,0.060059,0.029297,1.002930,0.365854,1.402439,-0.609756,-4.825000,17.493750,19.356251,29.906,0.56792574,-0.00991021,-0.02892262,-0.82251177
'00:12:23.644,0.060547,0.029785,1.003906,0.426829,1.341463,-0.548781,-4.825000,17.493750,19.356251,29.891,0.56792902,-0.00991018,-0.02893290,-0.82250915
'00:12:23.655,0.059082,0.029297,1.003418,0.182927,1.219512,-0.548781,-5.106250,17.918751,19.556250,29.891,0.56792215,-0.00991496,-0.02891248,-0.82251456
'00:12:23.664,0.059082,0.028809,1.004395,0.304878,1.280488,-0.548781,-5.106250,17.918751,19.556250,29.937,0.56791689,-0.00991098,-0.02889846,-0.82251873
'00:12:23.677,0.059570,0.029297,1.003418,0.487805,1.463415,-0.609756,-4.831250,17.606251,19.343750,29.937,0.56792027,-0.00989259,-0.02890830,-0.82251627
'00:12:23.684,0.060059,0.030273,1.003906,0.487805,1.463415,-0.548781,-4.831250,17.606251,19.343750,29.937,0.56792499,-0.00988209,-0.02891852,-0.82251277
'00:12:23.694,0.059570,0.029297,1.003906,0.365854,1.341463,-0.609756,-4.837500,17.468750,19.312500,29.906,0.56792358,-0.00988062,-0.02891913,-0.82251374
'00:12:23.704,0.059570,0.029785,1.004395,0.243902,1.219512,-0.548781,-4.837500,17.468750,19.312500,29.937,0.56792604,-0.00989209,-0.02891956,-0.82251190
'00:12:23.716,0.059570,0.029297,1.003418,0.304878,1.219512,-0.548781,-4.787500,17.487501,19.287500,29.891,0.56793400,-0.00990851,-0.02892775,-0.82250592
'00:12:23.724,0.060059,0.030762,1.003418,0.365854,1.402439,-0.548781,-4.787500,17.487501,19.287500,29.906,0.56793939,-0.00990386,-0.02893749,-0.82250191
'00:12:23.734,0.059570,0.029785,1.002930,0.365854,1.402439,-0.609756,-4.825000,17.537500,19.337500,29.891,0.56794031,-0.00989769,-0.02894044,-0.82250124
'00:12:23.744,0.059570,0.029785,1.004883,0.243902,1.280488,-0.548781,-4.825000,17.537500,19.337500,29.906,0.56794522,-0.00990614,-0.02893982,-0.82249777
'00:12:23.758,0.059570,0.030273,1.003906,0.182927,1.158537,-0.548781,-5.131250,17.981251,19.600000,29.891,0.56793535,-0.00991602,-0.02892708,-0.82250492
'00:12:23.764,0.060059,0.029297,1.002930,0.243902,1.219512,-0.609756,-4.981250,17.731251,19.450001,29.906,0.56793164,-0.00992260,-0.02892402,-0.82250751
'00:12:23.774,0.059082,0.029785,1.002930,0.426829,1.402439,-0.548781,-4.981250,17.731251,19.450001,29.891,0.56793038,-0.00990420,-0.02892200,-0.82250867
'00:12:23.784,0.060547,0.029297,1.003418,0.426829,1.463415,-0.548781,-4.762500,17.468750,19.281250,29.876,0.56793899,-0.00990086,-0.02893074,-0.82250246
'00:12:23.797,0.060059,0.030762,1.002930,0.365854,1.341463,-0.548781,-4.762500,17.468750,19.281250,29.937,0.56794926,-0.00990091,-0.02895269,-0.82249459
'00:12:23.804,0.060547,0.029785,1.003906,0.304878,1.341463,-0.609756,-4.818750,17.531250,19.375000,29.921,0.56794980,-0.00990569,-0.02895615,-0.82249404
'00:12:23.814,0.060059,0.029297,1.004395,0.365854,1.341463,-0.548781,-4.818750,17.531250,19.375000,29.876,0.56795509,-0.00990869,-0.02896050,-0.82249019
'00:12:23.824,0.061523,0.028809,1.003418,0.304878,1.341463,-0.548781,-4.806250,17.518751,19.268751,29.937,0.56796136,-0.00992512,-0.02896458,-0.82248552
'00:12:23.836,0.059082,0.029785,1.003418,0.365854,1.341463,-0.548781,-4.806250,17.518751,19.268751,29.921,0.56796876,-0.00992011,-0.02896994,-0.82248029
'00:12:23.844,0.059570,0.029785,1.004883,0.304878,1.280488,-0.609756,-5.137500,17.912500,19.562500,29.937,0.56795842,-0.00991376,-0.02896032,-0.82248785
'00:12:23.854,0.058594,0.030273,1.003418,0.243902,1.219512,-0.548781,-5.137500,17.912500,19.562500,29.952,0.56794962,-0.00990665,-0.02894666,-0.82249448
'00:12:23.864,0.058594,0.030273,1.003418,0.243902,1.219512,-0.548781,-5.187500,18.093750,19.706251,29.952,0.56794125,-0.00989970,-0.02893357,-0.82250081
'00:12:23.874,0.059082,0.029297,1.003906,0.243902,1.219512,-0.548781,-5.187500,18.093750,19.706251,29.876,0.56793312,-0.00989918,-0.02891700,-0.82250701
'00:12:23.884,0.059570,0.027832,1.003906,0.243902,1.341463,-0.609756,-4.856250,17.568750,19.343750,29.921,0.56793282,-0.00990952,-0.02890146,-0.82250764
'00:12:23.894,0.058594,0.029297,1.002930,0.365854,1.341463,-0.609756,-4.856250,17.568750,19.343750,29.876,0.56793235,-0.00990277,-0.02889979,-0.82250811
'00:12:23.904,0.060547,0.029785,1.004395,0.304878,1.280488,-0.548781,-4.887500,17.500000,19.287500,29.891,0.56793233,-0.00990921,-0.02890250,-0.82250795
'00:12:23.916,0.059082,0.028809,1.002930,0.426829,1.280488,-0.609756,-4.887500,17.500000,19.287500,29.921,0.56792745,-0.00990466,-0.02890357,-0.82251133
'00:12:23.924,0.060547,0.028809,1.004883,0.365854,1.402439,-0.548781,-4.868750,17.531250,19.312500,29.937,0.56792944,-0.00990467,-0.02890154,-0.82251003
'00:12:23.934,0.059570,0.030273,1.003418,0.365854,1.341463,-0.609756,-4.868750,17.531250,19.312500,29.921,0.56792712,-0.00989810,-0.02890719,-0.82251151
'00:12:23.944,0.059082,0.029297,1.005371,0.304878,1.280488,-0.548781,-5.075000,17.850000,19.487501,29.891,0.56792197,-0.00989255,-0.02889488,-0.82251557
'00:12:23.956,0.061035,0.028809,1.004395,0.304878,1.280488,-0.609756,-5.075000,17.850000,19.487501,29.891,0.56791066,-0.00990102,-0.02888651,-0.82252357
'00:12:23.964,0.059570,0.029785,1.004395,0.365854,1.280488,-0.609756,-5.037500,17.812500,19.468750,29.891,0.56790443,-0.00989614,-0.02888601,-0.82252795
'00:12:23.974,0.059082,0.029785,1.002441,0.243902,1.219512,-0.609756,-5.037500,17.812500,19.468750,29.891,0.56789641,-0.00989829,-0.02887860,-0.82253372
'00:12:23.984,0.059570,0.030762,1.001953,0.121951,1.097561,-0.548781,-4.775000,17.500000,19.331251,29.906,0.56790339,-0.00992543,-0.02888925,-0.82252820
'00:12:23.994,0.060547,0.029297,1.002930,0.060976,1.036585,-0.548781,-4.775000,17.500000,19.331251,29.891,0.56791036,-0.00997053,-0.02889332,-0.82252270
'00:12:24.004,0.060059,0.029297,1.002930,0.182927,1.158537,-0.609756,-4.775000,17.500000,19.275000,29.937,0.56791352,-0.00999709,-0.02889823,-0.82252002
'00:12:24.014,0.060547,0.028320,1.004395,0.365854,1.341463,-0.609756,-4.800000,17.437500,19.318750,29.906,0.56791399,-0.01000501,-0.02889921,-0.82251956
'00:12:24.024,0.060059,0.028809,1.004395,0.548781,1.585366,-0.609756,-4.800000,17.437500,19.318750,29.952,0.56791514,-0.00998163,-0.02890209,-0.82251896
'00:12:24.037,0.059082,0.029297,1.003418,0.609756,1.585366,-0.609756,-5.031250,17.868750,19.525000,29.876,0.56790815,-0.00992890,-0.02890058,-0.82252447
'00:12:24.044,0.059570,0.029297,1.005371,0.426829,1.463415,-0.609756,-5.031250,17.868750,19.525000,29.906,0.56790415,-0.00991510,-0.02889568,-0.82252757
'00:12:24.054,0.061035,0.030273,1.002930,0.304878,1.280488,-0.548781,-5.112500,17.918751,19.556250,29.891,0.56789762,-0.00991568,-0.02889603,-0.82253206
'00:12:24.064,0.060547,0.029297,1.001465,0.365854,1.402439,-0.609756,-5.112500,17.918751,19.556250,29.906,0.56788731,-0.00990577,-0.02888810,-0.82253958
'00:12:24.074,0.061035,0.028809,1.002930,0.609756,1.585366,-0.609756,-4.868750,17.618750,19.343750,29.967,0.56788816,-0.00988496,-0.02889912,-0.82253885
'00:12:24.084,0.060547,0.029785,1.003906,0.609756,1.646341,-0.548781,-4.868750,17.618750,19.343750,29.906,0.56789339,-0.00985351,-0.02891016,-0.82253523
'00:12:24.094,0.059570,0.029297,1.004395,0.365854,1.402439,-0.548781,-4.837500,17.550001,19.412500,29.906,0.56789820,-0.00984968,-0.02890953,-0.82253198
'00:12:24.104,0.059570,0.028809,1.003906,0.182927,1.219512,-0.548781,-4.837500,17.550001,19.412500,29.906,0.56790248,-0.00987009,-0.02890226,-0.82252904
'00:12:24.114,0.060547,0.028809,1.003906,0.182927,1.158537,-0.609756,-4.850000,17.512501,19.350000,29.891,0.56790066,-0.00989833,-0.02890017,-0.82253003
'00:12:24.124,0.060547,0.028320,1.002930,0.365854,1.341463,-0.609756,-4.850000,17.512501,19.350000,29.937,0.56789951,-0.00990611,-0.02889976,-0.82253074
'00:12:24.134,0.059570,0.029785,1.003418,0.487805,1.463415,-0.548781,-4.906250,17.612501,19.425001,29.921,0.56790104,-0.00988606,-0.02890422,-0.82252977
'00:12:24.144,0.060059,0.030762,1.003906,0.365854,1.402439,-0.548781,-4.906250,17.612501,19.425001,29.876,0.56790212,-0.00987547,-0.02891011,-0.82252894
'00:12:24.154,0.059082,0.029785,1.002930,0.243902,1.280488,-0.548781,-4.981250,17.743750,19.506250,29.921,0.56790067,-0.00987600,-0.02890155,-0.82253024
'00:12:24.164,0.059570,0.029785,1.003418,0.304878,1.219512,-0.609756,-4.981250,17.743750,19.506250,29.937,0.56789475,-0.00988033,-0.02890227,-0.82253425
'00:12:24.174,0.059570,0.029297,1.002930,0.426829,1.402439,-0.609756,-5.093750,17.950001,19.581251,29.937,0.56788646,-0.00986388,-0.02889649,-0.82254038
'00:12:24.184,0.059570,0.028809,1.004883,0.426829,1.463415,-0.609756,-5.093750,17.950001,19.581251,29.891,0.56787850,-0.00984480,-0.02888437,-0.82254652
'00:12:24.194,0.059570,0.029785,1.002930,0.426829,1.402439,-0.548781,-4.812500,17.518751,19.325001,29.906,0.56788473,-0.00983742,-0.02889338,-0.82254200
'00:12:24.204,0.060059,0.029785,1.004395,0.304878,1.341463,-0.609756,-4.812500,17.518751,19.325001,29.891,0.56788629,-0.00984276,-0.02889787,-0.82254069
'00:12:24.214,0.059082,0.029785,1.004395,0.243902,1.219512,-0.548781,-4.806250,17.493750,19.325001,29.967,0.56789172,-0.00985455,-0.02889998,-0.82253673
'00:12:24.224,0.060059,0.029785,1.001953,0.304878,1.219512,-0.548781,-4.806250,17.493750,19.325001,29.937,0.56789711,-0.00986907,-0.02891115,-0.82253245
'00:12:24.234,0.060547,0.029297,1.003418,0.304878,1.341463,-0.609756,-4.781250,17.475000,19.306250,29.921,0.56789984,-0.00988000,-0.02891620,-0.82253025
'00:12:24.244,0.060059,0.029297,1.002930,0.365854,1.341463,-0.548781,-4.781250,17.475000,19.306250,29.921,0.56790698,-0.00988528,-0.02892375,-0.82252499
'00:12:24.254,0.059570,0.029297,1.003418,0.426829,1.463415,-0.609756,-4.956250,17.731251,19.506250,29.937,0.56790321,-0.00986910,-0.02891960,-0.82252794
'00:12:24.264,0.058594,0.029785,1.003418,0.426829,1.402439,-0.548781,-4.956250,17.731251,19.506250,29.861,0.56790364,-0.00985042,-0.02891751,-0.82252794
'00:12:24.274,0.059570,0.028809,1.003418,0.426829,1.402439,-0.548781,-5.156250,18.012501,19.625000,29.891,0.56789695,-0.00983366,-0.02890535,-0.82253318
'00:12:24.284,0.059570,0.030273,1.003418,0.365854,1.402439,-0.609756,-4.881250,17.606251,19.418751,29.906,0.56789548,-0.00982445,-0.02890874,-0.82253419
'00:12:24.294,0.059082,0.029785,1.004883,0.365854,1.341463,-0.609756,-4.881250,17.606251,19.418751,29.906,0.56789401,-0.00981866,-0.02890989,-0.82253523
'00:12:24.304,0.059570,0.029297,1.004395,0.365854,1.341463,-0.548781,-4.818750,17.493750,19.293751,29.921,0.56789919,-0.00981976,-0.02891275,-0.82253154
'00:12:24.314,0.059570,0.029785,1.003418,0.304878,1.341463,-0.548781,-4.818750,17.493750,19.293751,29.921,0.56790419,-0.00982214,-0.02891432,-0.82252801
'00:12:24.324,0.061523,0.029785,1.004395,0.365854,1.341463,-0.548781,-4.868750,17.531250,19.293751,29.906,0.56790656,-0.00982941,-0.02892432,-0.82252593
'00:12:24.334,0.060059,0.030762,1.003906,0.365854,1.402439,-0.609756,-4.868750,17.531250,19.293751,29.921,0.56790452,-0.00982027,-0.02893126,-0.82252720
'00:12:24.344,0.059082,0.028809,1.002930,0.304878,1.280488,-0.609756,-4.993750,17.762501,19.468750,29.906,0.56789875,-0.00982163,-0.02892102,-0.82253153
'00:12:24.354,0.059570,0.029785,1.003906,0.304878,1.280488,-0.609756,-4.993750,17.762501,19.468750,29.906,0.56789280,-0.00982169,-0.02891791,-0.82253574
'00:12:24.364,0.060059,0.030273,1.004883,0.243902,1.219512,-0.548781,-5.075000,17.775000,19.500000,29.906,0.56788563,-0.00982538,-0.02891175,-0.82254087
'00:12:24.374,0.059570,0.028320,1.003906,0.243902,1.219512,-0.548781,-5.075000,17.775000,19.500000,29.891,0.56787888,-0.00983411,-0.02889338,-0.82254607
'00:12:24.384,0.059082,0.027344,1.004395,0.304878,1.280488,-0.609756,-4.893750,17.562500,19.412500,29.906,0.56787589,-0.00984391,-0.02887781,-0.82254857
'00:12:24.394,0.060059,0.028809,1.004395,0.487805,1.524390,-0.609756,-4.893750,17.562500,19.412500,29.921,0.56787335,-0.00982672,-0.02887559,-0.82255060
'00:12:24.404,0.060547,0.029297,1.002930,0.548781,1.524390,-0.609756,-4.862500,17.518751,19.281250,29.891,0.56787244,-0.00980880,-0.02888474,-0.82255112
'00:12:24.414,0.060059,0.030273,1.002930,0.182927,1.158537,-0.609756,-4.862500,17.518751,19.281250,29.921,0.56787013,-0.00982897,-0.02888929,-0.82255232
'00:12:24.424,0.060059,0.029297,1.002930,0.304878,1.341463,-0.609756,-4.850000,17.550001,19.337500,29.906,0.56786994,-0.00983488,-0.02888951,-0.82255237
'00:12:24.434,0.059082,0.029785,1.002930,0.487805,1.524390,-0.548781,-4.850000,17.550001,19.337500,29.921,0.56787465,-0.00981135,-0.02889272,-0.82254929
'00:12:24.444,0.059570,0.029785,1.004883,0.243902,1.219512,-0.548781,-4.818750,17.475000,19.275000,29.906,0.56787906,-0.00982509,-0.02889539,-0.82254598
'00:12:24.454,0.059570,0.028809,1.002441,0.304878,1.341463,-0.609756,-4.818750,17.475000,19.275000,29.937,0.56787960,-0.00983105,-0.02889179,-0.82254567
'00:12:24.464,0.059082,0.030273,1.003906,0.426829,1.402439,-0.548781,-5.131250,17.900000,19.625000,29.921,0.56787181,-0.00980619,-0.02888532,-0.82255157
'00:12:24.474,0.060547,0.029297,1.002930,0.243902,1.219512,-0.609756,-5.131250,17.900000,19.625000,29.891,0.56785927,-0.00981567,-0.02887554,-0.82256046
'00:12:24.484,0.060059,0.028809,1.003418,0.426829,1.463415,-0.609756,-5.125000,17.918751,19.587500,29.921,0.56784866,-0.00979816,-0.02886326,-0.82256842
'00:12:24.494,0.060547,0.030273,1.005371,0.243902,1.280488,-0.548781,-5.125000,17.918751,19.587500,29.891,0.56784159,-0.00979990,-0.02885632,-0.82257352
'00:12:24.504,0.060059,0.028320,1.003418,0.243902,1.280488,-0.548781,-4.850000,17.512501,19.256250,29.906,0.56784542,-0.00981688,-0.02884940,-0.82257092
'00:12:24.514,0.060547,0.028809,1.003418,0.365854,1.341463,-0.609756,-4.850000,17.512501,19.256250,29.906,0.56784498,-0.00982381,-0.02885296,-0.82257102
'00:12:24.524,0.058594,0.030273,1.002930,0.365854,1.402439,-0.548781,-4.806250,17.487501,19.350000,29.876,0.56785088,-0.00981257,-0.02885693,-0.82256694
'00:12:24.534,0.060059,0.029297,1.002930,0.365854,1.341463,-0.548781,-4.806250,17.487501,19.350000,29.906,0.56785676,-0.00981786,-0.02886398,-0.82256257
'00:12:24.544,0.059570,0.030273,1.001953,0.304878,1.280488,-0.548781,-4.825000,17.500000,19.306250,29.937,0.56786137,-0.00982297,-0.02887251,-0.82255902
'00:12:24.554,0.059082,0.029297,1.004395,0.304878,1.280488,-0.548781,-5.037500,17.681250,19.431250,29.921,0.56785539,-0.00981866,-0.02886029,-0.82256364
'00:12:24.564,0.059570,0.029297,1.003418,0.426829,1.341463,-0.548781,-5.037500,17.681250,19.431250,29.906,0.56784968,-0.00980692,-0.02885626,-0.82256785
'00:12:24.574,0.059082,0.029785,1.003418,0.426829,1.402439,-0.609756,-5.100000,17.831251,19.587500,29.937,0.56783843,-0.00978513,-0.02884878,-0.82257614
'00:12:24.584,0.061035,0.029785,1.004883,0.304878,1.280488,-0.548781,-5.100000,17.831251,19.587500,29.937,0.56783120,-0.00978898,-0.02884558,-0.82258120
'00:12:24.594,0.059082,0.029297,1.004395,0.426829,1.341463,-0.548781,-4.843750,17.500000,19.306250,29.906,0.56783518,-0.00978368,-0.02885041,-0.82257835
'00:12:24.604,0.059082,0.029297,1.004395,0.426829,1.341463,-0.548781,-4.843750,17.500000,19.306250,29.906,0.56783914,-0.00977845,-0.02885515,-0.82257551
'00:12:24.614,0.060059,0.029785,1.004395,0.365854,1.341463,-0.548781,-4.912500,17.518751,19.400000,29.906,0.56783819,-0.00977609,-0.02885683,-0.82257614
'00:12:24.624,0.059570,0.030762,1.003418,0.304878,1.280488,-0.609756,-4.912500,17.518751,19.400000,29.906,0.56783247,-0.00977468,-0.02886121,-0.82257995
'00:12:24.634,0.060059,0.029785,1.004395,0.365854,1.280488,-0.609756,-4.837500,17.562500,19.381250,29.891,0.56783334,-0.00978176,-0.02887286,-0.82257886
'00:12:24.644,0.061035,0.028320,1.003418,0.365854,1.280488,-0.609756,-4.837500,17.562500,19.381250,29.921,0.56783442,-0.00980007,-0.02888015,-0.82257764
'00:12:24.654,0.059082,0.030273,1.004883,0.426829,1.341463,-0.609756,-4.975000,17.756250,19.537500,29.921,0.56782981,-0.00978671,-0.02888526,-0.82258080
'00:12:24.664,0.059082,0.029785,1.004395,0.304878,1.280488,-0.609756,-4.975000,17.756250,19.537500,29.952,0.56782507,-0.00978598,-0.02888205,-0.82258419
'00:12:24.675,0.059082,0.030273,1.002441,0.365854,1.280488,-0.548781,-5.050000,17.818750,19.537500,29.906,0.56782066,-0.00977651,-0.02888263,-0.82258733
'00:12:24.684,0.059082,0.030273,1.002441,0.365854,1.280488,-0.548781,-5.050000,17.818750,19.537500,29.906,0.56781707,-0.00976890,-0.02888312,-0.82258988
'00:12:24.694,0.059570,0.028809,1.003418,0.304878,1.341463,-0.609756,-4.900000,17.543751,19.343750,29.906,0.56781364,-0.00977185,-0.02887484,-0.82259250
'00:12:24.704,0.059570,0.029785,1.003906,0.365854,1.341463,-0.609756,-4.900000,17.543751,19.343750,29.891,0.56781008,-0.00976785,-0.02887639,-0.82259495
'00:12:24.714,0.059570,0.029297,1.003906,0.365854,1.280488,-0.609756,-4.843750,17.506250,19.312500,29.906,0.56780963,-0.00977303,-0.02888173,-0.82259501
'00:12:24.724,0.060547,0.029297,1.003418,0.365854,1.341463,-0.548781,-4.843750,17.506250,19.312500,29.937,0.56781364,-0.00977940,-0.02888786,-0.82259195
'00:12:24.734,0.060059,0.029297,1.003418,0.365854,1.341463,-0.548781,-4.856250,17.556250,19.418751,29.906,0.56781752,-0.00978320,-0.02889197,-0.82258909
'00:12:24.744,0.059570,0.029297,1.003418,0.304878,1.341463,-0.548781,-4.856250,17.556250,19.418751,29.906,0.56782133,-0.00978724,-0.02888972,-0.82258649
'00:12:24.754,0.060059,0.029785,1.003418,0.426829,1.402439,-0.548781,-4.856250,17.506250,19.293751,29.967,0.56782460,-0.00978052,-0.02889696,-0.82258406
'00:12:24.764,0.059570,0.029785,1.003418,0.304878,1.280488,-0.548781,-4.856250,17.506250,19.293751,29.937,0.56782746,-0.00978597,-0.02889950,-0.82258193
'00:12:24.774,0.060059,0.029785,1.003418,0.304878,1.280488,-0.548781,-5.168750,17.937500,19.637501,29.906,0.56781791,-0.00978239,-0.02888975,-0.82258891
'00:12:24.784,0.061035,0.028809,1.004395,0.365854,1.280488,-0.609756,-5.168750,17.937500,19.637501,29.906,0.56780428,-0.00978452,-0.02888252,-0.82259855
'00:12:24.794,0.060059,0.030273,1.003906,0.365854,1.341463,-0.548781,-5.087500,17.825001,19.575001,29.906,0.56779795,-0.00977465,-0.02888046,-0.82260310
'00:12:24.805,0.059570,0.029785,1.004395,0.365854,1.341463,-0.548781,-4.850000,17.487501,19.318750,29.921,0.56780134,-0.00977272,-0.02888469,-0.82260064
'00:12:24.814,0.059570,0.029785,1.004395,0.365854,1.341463,-0.548781,-4.850000,17.487501,19.318750,29.906,0.56780410,-0.00977114,-0.02888808,-0.82259863
'00:12:24.824,0.059570,0.028809,1.001953,0.304878,1.341463,-0.609756,-4.825000,17.500000,19.287500,29.921,0.56780509,-0.00977825,-0.02888523,-0.82259797
'00:12:24.834,0.059082,0.031250,1.003906,0.304878,1.341463,-0.609756,-4.825000,17.500000,19.287500,29.952,0.56780559,-0.00977254,-0.02889360,-0.82259740
'00:12:24.844,0.059082,0.030273,1.003906,0.365854,1.280488,-0.548781,-4.918750,17.550001,19.350000,29.937,0.56780498,-0.00976740,-0.02889739,-0.82259774
'00:12:24.854,0.059570,0.029785,1.005371,0.426829,1.341463,-0.548781,-4.918750,17.550001,19.350000,29.906,0.56780468,-0.00975924,-0.02890104,-0.82259791
'00:12:24.864,0.060059,0.029297,1.003906,0.365854,1.341463,-0.548781,-5.181250,18.062500,19.775000,29.937,0.56779710,-0.00975183,-0.02889156,-0.82260357
'00:12:24.874,0.060059,0.029785,1.003906,0.426829,1.341463,-0.609756,-5.181250,18.062500,19.775000,29.937,0.56778514,-0.00973952,-0.02888940,-0.82261204
'00:12:24.884,0.059570,0.029785,1.004395,0.365854,1.341463,-0.548781,-5.118750,17.943750,19.631250,29.937,0.56777953,-0.00972945,-0.02888301,-0.82261626
'00:12:24.894,0.060059,0.030273,1.003418,0.304878,1.341463,-0.548781,-5.118750,17.943750,19.631250,29.906,0.56777380,-0.00972356,-0.02887733,-0.82262049
'00:12:24.904,0.060547,0.029297,1.003906,0.365854,1.341463,-0.609756,-4.843750,17.593750,19.281250,29.876,0.56777587,-0.00973161,-0.02888578,-0.82261867
'00:12:24.914,0.059570,0.029297,1.002441,0.304878,1.341463,-0.609756,-4.843750,17.593750,19.281250,29.891,0.56777788,-0.00973749,-0.02888653,-0.82261718
'00:12:24.924,0.059082,0.029785,1.003418,0.365854,1.341463,-0.548781,-4.862500,17.562500,19.337500,29.952,0.56778194,-0.00973417,-0.02888971,-0.82261431
'00:12:24.934,0.059082,0.028809,1.003418,0.365854,1.341463,-0.548781,-4.862500,17.562500,19.337500,29.937,0.56778619,-0.00973472,-0.02888731,-0.82261145
'00:12:24.944,0.059082,0.028320,1.003906,0.426829,1.402439,-0.609756,-4.856250,17.512501,19.318750,29.952,0.56778569,-0.00972915,-0.02888269,-0.82261203
'00:12:24.954,0.060547,0.030273,1.002930,0.365854,1.341463,-0.609756,-4.856250,17.512501,19.318750,29.891,0.56778452,-0.00973171,-0.02889390,-0.82261241
'00:12:24.964,0.060059,0.029785,1.004395,0.426829,1.341463,-0.548781,-4.837500,17.443750,19.343750,29.937,0.56778745,-0.00973054,-0.02890374,-0.82261005
'00:12:24.974,0.059082,0.030273,1.004883,0.304878,1.341463,-0.548781,-4.837500,17.443750,19.343750,29.952,0.56779019,-0.00972795,-0.02890348,-0.82260821
'00:12:24.984,0.059570,0.028809,1.002930,0.304878,1.341463,-0.548781,-5.093750,17.918751,19.587500,29.952,0.56778595,-0.00972609,-0.02888901,-0.82261166
'00:12:24.994,0.059570,0.029785,1.003418,0.304878,1.341463,-0.548781,-5.093750,17.918751,19.587500,29.906,0.56778156,-0.00972043,-0.02888003,-0.82261507
'00:12:25.004,0.061035,0.028809,1.002930,0.365854,1.341463,-0.548781,-4.856250,17.575001,19.337500,29.876,0.56778650,-0.00973262,-0.02888631,-0.82261129
'00:12:25.014,0.060547,0.028809,1.004883,0.304878,1.280488,-0.609756,-4.856250,17.575001,19.337500,29.906,0.56778686,-0.00974873,-0.02888850,-0.82261078
'00:12:25.024,0.060059,0.028809,1.004883,0.365854,1.341463,-0.548781,-4.818750,17.506250,19.281250,29.891,0.56779299,-0.00975589,-0.02889145,-0.82260636
'00:12:25.035,0.059570,0.029297,1.005859,0.365854,1.341463,-0.548781,-4.831250,17.425001,19.287500,29.891,0.56779647,-0.00975624,-0.02889187,-0.82260394
'00:12:25.044,0.060059,0.029785,1.003418,0.365854,1.341463,-0.548781,-4.831250,17.425001,19.287500,29.937,0.56779918,-0.00975769,-0.02889725,-0.82260186
'00:12:25.054,0.059082,0.029785,1.003906,0.365854,1.341463,-0.548781,-4.831250,17.425001,19.287500,29.937,0.56780221,-0.00975374,-0.02889917,-0.82259975
'00:12:25.065,0.059570,0.029297,1.002441,0.365854,1.341463,-0.548781,-4.825000,17.512501,19.350000,29.921,0.56780812,-0.00975686,-0.02890362,-0.82259548
'00:12:25.074,0.060059,0.029785,1.002441,0.304878,1.341463,-0.548781,-5.225000,18.000000,19.606251,29.921,0.56779784,-0.00974815,-0.02889026,-0.82260315
'00:12:25.084,0.059570,0.029297,1.004883,0.243902,1.341463,-0.548781,-5.225000,18.000000,19.606251,29.921,0.56778658,-0.00974039,-0.02886584,-0.82261187
'00:12:25.094,0.059082,0.028320,1.004883,0.365854,1.341463,-0.548781,-5.037500,17.862501,19.518751,29.921,0.56778532,-0.00973654,-0.02885404,-0.82261320
'00:12:25.104,0.059082,0.028809,1.004883,0.365854,1.341463,-0.548781,-5.037500,17.862501,19.518751,29.906,0.56778399,-0.00973090,-0.02884515,-0.82261449
'00:12:25.114,0.059082,0.029785,1.004395,0.365854,1.341463,-0.548781,-4.793750,17.475000,19.275000,29.891,0.56779111,-0.00973038,-0.02885203,-0.82260935
'00:12:25.127,0.060059,0.029785,1.002930,0.365854,1.280488,-0.548781,-4.793750,17.475000,19.275000,29.891,0.56780003,-0.00974280,-0.02887038,-0.82260240
'00:12:25.134,0.059570,0.029785,1.002441,0.365854,1.341463,-0.548781,-4.850000,17.550001,19.337500,29.906,0.56780322,-0.00974285,-0.02887480,-0.82260004
'00:12:25.144,0.060059,0.029297,1.002441,0.365854,1.280488,-0.609756,-4.850000,17.550001,19.337500,29.861,0.56780331,-0.00975173,-0.02888321,-0.82259958
'00:12:25.154,0.061035,0.029297,1.002441,0.304878,1.341463,-0.609756,-4.825000,17.525000,19.243750,29.906,0.56780497,-0.00976540,-0.02888940,-0.82259805
'00:12:25.165,0.061035,0.029785,1.003418,0.304878,1.341463,-0.548781,-4.825000,17.525000,19.243750,29.937,0.56781146,-0.00977802,-0.02889860,-0.82259310
'00:12:25.174,0.060059,0.029785,1.005371,0.365854,1.341463,-0.609756,-5.181250,18.068750,19.706251,29.921,0.56780095,-0.00976891,-0.02889233,-0.82260069
'00:12:25.184,0.060547,0.029297,1.004395,0.304878,1.280488,-0.609756,-5.181250,18.068750,19.706251,29.906,0.56778920,-0.00977105,-0.02888369,-0.82260907
'00:12:25.194,0.057617,0.030762,1.003906,0.304878,1.341463,-0.609756,-5.031250,17.806250,19.462500,29.906,0.56778228,-0.00975181,-0.02887488,-0.82261439
'00:12:25.205,0.059082,0.028320,1.003906,0.304878,1.341463,-0.609756,-5.031250,17.806250,19.462500,29.906,0.56777525,-0.00975016,-0.02885657,-0.82261990
'00:12:25.214,0.058594,0.028809,1.003906,0.365854,1.341463,-0.609756,-4.818750,17.581251,19.450001,29.906,0.56777794,-0.00975079,-0.02885626,-0.82261805
'00:12:25.224,0.060547,0.029297,1.002441,0.304878,1.341463,-0.548781,-4.818750,17.581251,19.450001,29.921,0.56778503,-0.00976390,-0.02886243,-0.82261278
'00:12:25.234,0.059570,0.028809,1.004395,0.365854,1.280488,-0.548781,-4.787500,17.518751,19.325001,29.906,0.56779336,-0.00977492,-0.02886976,-0.82260665
'00:12:25.244,0.060547,0.029297,1.003906,0.365854,1.341463,-0.548781,-4.787500,17.518751,19.325001,29.937,0.56780162,-0.00978495,-0.02888064,-0.82260044
'00:12:25.254,0.060547,0.029297,1.004395,0.365854,1.341463,-0.609756,-4.843750,17.487501,19.306250,29.921,0.56780085,-0.00979052,-0.02888602,-0.82260071
'00:12:25.264,0.060547,0.030273,1.004395,0.365854,1.341463,-0.548781,-4.843750,17.487501,19.306250,29.906,0.56780423,-0.00979233,-0.02889678,-0.82259798
'00:12:25.274,0.060059,0.030273,1.002930,0.365854,1.341463,-0.548781,-4.950000,17.762501,19.487501,29.906,0.56780604,-0.00978955,-0.02890401,-0.82259652
'00:12:25.284,0.060059,0.029785,1.001465,0.365854,1.341463,-0.548781,-4.950000,17.762501,19.487501,29.921,0.56780792,-0.00978900,-0.02890896,-0.82259505
'00:12:25.294,0.059570,0.029297,1.002930,0.304878,1.341463,-0.548781,-5.062500,17.837500,19.531250,29.906,0.56780382,-0.00978485,-0.02889747,-0.82259833
'00:12:25.304,0.059570,0.030273,1.002930,0.365854,1.280488,-0.609756,-5.062500,17.837500,19.531250,29.906,0.56779509,-0.00977823,-0.02889907,-0.82260438
'00:12:25.314,0.059570,0.028809,1.005371,0.365854,1.280488,-0.609756,-4.781250,17.518751,19.312500,29.876,0.56779942,-0.00978893,-0.02890592,-0.82260102
'00:12:25.326,0.060059,0.029785,1.004883,0.426829,1.341463,-0.548781,-4.856250,17.468750,19.268751,29.937,0.56780226,-0.00978504,-0.02891627,-0.82259875
'00:12:25.334,0.060547,0.028809,1.004883,0.304878,1.341463,-0.548781,-4.856250,17.468750,19.268751,29.906,0.56780420,-0.00979251,-0.02891314,-0.82259742
'00:12:25.344,0.060547,0.029297,1.003906,0.365854,1.402439,-0.609756,-4.812500,17.593750,19.325001,29.891,0.56780814,-0.00979709,-0.02892010,-0.82259441
'00:12:25.354,0.060547,0.029297,1.002930,0.365854,1.341463,-0.548781,-4.812500,17.593750,19.325001,29.876,0.56781625,-0.00980630,-0.02893028,-0.82258834
'00:12:25.364,0.060547,0.029297,1.002930,0.365854,1.341463,-0.548781,-4.787500,17.512501,19.331251,29.876,0.56782409,-0.00981583,-0.02894027,-0.82258246
'00:12:25.374,0.059082,0.031250,1.002930,0.304878,1.341463,-0.609756,-4.787500,17.512501,19.331251,29.921,0.56782709,-0.00981218,-0.02895118,-0.82258005
'00:12:25.384,0.058594,0.030273,1.000977,0.365854,1.341463,-0.548781,-5.081250,17.893751,19.568750,29.921,0.56782259,-0.00979562,-0.02894563,-0.82258355
'00:12:25.394,0.060059,0.028809,1.004395,0.304878,1.341463,-0.609756,-5.081250,17.893751,19.568750,29.906,0.56781401,-0.00979512,-0.02893198,-0.82258996
'00:12:25.405,0.060547,0.030273,1.004883,0.365854,1.341463,-0.548781,-4.987500,17.787500,19.500000,29.906,0.56781366,-0.00979235,-0.02893793,-0.82259003
'00:12:25.414,0.060547,0.030273,1.004883,0.365854,1.341463,-0.548781,-4.987500,17.787500,19.500000,29.906,0.56781338,-0.00979011,-0.02894271,-0.82259008
'00:12:25.424,0.061035,0.029297,1.004883,0.304878,1.341463,-0.609756,-4.818750,17.537500,19.350000,29.952,0.56781513,-0.00980345,-0.02894741,-0.82258855
'00:12:25.434,0.060547,0.029297,1.004395,0.365854,1.341463,-0.548781,-4.818750,17.537500,19.350000,29.906,0.56782129,-0.00981113,-0.02895463,-0.82258395
'00:12:25.448,0.060547,0.030273,1.001953,0.365854,1.341463,-0.548781,-4.837500,17.587500,19.318750,29.921,0.56782955,-0.00981621,-0.02897335,-0.82257753
'00:12:25.454,0.060547,0.030273,1.001953,0.365854,1.341463,-0.548781,-4.837500,17.587500,19.318750,29.921,0.56783305,-0.00981831,-0.02898118,-0.82257481
'00:12:25.464,0.059570,0.029785,1.001465,0.304878,1.280488,-0.609756,-4.818750,17.575001,19.350000,29.952,0.56783529,-0.00982670,-0.02898753,-0.82257294
'00:12:25.474,0.061035,0.029785,1.003906,0.304878,1.280488,-0.548781,-4.818750,17.575001,19.350000,29.876,0.56784183,-0.00984267,-0.02899838,-0.82256786
'00:12:25.485,0.060547,0.029297,1.005371,0.365854,1.341463,-0.548781,-5.018750,17.831251,19.493750,29.906,0.56784022,-0.00984154,-0.02899533,-0.82256909
'00:12:25.496,0.059570,0.029297,1.004883,0.304878,1.341463,-0.548781,-5.018750,17.831251,19.493750,29.937,0.56783860,-0.00983802,-0.02898366,-0.82257066
'00:12:25.504,0.059570,0.028809,1.004883,0.365854,1.341463,-0.548781,-5.025000,17.737501,19.531250,29.921,0.56783533,-0.00983337,-0.02897434,-0.82257330
'00:12:25.514,0.059082,0.029297,1.002441,0.304878,1.341463,-0.548781,-5.025000,17.737501,19.531250,29.952,0.56783113,-0.00982661,-0.02896030,-0.82257677
'00:12:25.525,0.061035,0.029297,1.003906,0.365854,1.341463,-0.609756,-4.800000,17.568750,19.293751,29.906,0.56783546,-0.00983904,-0.02897283,-0.82257319
'00:12:25.534,0.060547,0.030273,1.003418,0.304878,1.341463,-0.548781,-4.800000,17.568750,19.293751,29.921,0.56784267,-0.00984608,-0.02898235,-0.82256780
'00:12:25.544,0.060547,0.029785,1.002930,0.304878,1.402439,-0.609756,-4.818750,17.468750,19.343750,29.906,0.56784259,-0.00984890,-0.02898320,-0.82256779
'00:12:25.554,0.061035,0.029297,1.003906,0.365854,1.341463,-0.609756,-4.818750,17.468750,19.343750,29.937,0.56784250,-0.00985744,-0.02899014,-0.82256750
'00:12:25.565,0.060059,0.028809,1.003906,0.304878,1.341463,-0.609756,-4.806250,17.456251,19.206251,29.937,0.56784375,-0.00986635,-0.02898676,-0.82256666
'00:12:25.574,0.060059,0.028809,1.004395,0.365854,1.341463,-0.548781,-4.806250,17.456251,19.206251,29.861,0.56784874,-0.00987085,-0.02898774,-0.82256312
'00:12:25.584,0.061035,0.028809,1.005371,0.304878,1.341463,-0.548781,-5.131250,18.000000,19.593750,29.891,0.56784327,-0.00987290,-0.02897528,-0.82256731
'00:12:25.594,0.060547,0.029297,1.003906,0.365854,1.402439,-0.609756,-5.131250,18.000000,19.593750,29.906,0.56783358,-0.00986324,-0.02896586,-0.82257445
'00:12:25.605,0.059570,0.030273,1.002441,0.365854,1.341463,-0.548781,-5.143750,17.931250,19.556250,29.921,0.56782490,-0.00984629,-0.02895876,-0.82258089
'00:12:25.614,0.060547,0.029297,1.001953,0.365854,1.280488,-0.548781,-4.831250,17.531250,19.387501,29.937,0.56782911,-0.00985632,-0.02896749,-0.82257756
'00:12:25.624,0.060059,0.029785,1.002441,0.365854,1.341463,-0.548781,-4.831250,17.531250,19.387501,29.937,0.56783381,-0.00985816,-0.02897469,-0.82257404
'00:12:25.634,0.059082,0.029297,1.003906,0.304878,1.280488,-0.548781,-4.831250,17.512501,19.287500,29.906,0.56783841,-0.00986299,-0.02897307,-0.82257087
'00:12:25.646,0.061035,0.029785,1.004883,0.365854,1.341463,-0.548781,-4.831250,17.512501,19.287500,29.906,0.56784393,-0.00987020,-0.02898463,-0.82256656
'00:12:25.654,0.061035,0.029297,1.005859,0.304878,1.341463,-0.548781,-4.893750,17.543751,19.293751,29.937,0.56784473,-0.00987594,-0.02898284,-0.82256600
'00:12:25.664,0.061035,0.027832,1.003906,0.365854,1.341463,-0.609756,-4.893750,17.543751,19.293751,29.921,0.56784169,-0.00988597,-0.02897760,-0.82256816
'00:12:25.674,0.058594,0.029785,1.003906,0.304878,1.402439,-0.548781,-5.012500,17.812500,19.562500,29.937,0.56783993,-0.00987100,-0.02896337,-0.82257006
'00:12:25.686,0.060547,0.029785,1.003906,0.365854,1.341463,-0.548781,-5.012500,17.812500,19.562500,29.967,0.56783770,-0.00986782,-0.02896444,-0.82257160
'00:12:25.694,0.060059,0.030273,1.002930,0.304878,1.341463,-0.548781,-5.162500,18.000000,19.656250,29.906,0.56783130,-0.00985998,-0.02895710,-0.82257637
'00:12:25.704,0.058594,0.029785,1.003418,0.304878,1.280488,-0.548781,-5.162500,18.000000,19.656250,29.876,0.56782333,-0.00984850,-0.02894267,-0.82258252
'00:12:25.714,0.059570,0.028809,1.003906,0.365854,1.341463,-0.548781,-4.962500,17.800001,19.456251,29.891,0.56782538,-0.00984723,-0.02893856,-0.82258126
'00:12:25.726,0.059570,0.028809,1.003906,0.365854,1.341463,-0.548781,-4.962500,17.800001,19.456251,29.937,0.56782784,-0.00984572,-0.02893371,-0.82257975
'00:12:25.734,0.060547,0.028809,1.003418,0.365854,1.280488,-0.609756,-4.856250,17.537500,19.318750,29.891,0.56782717,-0.00985447,-0.02893785,-0.82257997
'00:12:25.744,0.058594,0.029297,1.004395,0.365854,1.402439,-0.609756,-4.856250,17.537500,19.318750,29.906,0.56782659,-0.00984361,-0.02893175,-0.82258071
'00:12:25.754,0.060059,0.029297,1.002930,0.365854,1.402439,-0.548781,-4.843750,17.493750,19.281250,29.937,0.56783033,-0.00984155,-0.02893196,-0.82257814
'00:12:25.764,0.060547,0.030273,1.003418,0.304878,1.280488,-0.548781,-4.843750,17.493750,19.281250,29.921,0.56783348,-0.00985004,-0.02894102,-0.82257555
'00:12:25.774,0.060059,0.029785,1.003418,0.304878,1.341463,-0.609756,-4.812500,17.531250,19.325001,29.891,0.56783539,-0.00985564,-0.02894556,-0.82257401
'00:12:25.784,0.059082,0.029785,1.003906,0.304878,1.280488,-0.609756,-4.812500,17.531250,19.325001,29.921,0.56783716,-0.00985999,-0.02894907,-0.82257261
'00:12:25.794,0.060547,0.029297,1.004395,0.365854,1.341463,-0.548781,-4.981250,17.681250,19.493750,29.906,0.56783476,-0.00985921,-0.02894665,-0.82257435
'00:12:25.805,0.060547,0.029785,1.004883,0.304878,1.341463,-0.548781,-4.981250,17.681250,19.493750,29.937,0.56783198,-0.00985948,-0.02894204,-0.82257644
'00:12:25.814,0.062012,0.031250,1.003906,0.365854,1.341463,-0.548781,-4.981250,17.806250,19.493750,29.921,0.56783209,-0.00986080,-0.02895771,-0.82257579
'00:12:25.824,0.061035,0.031250,1.000977,0.365854,1.341463,-0.548781,-4.981250,17.806250,19.493750,29.937,0.56783219,-0.00985752,-0.02897235,-0.82257525
'00:12:25.834,0.062500,0.025879,1.004883,0.243902,1.219512,-0.548781,-4.806250,17.512501,19.287500,29.937,0.56783890,-0.00990326,-0.02896481,-0.82257033
'00:12:25.844,0.060547,0.028320,1.002441,0.487805,1.524390,-0.609756,-4.806250,17.512501,19.287500,29.937,0.56784170,-0.00989451,-0.02896700,-0.82256843
'00:12:25.855,0.058105,0.031738,1.004395,0.243902,1.158537,-0.487805,-4.825000,17.531250,19.312500,29.906,0.56785141,-0.00989645,-0.02897886,-0.82256128
'00:12:25.864,0.060547,0.028809,1.002930,0.426829,1.524390,-0.609756,-4.818750,17.462500,19.331251,29.921,0.56785171,-0.00988832,-0.02897690,-0.82256124
'00:12:25.874,0.057129,0.030273,1.004395,0.243902,1.219512,-0.548781,-4.818750,17.462500,19.331251,29.906,0.56785534,-0.00988534,-0.02897117,-0.82255898
'00:12:25.884,0.056641,0.029785,1.002930,0.487805,1.402439,-0.609756,-4.843750,17.543751,19.312500,29.906,0.56785566,-0.00985619,-0.02897004,-0.82255914
'00:12:25.894,0.059082,0.029785,1.001953,0.243902,1.219512,-0.548781,-4.843750,17.543751,19.312500,29.876,0.56785964,-0.00986661,-0.02897034,-0.82255626
'00:12:25.904,0.058594,0.029785,1.004395,0.365854,1.341463,-0.548781,-5.212500,18.181250,19.662500,29.952,0.56785265,-0.00984709,-0.02895731,-0.82256178
'00:12:25.914,0.062012,0.028809,1.003418,0.304878,1.280488,-0.548781,-5.212500,18.181250,19.662500,29.937,0.56784565,-0.00985748,-0.02895100,-0.82256671
'00:12:25.927,0.061523,0.030273,1.003906,0.365854,1.341463,-0.548781,-4.800000,17.512501,19.287500,29.952,0.56785433,-0.00986922,-0.02897370,-0.82255977
'00:12:25.934,0.062012,0.029785,1.001953,0.304878,1.341463,-0.548781,-4.800000,17.512501,19.287500,29.906,0.56785895,-0.00988102,-0.02898250,-0.82255613
'00:12:25.944,0.061523,0.029785,1.004395,0.243902,1.341463,-0.548781,-4.881250,17.550001,19.306250,29.937,0.56786066,-0.00989299,-0.02898215,-0.82255482
'00:12:25.954,0.062012,0.029785,1.004883,0.365854,1.341463,-0.548781,-4.881250,17.550001,19.306250,29.937,0.56786244,-0.00990130,-0.02899219,-0.82255314
'00:12:25.966,0.060547,0.028809,1.002930,0.365854,1.280488,-0.548781,-4.868750,17.543751,19.293751,29.906,0.56786555,-0.00991256,-0.02899627,-0.82255071
'00:12:25.974,0.058594,0.029785,1.002930,0.426829,1.402439,-0.609756,-4.868750,17.543751,19.293751,29.921,0.56786428,-0.00989871,-0.02899601,-0.82255177
'00:12:25.984,0.059082,0.030762,1.004395,0.304878,1.280488,-0.548781,-4.943750,17.618750,19.387501,29.967,0.56786269,-0.00989192,-0.02899557,-0.82255296
'00:12:25.994,0.057617,0.030273,1.004883,0.365854,1.402439,-0.609756,-4.943750,17.618750,19.387501,29.937,0.56785725,-0.00986703,-0.02898497,-0.82255739
'00:12:26.006,0.059082,0.029297,1.003906,0.304878,1.341463,-0.548781,-5.075000,17.931250,19.587500,29.876,0.56785320,-0.00985774,-0.02896810,-0.82256089
'00:12:26.014,0.059082,0.028809,1.003418,0.365854,1.341463,-0.548781,-5.075000,17.931250,19.587500,29.876,0.56785067,-0.00985086,-0.02895857,-0.82256305
'00:12:26.024,0.058594,0.029785,1.001465,0.365854,1.341463,-0.609756,-4.918750,17.656250,19.387501,29.921,0.56784792,-0.00984109,-0.02895688,-0.82256513
'00:12:26.034,0.059570,0.030762,1.001953,0.304878,1.280488,-0.548781,-4.918750,17.656250,19.387501,29.952,0.56784913,-0.00984049,-0.02896291,-0.82256409
'00:12:26.044,0.060547,0.028320,1.002930,0.304878,1.341463,-0.609756,-4.812500,17.512501,19.331251,29.937,0.56785077,-0.00985449,-0.02896034,-0.82256288
'00:12:26.054,0.062012,0.029785,1.002441,0.304878,1.280488,-0.548781,-4.812500,17.512501,19.331251,29.906,0.56785623,-0.00987523,-0.02897492,-0.82255835
'00:12:26.064,0.060547,0.028809,1.005371,0.365854,1.341463,-0.609756,-4.812500,17.531250,19.312500,29.952,0.56785826,-0.00988338,-0.02897876,-0.82255671
'00:12:26.074,0.060547,0.028320,1.002441,0.365854,1.341463,-0.548781,-4.812500,17.531250,19.312500,29.921,0.56786472,-0.00989411,-0.02898085,-0.82255205
'00:12:26.084,0.059082,0.029785,1.004883,0.365854,1.341463,-0.548781,-4.800000,17.406250,19.250000,29.997,0.56786905,-0.00988910,-0.02898263,-0.82254906
'00:12:26.094,0.059082,0.029785,1.004883,0.365854,1.341463,-0.548781,-4.800000,17.406250,19.250000,29.997,0.56787337,-0.00988416,-0.02898438,-0.82254608
'00:12:26.104,0.059082,0.029785,1.003906,0.304878,1.341463,-0.609756,-5.087500,17.937500,19.593750,29.921,0.56786472,-0.00987347,-0.02897222,-0.82255260
'00:12:26.115,0.058105,0.029297,1.004883,0.304878,1.341463,-0.609756,-5.081250,17.837500,19.593750,29.952,0.56785331,-0.00985676,-0.02894942,-0.82256148
'00:12:26.124,0.058594,0.029297,1.003418,0.304878,1.341463,-0.609756,-5.081250,17.837500,19.593750,29.921,0.56784405,-0.00984606,-0.02893335,-0.82256857
'00:12:26.134,0.058594,0.029297,1.003906,0.365854,1.341463,-0.609756,-4.831250,17.537500,19.337500,29.906,0.56784495,-0.00984134,-0.02893238,-0.82256804
'00:12:26.144,0.059570,0.030273,1.002930,0.304878,1.341463,-0.548781,-4.831250,17.537500,19.337500,29.921,0.56784992,-0.00984165,-0.02893672,-0.82256445
'00:12:26.154,0.059570,0.029785,1.003418,0.365854,1.280488,-0.487805,-4.812500,17.518751,19.281250,29.906,0.56786035,-0.00984600,-0.02894650,-0.82255686
'00:12:26.164,0.061035,0.028320,1.003906,0.304878,1.341463,-0.548781,-4.812500,17.518751,19.281250,29.921,0.56786670,-0.00986244,-0.02894588,-0.82255230
'00:12:26.174,0.061035,0.030273,1.002930,0.365854,1.341463,-0.548781,-4.856250,17.568750,19.387501,29.937,0.56787032,-0.00986647,-0.02895858,-0.82254930
'00:12:26.184,0.061035,0.028320,1.004883,0.304878,1.341463,-0.609756,-4.856250,17.568750,19.387501,29.891,0.56786992,-0.00988049,-0.02895490,-0.82254954
'00:12:26.194,0.062500,0.028809,1.005371,0.426829,1.341463,-0.609756,-5.187500,18.006250,19.618750,29.937,0.56785646,-0.00988097,-0.02895313,-0.82255889
'00:12:26.204,0.059082,0.029297,1.004883,0.365854,1.402439,-0.609756,-5.187500,18.006250,19.618750,29.952,0.56784311,-0.00986001,-0.02893408,-0.82256902
'00:12:26.216,0.060547,0.029297,1.002441,0.365854,1.341463,-0.609756,-5.006250,17.731251,19.462500,29.937,0.56783452,-0.00985832,-0.02893173,-0.82257506
'00:12:26.224,0.060059,0.030273,1.002930,0.304878,1.280488,-0.548781,-5.006250,17.731251,19.462500,29.906,0.56783201,-0.00985803,-0.02893181,-0.82257679
'00:12:26.234,0.059570,0.029785,1.002930,0.426829,1.341463,-0.609756,-4.862500,17.625000,19.350000,29.921,0.56783269,-0.00985318,-0.02894185,-0.82257603
'00:12:26.244,0.059082,0.028809,1.003906,0.365854,1.341463,-0.548781,-4.862500,17.625000,19.350000,29.906,0.56783791,-0.00985248,-0.02893952,-0.82257252
'00:12:26.254,0.059570,0.028320,1.002930,0.304878,1.341463,-0.548781,-4.843750,17.525000,19.337500,29.906,0.56784211,-0.00985936,-0.02893138,-0.82256982
'00:12:26.264,0.060059,0.028809,1.004883,0.304878,1.341463,-0.548781,-4.843750,17.525000,19.337500,29.921,0.56784620,-0.00986650,-0.02892724,-0.82256706
'00:12:26.274,0.061035,0.028320,1.004395,0.304878,1.341463,-0.609756,-4.843750,17.512501,19.331251,29.921,0.56784568,-0.00988059,-0.02892409,-0.82256735
'00:12:26.284,0.059570,0.029785,1.003906,0.365854,1.402439,-0.548781,-4.843750,17.512501,19.331251,29.997,0.56784947,-0.00987351,-0.02892512,-0.82256479
'00:12:26.294,0.060059,0.029297,1.002930,0.365854,1.341463,-0.609756,-4.837500,17.493750,19.356251,29.921,0.56784869,-0.00987577,-0.02892867,-0.82256518
'00:12:26.304,0.060059,0.029297,1.001953,0.365854,1.341463,-0.548781,-4.837500,17.493750,19.356251,29.891,0.56785226,-0.00987836,-0.02893250,-0.82256254
'00:12:26.314,0.060059,0.029785,1.003418,0.365854,1.341463,-0.548781,-5.043750,17.875000,19.575001,29.921,0.56784973,-0.00987210,-0.02893129,-0.82256441
'00:12:26.324,0.061523,0.029785,1.003418,0.365854,1.341463,-0.609756,-5.043750,17.875000,19.575001,29.937,0.56784280,-0.00987376,-0.02893572,-0.82256901
'00:12:26.334,0.059570,0.029297,1.003418,0.243902,1.341463,-0.609756,-4.875000,17.650000,19.443750,29.921,0.56784270,-0.00987935,-0.02892896,-0.82256926
'00:12:26.344,0.060059,0.030273,1.004395,0.426829,1.402439,-0.609756,-4.875000,17.650000,19.443750,29.967,0.56784268,-0.00987010,-0.02893942,-0.82256901
'00:12:26.354,0.059570,0.029785,1.004883,0.426829,1.402439,-0.548781,-4.812500,17.543751,19.325001,29.967,0.56784949,-0.00986227,-0.02894743,-0.82256412
'00:12:26.364,0.060059,0.029785,1.003906,0.304878,1.341463,-0.609756,-4.812500,17.543751,19.325001,29.921,0.56785161,-0.00986769,-0.02895190,-0.82256244
'00:12:26.375,0.058105,0.029785,1.003906,0.365854,1.280488,-0.548781,-4.781250,17.506250,19.250000,29.921,0.56786049,-0.00986462,-0.02895839,-0.82255612
'00:12:26.384,0.059082,0.029297,1.002441,0.365854,1.341463,-0.609756,-4.781250,17.506250,19.250000,29.921,0.56786397,-0.00986493,-0.02896233,-0.82255357
'00:12:26.394,0.060547,0.028809,1.003418,0.365854,1.341463,-0.609756,-4.806250,17.506250,19.293751,29.937,0.56786593,-0.00987365,-0.02896707,-0.82255195
'00:12:26.404,0.061035,0.028809,1.003418,0.304878,1.341463,-0.609756,-5.143750,17.931250,19.618750,29.906,0.56785352,-0.00987434,-0.02895303,-0.82256100
'00:12:26.414,0.060059,0.029297,1.003418,0.304878,1.341463,-0.609756,-5.143750,17.931250,19.618750,29.906,0.56784109,-0.00986793,-0.02893826,-0.82257018
'00:12:26.424,0.060547,0.028320,1.003418,0.365854,1.341463,-0.548781,-5.131250,17.968750,19.631250,29.906,0.56783502,-0.00986646,-0.02892633,-0.82257481
'00:12:26.434,0.060059,0.029297,1.003418,0.365854,1.341463,-0.548781,-5.131250,17.968750,19.631250,29.921,0.56782879,-0.00985866,-0.02891818,-0.82257949
'00:12:26.444,0.060059,0.030762,1.003906,0.304878,1.280488,-0.548781,-4.850000,17.543751,19.281250,29.906,0.56783262,-0.00986251,-0.02892884,-0.82257642
'00:12:26.454,0.059082,0.029785,1.002930,0.243902,1.341463,-0.609756,-4.850000,17.543751,19.281250,29.937,0.56783238,-0.00986341,-0.02892310,-0.82257678
'00:12:26.464,0.059082,0.028809,1.002930,0.304878,1.341463,-0.548781,-4.862500,17.618750,19.343750,29.906,0.56783743,-0.00986571,-0.02891694,-0.82257348
'00:12:26.474,0.060059,0.029297,1.002441,0.304878,1.280488,-0.609756,-4.862500,17.618750,19.343750,29.952,0.56783781,-0.00987577,-0.02892064,-0.82257297
'00:12:26.484,0.059082,0.029785,1.003906,0.365854,1.341463,-0.609756,-4.806250,17.550001,19.306250,29.952,0.56784075,-0.00987306,-0.02892685,-0.82257075
'00:12:26.494,0.060547,0.029785,1.004395,0.304878,1.280488,-0.548781,-4.806250,17.550001,19.306250,29.876,0.56784779,-0.00988591,-0.02893700,-0.82256538
'00:12:26.504,0.060059,0.028809,1.005371,0.365854,1.341463,-0.548781,-5.187500,18.050001,19.637501,29.937,0.56783974,-0.00987713,-0.02892300,-0.82257154
'00:12:26.514,0.060547,0.029785,1.005859,0.365854,1.341463,-0.609756,-5.187500,18.050001,19.637501,29.921,0.56782717,-0.00986718,-0.02891633,-0.82258056
'00:12:26.524,0.061035,0.028809,1.003418,0.365854,1.341463,-0.609756,-5.087500,17.900000,19.562500,29.921,0.56781828,-0.00986783,-0.02891117,-0.82258688
'00:12:26.534,0.059570,0.029785,1.004395,0.365854,1.341463,-0.548781,-5.087500,17.900000,19.562500,29.937,0.56781363,-0.00985677,-0.02890556,-0.82259042
'00:12:26.544,0.060059,0.029297,1.004883,0.365854,1.341463,-0.548781,-4.831250,17.587500,19.275000,29.952,0.56782044,-0.00986057,-0.02891172,-0.82258545
'00:12:26.554,0.059570,0.027832,1.002441,0.365854,1.341463,-0.548781,-4.831250,17.587500,19.275000,29.921,0.56782751,-0.00986786,-0.02890855,-0.82258060
'00:12:26.564,0.059082,0.030762,1.002930,0.365854,1.341463,-0.609756,-4.843750,17.512501,19.350000,29.876,0.56782661,-0.00985896,-0.02891699,-0.82258103
'00:12:26.576,0.059570,0.029785,1.001953,0.304878,1.341463,-0.609756,-4.843750,17.512501,19.350000,29.906,0.56782568,-0.00986018,-0.02891781,-0.82258163
'00:12:26.584,0.059570,0.028809,1.003906,0.304878,1.341463,-0.609756,-4.868750,17.550001,19.350000,29.921,0.56782457,-0.00986290,-0.02891246,-0.82258255
'00:12:26.594,0.060059,0.029785,1.004395,0.304878,1.280488,-0.548781,-4.868750,17.550001,19.350000,29.921,0.56782718,-0.00986957,-0.02891605,-0.82258054
'00:12:26.604,0.060059,0.029785,1.004395,0.304878,1.341463,-0.609756,-5.056250,17.837500,19.518751,29.937,0.56781886,-0.00986481,-0.02890880,-0.82258659
'00:12:26.614,0.059570,0.029785,1.003906,0.365854,1.341463,-0.548781,-5.056250,17.837500,19.518751,29.906,0.56781503,-0.00985473,-0.02890437,-0.82258952
'00:12:26.624,0.060059,0.030273,1.003418,0.304878,1.341463,-0.487805,-5.018750,17.887501,19.500000,29.967,0.56781921,-0.00985170,-0.02890443,-0.82258666
'00:12:26.634,0.060059,0.030762,1.003418,0.365854,1.341463,-0.548781,-5.018750,17.887501,19.500000,29.891,0.56781897,-0.00984365,-0.02891162,-0.82258668
'00:12:26.644,0.062012,0.029785,1.003906,0.304878,1.341463,-0.609756,-4.968750,17.656250,19.356251,29.921,0.56781297,-0.00985228,-0.02891478,-0.82259060
'00:12:26.655,0.060547,0.029297,1.002930,0.304878,1.341463,-0.609756,-4.837500,17.506250,19.268751,29.921,0.56781296,-0.00986144,-0.02891688,-0.82259042
'00:12:26.664,0.060059,0.028809,1.004395,0.365854,1.341463,-0.548781,-4.837500,17.506250,19.268751,29.952,0.56781704,-0.00986524,-0.02891775,-0.82258753
'00:12:26.674,0.058594,0.030762,1.002441,0.304878,1.341463,-0.609756,-4.793750,17.456251,19.343750,29.906,0.56781829,-0.00985905,-0.02892261,-0.82258657
'00:12:26.684,0.057617,0.030273,1.003418,0.365854,1.341463,-0.548781,-4.793750,17.456251,19.343750,29.906,0.56782412,-0.00984633,-0.02892473,-0.82258263
'00:12:26.694,0.060059,0.029785,1.004395,0.365854,1.280488,-0.548781,-4.856250,17.606251,19.325001,29.876,0.56782911,-0.00985167,-0.02893491,-0.82257876
'00:12:26.704,0.060059,0.029297,1.003418,0.304878,1.341463,-0.548781,-4.856250,17.606251,19.325001,29.891,0.56783425,-0.00985767,-0.02893514,-0.82257513
'00:12:26.714,0.060059,0.030273,1.003418,0.365854,1.341463,-0.548781,-5.106250,17.925001,19.606251,29.906,0.56782857,-0.00984701,-0.02893314,-0.82257925
'00:12:26.724,0.059570,0.029297,1.003906,0.304878,1.280488,-0.548781,-5.106250,17.925001,19.606251,29.906,0.56782294,-0.00984492,-0.02892240,-0.82258354
'00:12:26.734,0.061035,0.029785,1.005371,0.243902,1.219512,-0.548781,-4.956250,17.756250,19.450001,29.906,0.56782380,-0.00986218,-0.02892582,-0.82258262
'00:12:26.744,0.060059,0.028809,1.003906,0.182927,1.219512,-0.548781,-4.956250,17.756250,19.450001,29.937,0.56782479,-0.00988096,-0.02891618,-0.82258205
'00:12:26.754,0.060059,0.029785,1.003418,0.487805,1.463415,-0.548781,-4.881250,17.525000,19.337500,29.906,0.56782656,-0.00986424,-0.02892258,-0.82258080
'00:12:26.764,0.058105,0.031250,1.003906,0.670732,1.646341,-0.670732,-4.881250,17.525000,19.337500,29.921,0.56781998,-0.00980860,-0.02893362,-0.82258562
'00:12:26.774,0.059570,0.031250,1.003906,0.060976,1.036585,-0.548781,-4.831250,17.537500,19.337500,29.937,0.56782391,-0.00983936,-0.02894083,-0.82258229
'00:12:26.784,0.060059,0.028320,1.002930,0.000000,1.036585,-0.548781,-4.831250,17.537500,19.337500,29.967,0.56782830,-0.00988709,-0.02892913,-0.82257910
'00:12:26.794,0.060547,0.027832,1.002441,0.365854,1.402439,-0.609756,-4.837500,17.562500,19.362501,29.891,0.56782961,-0.00989435,-0.02892507,-0.82257825
'00:12:26.804,0.060059,0.028320,1.003906,0.609756,1.585366,-0.609756,-4.837500,17.562500,19.362501,29.921,0.56783151,-0.00987138,-0.02892981,-0.82257705
'00:12:26.814,0.060059,0.030273,1.003418,0.548781,1.524390,-0.609756,-5.062500,17.825001,19.518751,29.937,0.56782300,-0.00983915,-0.02893308,-0.82258319
'00:12:26.824,0.060059,0.030273,1.003418,0.548781,1.524390,-0.609756,-5.062500,17.825001,19.518751,29.937,0.56781456,-0.00980742,-0.02893639,-0.82258928
'00:12:26.834,0.059082,0.029785,1.004883,0.121951,1.097561,-0.548781,-5.075000,17.862501,19.575001,29.937,0.56780909,-0.00982425,-0.02892301,-0.82259333
'00:12:26.844,0.059570,0.029297,1.003906,0.182927,1.097561,-0.548781,-5.075000,17.862501,19.575001,29.906,0.56780376,-0.00984260,-0.02891373,-0.82259711
'00:12:26.855,0.059570,0.028809,1.002441,0.548781,1.585366,-0.609756,-4.887500,17.468750,19.356251,29.906,0.56779964,-0.00981205,-0.02890933,-0.82260047
'00:12:26.864,0.059570,0.028809,1.002441,0.548781,1.585366,-0.609756,-4.887500,17.468750,19.356251,29.906,0.56779634,-0.00978749,-0.02890585,-0.82260317
'00:12:26.874,0.058594,0.031250,1.003906,0.426829,1.463415,-0.609756,-4.837500,17.556250,19.325001,29.906,0.56779756,-0.00976425,-0.02891501,-0.82260228
'00:12:26.884,0.058594,0.029785,1.003906,0.121951,1.158537,-0.548781,-4.837500,17.556250,19.325001,29.937,0.56780245,-0.00978422,-0.02890894,-0.82259888
'00:12:26.894,0.058105,0.028809,1.003906,0.000000,0.975610,-0.548781,-4.768750,17.493750,19.268751,29.921,0.56781054,-0.00982739,-0.02889977,-0.82259310
'00:12:26.904,0.060059,0.028809,1.003418,0.243902,1.219512,-0.609756,-5.006250,17.862501,19.562500,29.921,0.56780600,-0.00984248,-0.02889375,-0.82259627
'00:12:26.914,0.060059,0.028809,1.002930,0.548781,1.524390,-0.609756,-5.006250,17.862501,19.562500,29.906,0.56780248,-0.00982052,-0.02889478,-0.82259893
'00:12:26.924,0.059570,0.030273,1.003418,0.670732,1.585366,-0.609756,-5.118750,17.950001,19.550001,29.937,0.56779353,-0.00977468,-0.02890141,-0.82260542
'00:12:26.935,0.059570,0.030762,1.002441,0.487805,1.463415,-0.609756,-5.118750,17.950001,19.550001,29.937,0.56778316,-0.00974277,-0.02890431,-0.82261285
'00:12:26.944,0.059082,0.029297,1.003418,0.182927,1.219512,-0.548781,-4.925000,17.643751,19.375000,29.921,0.56778415,-0.00975510,-0.02889539,-0.82261234
'00:12:26.954,0.059570,0.029297,1.003906,0.121951,1.158537,-0.548781,-4.925000,17.643751,19.375000,29.906,0.56778501,-0.00977861,-0.02888593,-0.82261179
'00:12:26.964,0.060059,0.028320,1.002441,0.304878,1.341463,-0.548781,-4.825000,17.493750,19.250000,29.952,0.56779052,-0.00979012,-0.02888198,-0.82260799
'00:12:26.974,0.060059,0.030273,1.004883,0.426829,1.402439,-0.609756,-4.825000,17.493750,19.250000,29.937,0.56779150,-0.00978271,-0.02889393,-0.82260699
'00:12:26.984,0.060059,0.028809,1.005859,0.304878,1.341463,-0.609756,-4.806250,17.618750,19.375000,29.921,0.56779628,-0.00979458,-0.02889547,-0.82260349
'00:12:26.994,0.061035,0.029297,1.004883,0.182927,1.158537,-0.609756,-4.806250,17.618750,19.375000,29.937,0.56780031,-0.00982909,-0.02890416,-0.82260000
'00:12:27.004,0.062012,0.028320,1.003418,0.304878,1.341463,-0.548781,-4.987500,17.781250,19.462500,29.921,0.56780032,-0.00984480,-0.02890082,-0.82259991
'00:12:27.014,0.060059,0.030273,1.000977,0.548781,1.524390,-0.609756,-4.987500,17.781250,19.462500,29.906,0.56779625,-0.00981728,-0.02891044,-0.82260271
'00:12:27.024,0.059082,0.030762,1.002930,0.487805,1.524390,-0.609756,-5.168750,18.031250,19.662500,29.921,0.56778503,-0.00977902,-0.02890576,-0.82261108
'00:12:27.034,0.059570,0.030273,1.004395,0.243902,1.280488,-0.609756,-5.168750,18.031250,19.662500,29.891,0.56777319,-0.00977515,-0.02889441,-0.82261970
'00:12:27.044,0.059082,0.028809,1.004395,0.000000,1.036585,-0.548781,-5.031250,17.806250,19.568750,29.876,0.56776957,-0.00980870,-0.02887282,-0.82262256
'00:12:27.055,0.060059,0.028320,1.004395,0.121951,1.158537,-0.548781,-5.031250,17.806250,19.568750,29.906,0.56776611,-0.00983680,-0.02885349,-0.82262529
'00:12:27.064,0.060547,0.028320,1.004883,0.487805,1.463415,-0.548781,-4.862500,17.500000,19.362501,29.906,0.56776885,-0.00983069,-0.02885483,-0.82262342
'00:12:27.074,0.060059,0.030273,1.003418,0.609756,1.585366,-0.609756,-4.862500,17.500000,19.362501,29.906,0.56776754,-0.00979901,-0.02886883,-0.82262421
'00:12:27.084,0.060059,0.030273,1.002930,0.487805,1.402439,-0.609756,-4.850000,17.575001,19.306250,29.921,0.56776858,-0.00978870,-0.02888608,-0.82262301
'00:12:27.094,0.059570,0.030762,1.001953,0.243902,1.219512,-0.548781,-4.850000,17.575001,19.306250,29.937,0.56777323,-0.00979944,-0.02889584,-0.82261933
'00:12:27.104,0.060547,0.030273,1.003418,0.121951,1.158537,-0.548781,-4.812500,17.550001,19.337500,29.891,0.56777952,-0.00982946,-0.02890238,-0.82261440
'00:12:27.114,0.060547,0.029297,1.003906,0.182927,1.158537,-0.609756,-4.812500,17.550001,19.337500,29.921,0.56778163,-0.00985957,-0.02890742,-0.82261241
'00:12:27.124,0.061035,0.028320,1.005371,0.304878,1.341463,-0.609756,-4.893750,17.637501,19.318750,29.921,0.56778093,-0.00987229,-0.02890365,-0.82261287
'00:12:27.134,0.061035,0.028320,1.004883,0.426829,1.463415,-0.609756,-4.893750,17.637501,19.318750,29.937,0.56778064,-0.00987016,-0.02890283,-0.82261313
'00:12:27.144,0.060547,0.029297,1.003906,0.426829,1.463415,-0.548781,-5.200000,18.050001,19.625000,29.921,0.56777235,-0.00985043,-0.02889217,-0.82261946
'00:12:27.154,0.059082,0.029785,1.002930,0.487805,1.524390,-0.548781,-5.200000,18.050001,19.625000,29.937,0.56776427,-0.00981410,-0.02888064,-0.82262587
'00:12:27.164,0.059082,0.029785,1.002441,0.365854,1.402439,-0.609756,-4.825000,17.431250,19.312500,29.967,0.56776359,-0.00980574,-0.02888105,-0.82262643
'00:12:27.174,0.059082,0.030762,1.002441,0.304878,1.341463,-0.548781,-4.800000,17.518751,19.268751,29.921,0.56777093,-0.00980386,-0.02888981,-0.82262108
'00:12:27.184,0.060059,0.028809,1.002441,0.182927,1.158537,-0.548781,-4.800000,17.518751,19.268751,29.906,0.56777803,-0.00983423,-0.02889140,-0.82261576
'00:12:27.194,0.061035,0.029297,1.002930,0.182927,1.158537,-0.548781,-4.812500,17.462500,19.256250,29.921,0.56778274,-0.00986589,-0.02889691,-0.82261193
'00:12:27.204,0.060547,0.029785,1.003906,0.365854,1.280488,-0.548781,-4.812500,17.462500,19.256250,29.937,0.56778776,-0.00987442,-0.02890984,-0.82260791
'00:12:27.214,0.060059,0.028809,1.003418,0.487805,1.463415,-0.548781,-5.050000,17.925001,19.518751,29.937,0.56778708,-0.00985758,-0.02890738,-0.82260867
'00:12:27.224,0.060547,0.029297,1.004395,0.426829,1.402439,-0.548781,-5.050000,17.925001,19.518751,29.967,0.56778611,-0.00984895,-0.02890780,-0.82260942
'00:12:27.234,0.060059,0.029785,1.002930,0.243902,1.280488,-0.548781,-5.343750,18.281250,19.800001,29.906,0.56777246,-0.00984299,-0.02888896,-0.82261959
'00:12:27.244,0.060059,0.029297,1.002441,0.243902,1.219512,-0.609756,-5.343750,18.281250,19.800001,29.906,0.56775445,-0.00984334,-0.02887107,-0.82263264
'00:12:27.255,0.060059,0.028809,1.002930,0.365854,1.341463,-0.609756,-4.831250,17.587500,19.381250,29.891,0.56775703,-0.00985078,-0.02887629,-0.82263058
'00:12:27.264,0.059082,0.030273,1.003906,0.426829,1.402439,-0.609756,-4.831250,17.587500,19.381250,29.937,0.56775906,-0.00983984,-0.02888544,-0.82262899
'00:12:27.274,0.058594,0.029297,1.003418,0.426829,1.402439,-0.548781,-4.831250,17.581251,19.325001,29.921,0.56776601,-0.00982900,-0.02888815,-0.82262423
'00:12:27.284,0.060059,0.029297,1.003906,0.365854,1.341463,-0.548781,-4.831250,17.581251,19.325001,29.876,0.56777268,-0.00983367,-0.02889492,-0.82261933
'00:12:27.295,0.059570,0.029297,1.003418,0.304878,1.280488,-0.548781,-4.800000,17.556250,19.343750,29.921,0.56778142,-0.00984580,-0.02890084,-0.82261294
'00:12:27.304,0.059082,0.029785,1.003906,0.365854,1.341463,-0.609756,-4.800000,17.556250,19.343750,29.937,0.56778471,-0.00984447,-0.02890744,-0.82261046
'00:12:27.314,0.060059,0.029297,1.003906,0.426829,1.341463,-0.548781,-4.912500,17.631250,19.400000,29.937,0.56778655,-0.00984174,-0.02891291,-0.82260903
'00:12:27.324,0.060547,0.030273,1.003418,0.426829,1.402439,-0.609756,-4.912500,17.631250,19.400000,29.937,0.56778394,-0.00983349,-0.02892287,-0.82261058
'00:12:27.334,0.060059,0.029785,1.003906,0.243902,1.280488,-0.548781,-5.112500,17.868750,19.600000,29.906,0.56777661,-0.00983439,-0.02891084,-0.82261605
'00:12:27.345,0.060547,0.028809,1.002930,0.243902,1.219512,-0.548781,-5.112500,17.868750,19.600000,29.937,0.56776863,-0.00984749,-0.02889765,-0.82262187
'00:12:27.354,0.061035,0.028809,1.004395,0.304878,1.280488,-0.609756,-4.925000,17.618750,19.356251,29.921,0.56776537,-0.00985975,-0.02889733,-0.82262398
'00:12:27.364,0.060059,0.028320,1.003418,0.426829,1.402439,-0.609756,-4.925000,17.618750,19.356251,29.937,0.56776227,-0.00985518,-0.02889358,-0.82262631
'00:12:27.375,0.059082,0.028320,1.003418,0.487805,1.463415,-0.548781,-4.850000,17.493750,19.325001,29.952,0.56776653,-0.00983943,-0.02888989,-0.82262368
'00:12:27.384,0.059082,0.030762,1.003906,0.426829,1.463415,-0.609756,-4.850000,17.493750,19.325001,29.921,0.56776560,-0.00982059,-0.02889534,-0.82262436
'00:12:27.394,0.059082,0.030273,1.002930,0.365854,1.402439,-0.609756,-4.862500,17.600000,19.318750,29.952,0.56776618,-0.00981017,-0.02889923,-0.82262395
'00:12:27.404,0.058105,0.028809,1.003906,0.304878,1.280488,-0.548781,-4.862500,17.600000,19.318750,29.921,0.56777113,-0.00981195,-0.02889226,-0.82262076
'00:12:27.415,0.060059,0.029785,1.003418,0.304878,1.219512,-0.548781,-4.856250,17.431250,19.237501,29.952,0.56777250,-0.00982406,-0.02889879,-0.82261943
'00:12:27.424,0.059570,0.028809,1.003418,0.304878,1.280488,-0.548781,-4.856250,17.431250,19.237501,29.937,0.56777393,-0.00983086,-0.02889464,-0.82261851
'00:12:27.434,0.060547,0.029785,1.004395,0.304878,1.341463,-0.609756,-5.125000,17.900000,19.550001,29.937,0.56776262,-0.00982645,-0.02888613,-0.82262667
'00:12:27.444,0.061035,0.030273,1.003906,0.304878,1.341463,-0.548781,-5.175000,18.043751,19.600000,29.921,0.56775548,-0.00982241,-0.02888208,-0.82263179
'00:12:27.456,0.061035,0.029785,1.004395,0.304878,1.280488,-0.548781,-5.175000,18.043751,19.600000,29.952,0.56774689,-0.00982500,-0.02887752,-0.82263785
'00:12:27.464,0.059570,0.029297,1.003418,0.243902,1.280488,-0.548781,-4.856250,17.562500,19.275000,29.876,0.56775052,-0.00983355,-0.02887538,-0.82263532
'00:12:27.474,0.061523,0.029785,1.003418,0.365854,1.402439,-0.548781,-4.856250,17.562500,19.275000,29.937,0.56775526,-0.00983814,-0.02888565,-0.82263163
'00:12:27.484,0.059570,0.029297,1.003418,0.487805,1.402439,-0.548781,-4.850000,17.562500,19.306250,29.906,0.56776055,-0.00982825,-0.02889465,-0.82262778
'00:12:27.497,0.059082,0.029297,1.002930,0.426829,1.402439,-0.548781,-4.850000,17.562500,19.306250,29.906,0.56776736,-0.00981610,-0.02889829,-0.82262309
'00:12:27.504,0.059570,0.029785,1.003906,0.243902,1.280488,-0.548781,-4.856250,17.562500,19.350000,29.906,0.56777019,-0.00982235,-0.02889781,-0.82262109
'00:12:27.514,0.060059,0.029785,1.002930,0.182927,1.158537,-0.548781,-4.856250,17.562500,19.350000,29.937,0.56777382,-0.00984585,-0.02890104,-0.82261819
'00:12:27.524,0.059570,0.028320,1.002930,0.243902,1.219512,-0.609756,-4.962500,17.681250,19.375000,29.876,0.56776894,-0.00985970,-0.02889011,-0.82262177
'00:12:27.536,0.061035,0.028809,1.004395,0.365854,1.280488,-0.548781,-4.962500,17.681250,19.375000,29.967,0.56776849,-0.00987075,-0.02889331,-0.82262183
'00:12:27.545,0.060059,0.029785,1.003418,0.365854,1.341463,-0.548781,-5.168750,17.968750,19.618750,29.967,0.56776085,-0.00986025,-0.02888662,-0.82262747
'00:12:27.554,0.061035,0.029785,1.002441,0.365854,1.402439,-0.609756,-5.168750,17.968750,19.618750,29.906,0.56774942,-0.00985078,-0.02888105,-0.82263567
'00:12:27.564,0.060547,0.029297,1.002441,0.426829,1.341463,-0.609756,-4.856250,17.543751,19.343750,29.952,0.56774905,-0.00985304,-0.02889194,-0.82263551
'00:12:27.577,0.059082,0.030762,1.004395,0.243902,1.280488,-0.548781,-4.856250,17.543751,19.343750,29.906,0.56775351,-0.00985500,-0.02889510,-0.82263230
'00:12:27.585,0.060547,0.029785,1.004395,0.182927,1.219512,-0.487805,-4.831250,17.493750,19.268751,29.906,0.56776038,-0.00987226,-0.02889668,-0.82262729
'00:12:27.594,0.060547,0.029785,1.004395,0.182927,1.219512,-0.487805,-4.831250,17.493750,19.268751,29.906,0.56776806,-0.00989142,-0.02889840,-0.82262170
'00:12:27.604,0.060059,0.028320,1.004395,0.304878,1.280488,-0.609756,-4.837500,17.518751,19.268751,29.952,0.56776854,-0.00990467,-0.02889601,-0.82262130
'00:12:27.614,0.059570,0.028809,1.003906,0.365854,1.341463,-0.548781,-4.837500,17.518751,19.268751,29.906,0.56777348,-0.00990599,-0.02889602,-0.82261787
'00:12:27.624,0.060059,0.028809,1.004883,0.304878,1.280488,-0.609756,-4.850000,17.518751,19.312500,29.906,0.56777276,-0.00991635,-0.02889511,-0.82261828
'00:12:27.634,0.059570,0.029297,1.004883,0.243902,1.219512,-0.548781,-4.850000,17.518751,19.312500,29.937,0.56777611,-0.00992950,-0.02889367,-0.82261586
'00:12:27.645,0.060059,0.028320,1.002930,0.304878,1.280488,-0.548781,-5.193750,18.043751,19.706251,29.937,0.56776645,-0.00992989,-0.02887489,-0.82262318
'00:12:27.654,0.059570,0.027832,1.002441,0.426829,1.402439,-0.609756,-5.193750,18.043751,19.706251,29.921,0.56775513,-0.00991621,-0.02885838,-0.82263174
'00:12:27.664,0.059570,0.029297,1.002930,0.426829,1.463415,-0.548781,-5.031250,17.818750,19.493750,29.921,0.56775329,-0.00989710,-0.02885237,-0.82263344
'00:12:27.674,0.059570,0.029297,1.003906,0.365854,1.341463,-0.609756,-5.031250,17.818750,19.493750,29.906,0.56774679,-0.00988969,-0.02884783,-0.82263819
'00:12:27.684,0.060059,0.028320,1.005371,0.182927,1.158537,-0.548781,-4.812500,17.562500,19.275000,29.937,0.56775416,-0.00992000,-0.02884619,-0.82263279
'00:12:27.694,0.060059,0.028320,1.004395,0.243902,1.219512,-0.609756,-4.800000,17.450001,19.275000,29.937,0.56775546,-0.00994176,-0.02884453,-0.82263168
'00:12:27.705,0.060547,0.028320,1.004395,0.426829,1.402439,-0.609756,-4.800000,17.450001,19.275000,29.937,0.56775751,-0.00994391,-0.02884923,-0.82263008
'00:12:27.714,0.060059,0.028809,1.005371,0.487805,1.463415,-0.609756,-4.931250,17.556250,19.356251,29.921,0.56775307,-0.00992889,-0.02884765,-0.82263338
'00:12:27.724,0.060547,0.029297,1.003906,0.365854,1.341463,-0.609756,-4.931250,17.556250,19.356251,29.921,0.56774763,-0.00992833,-0.02884844,-0.82263711
'00:12:27.734,0.059570,0.028809,1.002930,0.304878,1.280488,-0.548781,-5.168750,18.043751,19.618750,29.967,0.56774093,-0.00992556,-0.02883512,-0.82264224
'00:12:27.744,0.061035,0.029785,1.001465,0.304878,1.280488,-0.609756,-5.168750,18.043751,19.618750,29.937,0.56772966,-0.00992721,-0.02883355,-0.82265005
'00:12:27.754,0.060547,0.028809,1.002441,0.365854,1.402439,-0.548781,-5.237500,17.987501,19.593750,29.921,0.56771765,-0.00991341,-0.02881645,-0.82265911
'00:12:27.764,0.059570,0.028809,1.003906,0.426829,1.402439,-0.609756,-5.237500,17.987501,19.593750,29.937,0.56770144,-0.00989114,-0.02879989,-0.82267114
'00:12:27.774,0.059570,0.030273,1.003418,0.304878,1.341463,-0.548781,-4.856250,17.525000,19.318750,29.906,0.56770506,-0.00988948,-0.02880439,-0.82266850
'00:12:27.784,0.060059,0.028809,1.004395,0.304878,1.280488,-0.548781,-4.856250,17.525000,19.318750,29.952,0.56770882,-0.00990043,-0.02880503,-0.82266576
'00:12:27.794,0.059570,0.028320,1.004883,0.243902,1.341463,-0.548781,-4.875000,17.556250,19.325001,29.891,0.56771218,-0.00990825,-0.02879271,-0.82266378
'00:12:27.804,0.059570,0.029297,1.004395,0.365854,1.341463,-0.548781,-4.875000,17.556250,19.325001,29.937,0.56771543,-0.00990622,-0.02879501,-0.82266147
'00:12:27.814,0.059570,0.029785,1.003906,0.304878,1.402439,-0.609756,-4.862500,17.525000,19.362501,29.967,0.56771426,-0.00990133,-0.02879300,-0.82266241
'00:12:27.824,0.060547,0.030273,1.002930,0.426829,1.341463,-0.548781,-4.862500,17.525000,19.362501,29.937,0.56771728,-0.00989869,-0.02880966,-0.82265978
'00:12:27.834,0.060059,0.030273,1.002441,0.304878,1.341463,-0.548781,-5.081250,17.881250,19.587500,29.952,0.56771278,-0.00989199,-0.02880688,-0.82266306
'00:12:27.844,0.059570,0.028809,1.003418,0.304878,1.280488,-0.548781,-5.081250,17.881250,19.587500,29.937,0.56770848,-0.00989256,-0.02879679,-0.82266638
'00:12:27.854,0.059570,0.028809,1.002441,0.304878,1.341463,-0.548781,-4.968750,17.831251,19.418751,29.937,0.56771147,-0.00989448,-0.02879193,-0.82266446
'00:12:27.864,0.060547,0.029785,1.004395,0.304878,1.402439,-0.548781,-4.968750,17.831251,19.418751,29.921,0.56771440,-0.00989312,-0.02879250,-0.82266243
'00:12:27.874,0.059570,0.029297,1.004395,0.304878,1.341463,-0.548781,-4.843750,17.568750,19.293751,29.921,0.56772023,-0.00989632,-0.02879326,-0.82265835
'00:12:27.884,0.060059,0.029785,1.003418,0.243902,1.280488,-0.548781,-4.843750,17.568750,19.293751,29.906,0.56772569,-0.00990784,-0.02879764,-0.82265428
'00:12:27.894,0.060547,0.027832,1.003906,0.243902,1.280488,-0.609756,-4.812500,17.518751,19.281250,29.967,0.56772817,-0.00993046,-0.02879386,-0.82265243
'00:12:27.904,0.060547,0.029297,1.002930,0.365854,1.280488,-0.548781,-4.812500,17.518751,19.281250,29.921,0.56773477,-0.00994133,-0.02880748,-0.82264727
'00:12:27.914,0.060547,0.029297,1.003906,0.365854,1.341463,-0.548781,-4.868750,17.506250,19.312500,29.952,0.56773712,-0.00994385,-0.02881265,-0.82264544
'00:12:27.924,0.060059,0.029785,1.003418,0.365854,1.402439,-0.548781,-4.868750,17.506250,19.312500,29.921,0.56773951,-0.00993745,-0.02881578,-0.82264375
'00:12:27.934,0.060547,0.029297,1.004395,0.243902,1.280488,-0.548781,-4.806250,17.543751,19.312500,29.921,0.56774683,-0.00995468,-0.02882068,-0.82263832
'00:12:27.944,0.060059,0.029297,1.002441,0.243902,1.341463,-0.548781,-4.806250,17.543751,19.312500,29.906,0.56775425,-0.00996498,-0.02882132,-0.82263305
'00:12:27.955,0.059570,0.029785,1.003906,0.365854,1.341463,-0.548781,-5.081250,17.912500,19.562500,29.921,0.56775013,-0.00995228,-0.02881786,-0.82263617
'00:12:27.964,0.060059,0.028809,1.003906,0.487805,1.402439,-0.548781,-5.025000,17.737501,19.456251,29.906,0.56774729,-0.00993903,-0.02881727,-0.82263832
'00:12:27.974,0.059570,0.028809,1.003906,0.365854,1.341463,-0.609756,-5.025000,17.737501,19.456251,29.952,0.56773954,-0.00993211,-0.02880912,-0.82264403
'00:12:27.984,0.060059,0.029785,1.003418,0.365854,1.280488,-0.548781,-4.881250,17.581251,19.312500,29.952,0.56774257,-0.00993491,-0.02881920,-0.82264155
'00:12:27.994,0.059570,0.029297,1.002930,0.304878,1.280488,-0.548781,-4.881250,17.581251,19.312500,29.952,0.56774563,-0.00993998,-0.02882029,-0.82263934
'00:12:28.004,0.059082,0.029297,1.003418,0.304878,1.280488,-0.609756,-4.831250,17.525000,19.350000,29.937,0.56774630,-0.00994438,-0.02882175,-0.82263877
'00:12:28.014,0.061523,0.029785,1.003906,0.365854,1.341463,-0.670732,-4.831250,17.525000,19.350000,29.906,0.56774259,-0.00995265,-0.02883657,-0.82264072
'00:12:28.024,0.061035,0.028320,1.003906,0.365854,1.341463,-0.609756,-4.881250,17.537500,19.306250,29.921,0.56774056,-0.00996091,-0.02883745,-0.82264199
'00:12:28.034,0.061035,0.029297,1.002441,0.426829,1.341463,-0.548781,-4.881250,17.537500,19.306250,29.921,0.56774272,-0.00996269,-0.02884870,-0.82264008
'00:12:28.044,0.059570,0.029785,1.002930,0.426829,1.402439,-0.548781,-5.181250,17.987501,19.593750,29.921,0.56773415,-0.00993939,-0.02884123,-0.82264654
'00:12:28.055,0.060547,0.030273,1.002930,0.304878,1.341463,-0.548781,-5.181250,17.987501,19.593750,29.921,0.56772440,-0.00992937,-0.02883391,-0.82265365
'00:12:28.064,0.060059,0.030273,1.003906,0.243902,1.280488,-0.609756,-5.100000,17.906250,19.537500,29.952,0.56771570,-0.00992835,-0.02882869,-0.82265984
'00:12:28.074,0.060547,0.029297,1.003418,0.304878,1.280488,-0.548781,-5.100000,17.906250,19.537500,29.967,0.56771070,-0.00993088,-0.02882395,-0.82266343
'00:12:28.084,0.060059,0.029785,1.001953,0.426829,1.463415,-0.609756,-4.843750,17.543751,19.356251,29.952,0.56771144,-0.00991968,-0.02883177,-0.82266278
'00:12:28.094,0.060059,0.030762,1.004883,0.487805,1.524390,-0.548781,-4.843750,17.543751,19.356251,29.937,0.56771659,-0.00989693,-0.02884513,-0.82265903
'00:12:28.104,0.058594,0.029785,1.003906,0.365854,1.402439,-0.548781,-4.887500,17.575001,19.337500,29.952,0.56771937,-0.00988293,-0.02884221,-0.82265739
'00:12:28.114,0.059570,0.029297,1.004883,0.182927,1.158537,-0.548781,-4.887500,17.575001,19.337500,29.906,0.56772147,-0.00990278,-0.02883892,-0.82265581
'00:12:28.124,0.061035,0.029297,1.002930,0.182927,1.219512,-0.548781,-4.837500,17.543751,19.293751,29.906,0.56772653,-0.00992895,-0.02884225,-0.82265189
'00:12:28.134,0.061035,0.027344,1.001953,0.426829,1.402439,-0.548781,-4.837500,17.543751,19.293751,29.906,0.56773258,-0.00993737,-0.02884325,-0.82264757
'00:12:28.144,0.061035,0.030273,1.002441,0.548781,1.585366,-0.609756,-4.987500,17.787500,19.425001,29.906,0.56772910,-0.00990939,-0.02885421,-0.82264993
'00:12:28.154,0.059570,0.029785,1.004395,0.487805,1.463415,-0.609756,-4.987500,17.787500,19.425001,29.937,0.56772547,-0.00988706,-0.02885767,-0.82265258
'00:12:28.164,0.060059,0.030273,1.003418,0.243902,1.219512,-0.609756,-5.037500,17.818750,19.493750,29.952,0.56771800,-0.00989329,-0.02885747,-0.82265767
'00:12:28.174,0.060059,0.029785,1.003418,0.243902,1.280488,-0.548781,-5.037500,17.818750,19.493750,29.921,0.56771518,-0.00989711,-0.02885148,-0.82265978
'00:12:28.184,0.060059,0.028809,1.003906,0.426829,1.402439,-0.609756,-4.793750,17.500000,19.275000,29.891,0.56771879,-0.00989641,-0.02885865,-0.82265705
'00:12:28.194,0.058594,0.029785,1.003906,0.426829,1.463415,-0.548781,-4.793750,17.500000,19.275000,29.937,0.56772676,-0.00987951,-0.02886250,-0.82265162
'00:12:28.204,0.059570,0.028809,1.005371,0.365854,1.402439,-0.548781,-4.781250,17.543751,19.343750,29.891,0.56773633,-0.00988077,-0.02886445,-0.82264493
'00:12:28.214,0.060059,0.029297,1.003906,0.304878,1.280488,-0.548781,-4.781250,17.543751,19.343750,29.937,0.56774537,-0.00989484,-0.02887324,-0.82263821
'00:12:28.225,0.060059,0.029785,1.002441,0.365854,1.341463,-0.548781,-4.812500,17.493750,19.268751,29.921,0.56775195,-0.00989700,-0.02888403,-0.82263326
'00:12:28.234,0.059082,0.029297,1.003906,0.365854,1.341463,-0.548781,-5.118750,17.937500,19.531250,29.921,0.56774708,-0.00988503,-0.02887443,-0.82263710
'00:12:28.244,0.059570,0.028320,1.004395,0.304878,1.280488,-0.609756,-5.118750,17.937500,19.531250,29.906,0.56773734,-0.00988545,-0.02885892,-0.82264437
'00:12:28.254,0.060547,0.028809,1.003906,0.304878,1.280488,-0.548781,-4.993750,17.800001,19.443750,29.906,0.56773743,-0.00989482,-0.02885643,-0.82264428
'00:12:28.265,0.060059,0.029297,1.002441,0.304878,1.341463,-0.609756,-4.993750,17.800001,19.443750,29.952,0.56773277,-0.00989535,-0.02885205,-0.82264764
'00:12:28.274,0.059570,0.029297,1.003418,0.365854,1.341463,-0.548781,-4.918750,17.737501,19.362501,29.937,0.56773657,-0.00989369,-0.02885437,-0.82264496
'00:12:28.284,0.059082,0.029785,1.003906,0.426829,1.402439,-0.548781,-4.918750,17.737501,19.362501,29.906,0.56774091,-0.00987979,-0.02885894,-0.82264197
'00:12:28.294,0.059082,0.029785,1.003906,0.304878,1.341463,-0.609756,-4.806250,17.587500,19.287500,29.937,0.56774519,-0.00988089,-0.02886306,-0.82263886
'00:12:28.304,0.059082,0.029785,1.003906,0.304878,1.341463,-0.609756,-4.806250,17.587500,19.287500,29.937,0.56774945,-0.00988196,-0.02886709,-0.82263576
'00:12:28.314,0.059570,0.028320,1.004883,0.243902,1.219512,-0.548781,-4.825000,17.568750,19.293751,29.921,0.56775621,-0.00990175,-0.02886394,-0.82263097
'00:12:28.325,0.061035,0.029785,1.002441,0.426829,1.463415,-0.548781,-4.825000,17.568750,19.293751,29.921,0.56776401,-0.00989711,-0.02887798,-0.82262515
'00:12:28.334,0.061035,0.029785,1.002441,0.426829,1.463415,-0.548781,-4.818750,17.568750,19.312500,29.921,0.56777067,-0.00989373,-0.02888965,-0.82262019
'00:12:28.344,0.058594,0.029785,1.004395,0.487805,1.524390,-0.548781,-4.818750,17.568750,19.312500,29.937,0.56777836,-0.00986870,-0.02889359,-0.82261504
'00:12:28.354,0.059082,0.030273,1.003906,0.304878,1.341463,-0.548781,-5.068750,17.943750,19.618750,29.952,0.56777578,-0.00985816,-0.02888738,-0.82261717
'00:12:28.365,0.060059,0.029297,1.001953,0.182927,1.219512,-0.548781,-5.068750,17.943750,19.618750,29.952,0.56777270,-0.00987347,-0.02887664,-0.82261948
'00:12:28.374,0.061035,0.029297,1.004395,0.243902,1.280488,-0.609756,-5.250000,18.056250,19.725000,29.891,0.56775764,-0.00987558,-0.02886191,-0.82263037
'00:12:28.384,0.060547,0.029785,1.002930,0.487805,1.524390,-0.548781,-5.250000,18.056250,19.725000,29.982,0.56774607,-0.00984438,-0.02885261,-0.82263906
'00:12:28.394,0.059570,0.030273,1.003906,0.609756,1.524390,-0.609756,-4.887500,17.643751,19.356251,29.967,0.56774640,-0.00981459,-0.02886918,-0.82263860
'00:12:28.404,0.059082,0.030273,1.004883,0.365854,1.402439,-0.609756,-4.887500,17.643751,19.356251,29.906,0.56774626,-0.00980315,-0.02887182,-0.82263874
'00:12:28.414,0.058594,0.029785,1.004883,0.182927,1.219512,-0.548781,-4.806250,17.587500,19.337500,29.967,0.56775442,-0.00981755,-0.02887069,-0.82263298
'00:12:28.424,0.058594,0.029297,1.003418,0.243902,1.280488,-0.548781,-4.806250,17.587500,19.337500,29.906,0.56776283,-0.00982654,-0.02886869,-0.82262714
'00:12:28.434,0.059570,0.029785,1.002441,0.487805,1.463415,-0.548781,-4.868750,17.625000,19.318750,29.952,0.56776833,-0.00981050,-0.02887811,-0.82262320
'00:12:28.444,0.060059,0.030762,1.003906,0.487805,1.463415,-0.548781,-4.868750,17.625000,19.318750,29.906,0.56777360,-0.00979323,-0.02889417,-0.82261921
'00:12:28.454,0.060059,0.029785,1.004395,0.243902,1.219512,-0.548781,-5.106250,18.012501,19.668751,29.906,0.56776978,-0.00980158,-0.02888927,-0.82262191
'00:12:28.464,0.060059,0.029785,1.003906,0.304878,1.280488,-0.548781,-5.106250,18.012501,19.668751,29.967,0.56776617,-0.00980254,-0.02888600,-0.82262451
'00:12:28.474,0.061035,0.029785,1.003418,0.426829,1.463415,-0.548781,-5.056250,17.900000,19.550001,29.937,0.56776431,-0.00979082,-0.02888771,-0.82262587
'00:12:28.484,0.059082,0.029785,1.004395,0.304878,1.341463,-0.609756,-4.843750,17.525000,19.287500,29.906,0.56776452,-0.00978988,-0.02888680,-0.82262578
'00:12:28.494,0.060547,0.028320,1.002441,0.243902,1.280488,-0.548781,-4.843750,17.525000,19.287500,29.921,0.56776912,-0.00981074,-0.02888262,-0.82262249
'00:12:28.505,0.059082,0.028320,1.002930,0.426829,1.463415,-0.609756,-4.856250,17.525000,19.306250,29.906,0.56776903,-0.00979898,-0.02887503,-0.82262296
'00:12:28.514,0.060059,0.030273,1.001953,0.243902,1.219512,-0.548781,-4.856250,17.525000,19.306250,29.921,0.56777183,-0.00981172,-0.02888164,-0.82262065
'00:12:28.524,0.059570,0.029297,1.002930,0.365854,1.402439,-0.548781,-4.806250,17.606251,19.356251,29.921,0.56778090,-0.00981178,-0.02888649,-0.82261422
'00:12:28.534,0.060059,0.030273,1.004883,0.304878,1.280488,-0.609756,-4.806250,17.606251,19.356251,29.921,0.56778499,-0.00982185,-0.02889959,-0.82261081
'00:12:28.545,0.059082,0.028809,1.003418,0.365854,1.341463,-0.548781,-5.012500,17.831251,19.418751,29.937,0.56778476,-0.00981536,-0.02889102,-0.82261135
'00:12:28.554,0.058594,0.029785,1.003906,0.365854,1.402439,-0.548781,-5.012500,17.831251,19.418751,29.937,0.56778458,-0.00980034,-0.02888446,-0.82261189
'00:12:28.564,0.060059,0.028320,1.002930,0.304878,1.341463,-0.609756,-5.050000,17.925001,19.500000,29.982,0.56777942,-0.00980422,-0.02887304,-0.82261580
'00:12:28.574,0.059082,0.029297,1.002930,0.426829,1.341463,-0.548781,-5.050000,17.925001,19.500000,29.952,0.56777859,-0.00979315,-0.02887222,-0.82261653
'00:12:28.584,0.061035,0.028320,1.003906,0.365854,1.280488,-0.609756,-4.850000,17.675001,19.318750,29.937,0.56778189,-0.00981181,-0.02888137,-0.82261371
'00:12:28.594,0.060547,0.029297,1.003906,0.365854,1.341463,-0.548781,-4.850000,17.675001,19.318750,29.937,0.56778948,-0.00981948,-0.02889089,-0.82260805
'00:12:28.604,0.060059,0.029297,1.003418,0.304878,1.280488,-0.548781,-4.768750,17.581251,19.325001,29.906,0.56780026,-0.00983561,-0.02890128,-0.82260005
'00:12:28.614,0.060547,0.030762,1.002930,0.365854,1.402439,-0.609756,-4.768750,17.581251,19.325001,29.921,0.56780660,-0.00983656,-0.02892024,-0.82259500
'00:12:28.624,0.060547,0.029297,1.002441,0.304878,1.280488,-0.609756,-4.825000,17.562500,19.350000,29.921,0.56780834,-0.00985142,-0.02892747,-0.82259336
'00:12:28.634,0.060059,0.030273,1.003418,0.365854,1.341463,-0.548781,-4.825000,17.562500,19.350000,29.906,0.56781444,-0.00985204,-0.02893912,-0.82258874
'00:12:28.644,0.059570,0.029785,1.002930,0.304878,1.280488,-0.609756,-4.818750,17.593750,19.312500,29.937,0.56781737,-0.00985987,-0.02894613,-0.82258637
'00:12:28.654,0.059082,0.029297,1.003906,0.304878,1.341463,-0.548781,-4.818750,17.593750,19.312500,29.891,0.56782493,-0.00986237,-0.02894489,-0.82258117
'00:12:28.664,0.059570,0.028809,1.004395,0.365854,1.341463,-0.548781,-5.043750,17.906250,19.556250,29.937,0.56782353,-0.00985768,-0.02893672,-0.82258248
'00:12:28.674,0.059570,0.029297,1.004395,0.365854,1.341463,-0.609756,-5.043750,17.906250,19.556250,29.921,0.56781767,-0.00985104,-0.02893147,-0.82258678
'00:12:28.684,0.059570,0.029785,1.003418,0.304878,1.341463,-0.609756,-5.018750,17.812500,19.393751,29.937,0.56781185,-0.00984563,-0.02892511,-0.82259109
'00:12:28.694,0.059082,0.029785,1.003418,0.304878,1.341463,-0.548781,-5.018750,17.812500,19.393751,29.937,0.56781046,-0.00983783,-0.02891698,-0.82259243
'00:12:28.704,0.059570,0.029785,1.003418,0.365854,1.341463,-0.609756,-4.768750,17.568750,19.237501,29.952,0.56781692,-0.00984097,-0.02892903,-0.82258751
'00:12:28.714,0.060059,0.029785,1.003906,0.365854,1.280488,-0.609756,-4.768750,17.568750,19.237501,29.937,0.56782316,-0.00985099,-0.02894556,-0.82258250
'00:12:28.724,0.059570,0.029297,1.003906,0.365854,1.402439,-0.609756,-4.825000,17.543751,19.281250,29.937,0.56782503,-0.00984759,-0.02894600,-0.82258124
'00:12:28.734,0.059570,0.029297,1.003418,0.365854,1.341463,-0.609756,-4.825000,17.543751,19.281250,29.937,0.56782674,-0.00984871,-0.02894965,-0.82257991
'00:12:28.744,0.059570,0.030273,1.002930,0.304878,1.341463,-0.548781,-4.800000,17.562500,19.362501,29.967,0.56783441,-0.00985128,-0.02895676,-0.82257434
'00:12:28.754,0.059082,0.029297,1.002441,0.304878,1.341463,-0.548781,-5.006250,17.850000,19.500000,29.906,0.56783426,-0.00984687,-0.02894724,-0.82257483
'00:12:28.764,0.059082,0.029785,1.004395,0.365854,1.341463,-0.548781,-5.006250,17.850000,19.500000,29.921,0.56783410,-0.00983724,-0.02894422,-0.82257516
'00:12:28.775,0.059082,0.029297,1.004883,0.365854,1.402439,-0.548781,-5.212500,18.131250,19.618750,29.967,0.56782580,-0.00981550,-0.02892487,-0.82258183
'00:12:28.784,0.059082,0.029297,1.002930,0.365854,1.341463,-0.548781,-5.212500,18.131250,19.618750,29.937,0.56781895,-0.00980235,-0.02891276,-0.82258714
'00:12:28.794,0.058594,0.029785,1.003418,0.365854,1.341463,-0.548781,-4.850000,17.575001,19.381250,29.891,0.56782371,-0.00979624,-0.02891454,-0.82258386
'00:12:28.804,0.059570,0.028320,1.002930,0.365854,1.402439,-0.548781,-4.850000,17.575001,19.381250,29.921,0.56782889,-0.00979710,-0.02890893,-0.82258048
'00:12:28.814,0.060059,0.029785,1.003418,0.304878,1.341463,-0.548781,-4.825000,17.575001,19.318750,29.906,0.56783554,-0.00980353,-0.02891413,-0.82257563
'00:12:28.827,0.059570,0.029297,1.002441,0.365854,1.341463,-0.548781,-4.825000,17.575001,19.318750,29.937,0.56784434,-0.00980706,-0.02892089,-0.82256928
'00:12:28.834,0.058594,0.029785,1.002441,0.365854,1.341463,-0.609756,-4.812500,17.581251,19.325001,29.891,0.56784664,-0.00980427,-0.02892454,-0.82256759
'00:12:28.844,0.059082,0.029785,1.004395,0.304878,1.341463,-0.609756,-4.812500,17.581251,19.325001,29.937,0.56784986,-0.00980563,-0.02892644,-0.82256528
'00:12:28.854,0.060059,0.028320,1.003418,0.365854,1.341463,-0.548781,-4.906250,17.650000,19.412500,29.921,0.56785250,-0.00981087,-0.02892265,-0.82256353
'00:12:28.865,0.060059,0.028809,1.003418,0.304878,1.280488,-0.548781,-4.906250,17.650000,19.412500,29.906,0.56785506,-0.00982257,-0.02892008,-0.82256171
'00:12:28.874,0.058594,0.028809,1.002930,0.365854,1.341463,-0.548781,-5.056250,17.925001,19.593750,29.967,0.56785333,-0.00981399,-0.02890968,-0.82256338
'00:12:28.884,0.060059,0.030273,1.003418,0.365854,1.341463,-0.609756,-5.056250,17.925001,19.593750,29.937,0.56784674,-0.00980668,-0.02891192,-0.82256794
'00:12:28.894,0.059082,0.029297,1.002930,0.304878,1.341463,-0.548781,-4.831250,17.568750,19.400000,29.937,0.56785251,-0.00980929,-0.02890982,-0.82256399
'00:12:28.905,0.059570,0.028809,1.004883,0.365854,1.402439,-0.609756,-4.831250,17.568750,19.400000,29.982,0.56785437,-0.00980845,-0.02890724,-0.82256281
'00:12:28.914,0.060059,0.029297,1.003906,0.365854,1.280488,-0.609756,-4.818750,17.593750,19.356251,29.906,0.56785699,-0.00981741,-0.02891666,-0.82256057
'00:12:28.924,0.058594,0.029297,1.003906,0.426829,1.341463,-0.548781,-4.818750,17.593750,19.356251,29.952,0.56786449,-0.00981186,-0.02892258,-0.82255525
'00:12:28.934,0.060059,0.027832,1.003418,0.365854,1.341463,-0.548781,-4.806250,17.525000,19.275000,29.952,0.56787174,-0.00982293,-0.02892109,-0.82255016
'00:12:28.945,0.058594,0.030273,1.002441,0.304878,1.341463,-0.609756,-4.806250,17.525000,19.275000,29.937,0.56787429,-0.00981881,-0.02892411,-0.82254834
'00:12:28.954,0.059570,0.029785,1.003906,0.365854,1.402439,-0.609756,-4.856250,17.668751,19.387501,29.891,0.56787614,-0.00981446,-0.02892749,-0.82254700
'00:12:28.964,0.060059,0.030273,1.002930,0.304878,1.280488,-0.548781,-4.856250,17.668751,19.387501,29.937,0.56788207,-0.00982258,-0.02893782,-0.82254245
'00:12:28.974,0.059570,0.030762,1.004395,0.304878,1.341463,-0.548781,-5.175000,18.093750,19.662500,29.937,0.56787531,-0.00980914,-0.02893059,-0.82254753
'00:12:28.985,0.060059,0.030273,1.002441,0.426829,1.341463,-0.548781,-5.175000,18.093750,19.662500,29.937,0.56786814,-0.00979337,-0.02893233,-0.82255260
'00:12:28.994,0.059082,0.030273,1.004883,0.243902,1.280488,-0.548781,-4.962500,17.818750,19.493750,29.921,0.56786974,-0.00979485,-0.02892926,-0.82255159
'00:12:29.004,0.058594,0.029785,1.003906,0.365854,1.402439,-0.609756,-4.775000,17.525000,19.287500,29.952,0.56787457,-0.00978772,-0.02893235,-0.82254823
'00:12:29.014,0.060059,0.029785,1.004395,0.304878,1.341463,-0.609756,-4.775000,17.525000,19.287500,29.937,0.56787912,-0.00979608,-0.02893950,-0.82254474
'00:12:29.024,0.060059,0.029297,1.003906,0.304878,1.341463,-0.548781,-4.793750,17.543751,19.268751,29.952,0.56788732,-0.00980550,-0.02894289,-0.82253885
'00:12:29.034,0.059570,0.029297,1.003906,0.304878,1.341463,-0.609756,-4.793750,17.543751,19.268751,29.952,0.56789111,-0.00981190,-0.02894435,-0.82253610
'00:12:29.044,0.060059,0.029297,1.002930,0.304878,1.280488,-0.548781,-4.837500,17.562500,19.337500,29.937,0.56789616,-0.00982337,-0.02894786,-0.82253235
'00:12:29.054,0.059082,0.029785,1.003906,0.365854,1.341463,-0.609756,-4.837500,17.562500,19.337500,29.952,0.56789695,-0.00981958,-0.02895130,-0.82253173
'00:12:29.065,0.059570,0.029785,1.003418,0.365854,1.341463,-0.609756,-4.956250,17.818750,19.493750,29.982,0.56789473,-0.00981499,-0.02895360,-0.82253324
'00:12:29.074,0.059570,0.029785,1.003418,0.365854,1.341463,-0.609756,-4.956250,17.818750,19.493750,29.982,0.56789293,-0.00981129,-0.02895546,-0.82253446
'00:12:29.084,0.059570,0.030273,1.002441,0.365854,1.341463,-0.548781,-5.156250,18.062500,19.637501,29.921,0.56788688,-0.00979778,-0.02895108,-0.82253896
'00:12:29.094,0.060059,0.029297,1.002930,0.365854,1.402439,-0.548781,-5.156250,18.062500,19.637501,29.921,0.56788122,-0.00978639,-0.02894005,-0.82254338
'00:12:29.105,0.059570,0.029785,1.003418,0.365854,1.280488,-0.548781,-4.825000,17.593750,19.325001,29.937,0.56788868,-0.00979224,-0.02895158,-0.82253776
'00:12:29.114,0.059082,0.030273,1.003906,0.304878,1.280488,-0.548781,-4.825000,17.593750,19.325001,29.937,0.56789461,-0.00979538,-0.02895750,-0.82253342
'00:12:29.124,0.060547,0.029297,1.003418,0.365854,1.341463,-0.548781,-4.800000,17.550001,19.306250,29.967,0.56790230,-0.00980433,-0.02896656,-0.82252768
'00:12:29.134,0.059570,0.028809,1.003418,0.304878,1.280488,-0.548781,-4.800000,17.550001,19.306250,29.906,0.56790988,-0.00981703,-0.02896754,-0.82252227
'00:12:29.147,0.059570,0.029785,1.002930,0.304878,1.341463,-0.548781,-4.756250,17.587500,19.243750,29.967,0.56792509,-0.00982665,-0.02897807,-0.82251128
'00:12:29.154,0.059570,0.029785,1.002930,0.304878,1.341463,-0.548781,-4.756250,17.587500,19.243750,29.967,0.56793322,-0.00983169,-0.02898358,-0.82250541
'00:12:29.164,0.058594,0.029785,1.002930,0.365854,1.402439,-0.609756,-5.200000,18.125000,19.775000,29.937,0.56792088,-0.00980835,-0.02896694,-0.82251479
'00:12:29.174,0.059082,0.029785,1.003418,0.304878,1.341463,-0.609756,-5.200000,18.125000,19.775000,29.997,0.56790844,-0.00979537,-0.02895096,-0.82252410
'00:12:29.186,0.059082,0.029785,1.002930,0.304878,1.341463,-0.609756,-5.050000,17.993750,19.556250,29.937,0.56790297,-0.00978774,-0.02894259,-0.82252826
'00:12:29.194,0.059082,0.029785,1.002930,0.304878,1.341463,-0.609756,-5.050000,17.993750,19.556250,29.937,0.56789936,-0.00978276,-0.02893713,-0.82253101
'00:12:29.204,0.060059,0.029297,1.004395,0.304878,1.341463,-0.548781,-4.862500,17.643751,19.431250,29.982,0.56790442,-0.00978983,-0.02893698,-0.82252744
'00:12:29.214,0.058594,0.029297,1.004883,0.365854,1.341463,-0.548781,-4.862500,17.643751,19.431250,29.906,0.56790956,-0.00978555,-0.02893532,-0.82252399
'00:12:29.226,0.059570,0.029785,1.003418,0.365854,1.341463,-0.609756,-4.762500,17.525000,19.306250,29.937,0.56791593,-0.00978989,-0.02894829,-0.82251909
'00:12:29.234,0.060059,0.028320,1.004395,0.304878,1.280488,-0.609756,-4.762500,17.525000,19.306250,29.937,0.56792021,-0.00980524,-0.02895018,-0.82251588
'00:12:29.244,0.060547,0.029785,1.003906,0.365854,1.341463,-0.609756,-4.762500,17.537500,19.275000,29.921,0.56792581,-0.00981387,-0.02896461,-0.82251140
'00:12:29.254,0.060059,0.028809,1.003418,0.365854,1.341463,-0.548781,-4.762500,17.537500,19.275000,29.921,0.56793595,-0.00982374,-0.02897148,-0.82250404
'00:12:29.266,0.058594,0.030273,1.003418,0.304878,1.341463,-0.609756,-4.768750,17.518751,19.268751,29.921,0.56794141,-0.00982131,-0.02897643,-0.82250013
'00:12:29.274,0.061035,0.029297,1.003906,0.365854,1.341463,-0.609756,-4.950000,17.756250,19.493750,29.937,0.56793885,-0.00982528,-0.02897897,-0.82250176
'00:12:29.284,0.059082,0.029785,1.003418,0.304878,1.341463,-0.548781,-4.950000,17.756250,19.493750,29.967,0.56793993,-0.00982085,-0.02897314,-0.82250127
'00:12:29.294,0.059570,0.030273,1.003906,0.365854,1.341463,-0.609756,-5.043750,17.862501,19.531250,29.967,0.56793259,-0.00981004,-0.02897161,-0.82250653
'00:12:29.305,0.060059,0.029297,1.002930,0.365854,1.341463,-0.548781,-5.043750,17.862501,19.531250,29.952,0.56792956,-0.00980582,-0.02896642,-0.82250885
'00:12:29.314,0.059082,0.029297,1.003906,0.304878,1.280488,-0.548781,-4.793750,17.531250,19.281250,29.967,0.56793632,-0.00981295,-0.02896793,-0.82250405
'00:12:29.324,0.059570,0.029785,1.003418,0.365854,1.402439,-0.609756,-4.793750,17.531250,19.281250,29.937,0.56793964,-0.00980970,-0.02897279,-0.82250162
'00:12:29.334,0.060547,0.029297,1.003906,0.304878,1.280488,-0.548781,-4.825000,17.562500,19.350000,29.967,0.56794530,-0.00982432,-0.02897812,-0.82249735
'00:12:29.347,0.059570,0.030762,1.003906,0.365854,1.402439,-0.548781,-4.825000,17.562500,19.350000,29.967,0.56795269,-0.00981319,-0.02898861,-0.82249201
'00:12:29.354,0.060059,0.028320,1.003418,0.304878,1.341463,-0.609756,-4.818750,17.550001,19.306250,29.937,0.56795403,-0.00982110,-0.02898519,-0.82249111
'00:12:29.364,0.060059,0.030273,1.004883,0.365854,1.280488,-0.548781,-4.818750,17.550001,19.306250,29.937,0.56795979,-0.00982580,-0.02899817,-0.82248662
'00:12:29.374,0.059082,0.028809,1.002930,0.304878,1.341463,-0.548781,-5.156250,18.062500,19.668751,29.937,0.56795357,-0.00981777,-0.02897827,-0.82249171
'00:12:29.388,0.060547,0.028809,1.002930,0.304878,1.280488,-0.548781,-5.156250,18.062500,19.668751,29.906,0.56794469,-0.00982397,-0.02896288,-0.82249831
'00:12:29.394,0.060059,0.028809,1.003418,0.304878,1.402439,-0.609756,-5.037500,17.918751,19.525000,29.937,0.56794157,-0.00982236,-0.02895505,-0.82250076
'00:12:29.404,0.060059,0.029297,1.003418,0.365854,1.341463,-0.548781,-5.037500,17.918751,19.525000,29.937,0.56794056,-0.00981935,-0.02895220,-0.82250159
'00:12:29.414,0.059082,0.029785,1.003906,0.304878,1.341463,-0.609756,-4.793750,17.593750,19.312500,29.906,0.56794507,-0.00982155,-0.02895529,-0.82249834
'00:12:29.427,0.060059,0.029785,1.003906,0.365854,1.341463,-0.548781,-4.793750,17.593750,19.312500,29.921,0.56795659,-0.00982764,-0.02896971,-0.82248981
'00:12:29.434,0.060059,0.028809,1.003418,0.365854,1.341463,-0.548781,-4.793750,17.568750,19.356251,29.906,0.56796233,-0.00983345,-0.02897304,-0.82248565
'00:12:29.444,0.059082,0.029297,1.003906,0.304878,1.341463,-0.548781,-4.793750,17.568750,19.356251,29.937,0.56797040,-0.00983720,-0.02897215,-0.82248007
'00:12:29.454,0.058594,0.029297,1.004395,0.365854,1.341463,-0.548781,-4.762500,17.575001,19.287500,29.937,0.56798116,-0.00983687,-0.02897629,-0.82247250
'00:12:29.467,0.060059,0.029297,1.003906,0.365854,1.280488,-0.548781,-4.893750,17.706251,19.462500,29.967,0.56798599,-0.00984522,-0.02898335,-0.82246882
'00:12:29.474,0.059570,0.028809,1.004395,0.304878,1.341463,-0.609756,-4.893750,17.706251,19.462500,29.937,0.56798565,-0.00984794,-0.02897853,-0.82246919
'00:12:29.484,0.060547,0.029297,1.002930,0.304878,1.341463,-0.609756,-4.893750,17.706251,19.462500,29.952,0.56798503,-0.00985558,-0.02897882,-0.82246951
'00:12:29.494,0.059570,0.029785,1.002930,0.304878,1.280488,-0.609756,-5.143750,18.043751,19.643751,29.906,0.56797446,-0.00985059,-0.02896994,-0.82247719
'00:12:29.504,0.060059,0.029297,1.002441,0.365854,1.280488,-0.609756,-5.143750,18.043751,19.643751,29.921,0.56796409,-0.00984732,-0.02896496,-0.82248456
'00:12:29.514,0.060547,0.029297,1.003418,0.304878,1.341463,-0.609756,-4.825000,17.593750,19.325001,29.937,0.56796624,-0.00985723,-0.02896831,-0.82248284
'00:12:29.524,0.060547,0.029785,1.003418,0.426829,1.341463,-0.548781,-4.825000,17.593750,19.325001,29.937,0.56797273,-0.00985917,-0.02898303,-0.82247782
'00:12:29.534,0.059570,0.029297,1.002441,0.365854,1.341463,-0.548781,-4.793750,17.575001,19.318750,29.937,0.56798103,-0.00986246,-0.02898898,-0.82247184
'00:12:29.546,0.059082,0.030273,1.003418,0.365854,1.402439,-0.609756,-4.781250,17.556250,19.375000,29.952,0.56798588,-0.00985355,-0.02899681,-0.82246832
'00:12:29.554,0.060547,0.029297,1.003418,0.365854,1.280488,-0.548781,-4.781250,17.556250,19.375000,29.921,0.56799247,-0.00986443,-0.02900681,-0.82246328
'00:12:29.564,0.058594,0.029785,1.004395,0.365854,1.280488,-0.609756,-5.075000,18.000000,19.656250,29.921,0.56798541,-0.00985396,-0.02900152,-0.82246847
'00:12:29.574,0.059570,0.028809,1.002441,0.304878,1.341463,-0.609756,-5.075000,18.000000,19.656250,29.937,0.56797865,-0.00985184,-0.02898800,-0.82247364
'00:12:29.584,0.060547,0.028809,1.003906,0.304878,1.341463,-0.548781,-4.956250,17.818750,19.481251,29.937,0.56798080,-0.00985904,-0.02898284,-0.82247225
'00:12:29.596,0.059570,0.028809,1.003418,0.426829,1.402439,-0.609756,-4.956250,17.818750,19.481251,29.921,0.56797847,-0.00984860,-0.02897941,-0.82247411
'00:12:29.604,0.060059,0.028809,1.004883,0.304878,1.280488,-0.548781,-5.012500,17.787500,19.468750,29.967,0.56797650,-0.00985256,-0.02897206,-0.82247568
'00:12:29.614,0.058594,0.028809,1.003418,0.365854,1.341463,-0.548781,-5.012500,17.787500,19.468750,29.937,0.56797428,-0.00984239,-0.02895931,-0.82247778
'00:12:29.624,0.060059,0.029297,1.002930,0.365854,1.341463,-0.609756,-4.793750,17.550001,19.337500,29.937,0.56797758,-0.00984813,-0.02896678,-0.82247517
'00:12:29.634,0.060059,0.028809,1.002930,0.304878,1.341463,-0.548781,-4.793750,17.550001,19.337500,29.937,0.56798526,-0.00985886,-0.02896689,-0.82246973
'00:12:29.644,0.058105,0.029785,1.003418,0.304878,1.341463,-0.609756,-4.787500,17.562500,19.350000,29.937,0.56798910,-0.00985503,-0.02896557,-0.82246718
'00:12:29.654,0.059082,0.029297,1.003906,0.365854,1.280488,-0.548781,-4.787500,17.562500,19.350000,29.967,0.56799727,-0.00986003,-0.02897242,-0.82246123
'00:12:29.664,0.059570,0.029785,1.004395,0.365854,1.280488,-0.548781,-4.837500,17.593750,19.387501,29.952,0.56800236,-0.00986304,-0.02898034,-0.82245740
'00:12:29.674,0.059570,0.030273,1.003418,0.365854,1.341463,-0.548781,-4.837500,17.593750,19.387501,29.906,0.56800746,-0.00985988,-0.02898824,-0.82245364
'00:12:29.684,0.059082,0.029297,1.003906,0.304878,1.341463,-0.548781,-5.093750,17.912500,19.500000,29.937,0.56800228,-0.00985027,-0.02897207,-0.82245790
'00:12:29.694,0.058594,0.030273,1.003418,0.365854,1.341463,-0.609756,-5.093750,17.912500,19.500000,29.967,0.56799266,-0.00983138,-0.02896436,-0.82246505
'00:12:29.704,0.060547,0.028809,1.002930,0.365854,1.341463,-0.548781,-5.087500,17.962500,19.625000,29.967,0.56798881,-0.00983065,-0.02895756,-0.82246795
'00:12:29.714,0.059082,0.029297,1.004883,0.365854,1.341463,-0.609756,-5.087500,17.962500,19.625000,29.891,0.56798057,-0.00981954,-0.02894732,-0.82247414
'00:12:29.724,0.061035,0.029297,1.003418,0.365854,1.341463,-0.548781,-4.812500,17.593750,19.343750,29.952,0.56798794,-0.00983052,-0.02895808,-0.82246853
'00:12:29.734,0.060547,0.028809,1.003906,0.304878,1.341463,-0.548781,-4.812500,17.593750,19.343750,29.921,0.56799533,-0.00984342,-0.02895941,-0.82246323
'00:12:29.744,0.059570,0.028809,1.002930,0.365854,1.341463,-0.548781,-4.787500,17.531250,19.325001,29.921,0.56800311,-0.00984855,-0.02896214,-0.82245770
'00:12:29.754,0.059082,0.029297,1.002930,0.304878,1.341463,-0.609756,-4.787500,17.531250,19.325001,29.891,0.56800633,-0.00985181,-0.02896136,-0.82245546
'00:12:29.764,0.059082,0.030273,1.004395,0.365854,1.341463,-0.548781,-4.775000,17.525000,19.306250,29.937,0.56801458,-0.00984861,-0.02897076,-0.82244947
'00:12:29.774,0.060059,0.029297,1.002930,0.365854,1.341463,-0.548781,-4.775000,17.525000,19.306250,29.967,0.56802294,-0.00985501,-0.02897878,-0.82244334
'00:12:29.784,0.059570,0.029297,1.003418,0.304878,1.280488,-0.609756,-5.043750,17.781250,19.525000,29.921,0.56801337,-0.00985357,-0.02896825,-0.82245034
