# FW/GUI: v9.6.1-multi17-dual (PyQt5)
# StartTime: 2026-04-03 16:19:17
# Slot: 13
# DeviceID: 13
# Label: EMG13
# IP: 192.168.137.206
# TCP: 3333
# DeviceFW: EMG_FW_v9.6_MULTI17_DUALCH_RUNTIMECFG_CHEN
# IMU1_RefTime = format(imu_ms) = relative since power-on Time (IMU acquisition time)
IMU1_RefTime,ax_g,ay_g,az_g,gx_dps,gy_dps,gz_dps,mx_uT,my_uT,mz_uT,temp_C,qw,qx,qy,qz
'00:11:10.607,0.059570,0.029785,1.002930,0.365854,1.402439,-0.609756,-4.406250,17.918751,19.825001,29.529,0.57865481,-0.00959332,-0.02891378,-0.81500342
'00:11:10.614,0.059570,0.030273,1.001465,0.304878,1.341463,-0.609756,-4.712500,18.312500,20.062500,29.514,0.57864748,-0.00958744,-0.02890961,-0.81500884
'00:11:10.624,0.058105,0.029785,1.003418,0.304878,1.280488,-0.548781,-4.712500,18.312500,20.062500,29.604,0.57864139,-0.00957707,-0.02889738,-0.81501372
'00:11:10.634,0.059082,0.029297,1.002930,0.365854,1.341463,-0.548781,-4.631250,18.300001,20.031250,29.514,0.57864097,-0.00957166,-0.02889391,-0.81501421
'00:11:10.645,0.059082,0.029785,1.002930,0.243902,1.280488,-0.609756,-4.631250,18.300001,20.031250,29.484,0.57863536,-0.00957500,-0.02888715,-0.81501838
'00:11:10.655,0.060547,0.029297,1.004395,0.365854,1.402439,-0.609756,-4.493750,18.087500,19.893751,29.544,0.57863614,-0.00957855,-0.02889241,-0.81501760
'00:11:10.664,0.059570,0.028320,1.003906,0.365854,1.341463,-0.548781,-4.493750,18.087500,19.893751,29.574,0.57864081,-0.00958450,-0.02889136,-0.81501425
'00:11:10.674,0.057617,0.029297,1.002930,0.365854,1.402439,-0.609756,-4.425000,17.918751,19.800001,29.544,0.57864317,-0.00957360,-0.02888714,-0.81501286
'00:11:10.684,0.057617,0.029785,1.002930,0.304878,1.341463,-0.609756,-4.425000,17.918751,19.800001,29.499,0.57864524,-0.00956826,-0.02888459,-0.81501155
'00:11:10.694,0.058105,0.030273,1.003906,0.365854,1.341463,-0.548781,-4.443750,17.943750,19.825001,29.529,0.57865070,-0.00955983,-0.02888980,-0.81500758
'00:11:10.705,0.059082,0.029297,1.003906,0.365854,1.341463,-0.548781,-4.443750,17.943750,19.825001,29.514,0.57865689,-0.00956122,-0.02889356,-0.81500304
'00:11:10.714,0.059570,0.029297,1.002930,0.365854,1.280488,-0.609756,-4.400000,17.931250,19.800001,29.484,0.57866047,-0.00957107,-0.02890445,-0.81499999
'00:11:10.724,0.059082,0.029785,1.005859,0.365854,1.341463,-0.609756,-4.400000,17.931250,19.800001,29.499,0.57866450,-0.00957208,-0.02891292,-0.81499682
'00:11:10.734,0.060059,0.028809,1.003418,0.304878,1.341463,-0.548781,-4.550000,18.100000,19.975000,29.529,0.57866544,-0.00957943,-0.02890765,-0.81499625
'00:11:10.744,0.060059,0.029297,1.003906,0.365854,1.341463,-0.548781,-4.550000,18.100000,19.975000,29.544,0.57866633,-0.00958149,-0.02890940,-0.81499553
'00:11:10.754,0.060059,0.028320,1.003418,0.365854,1.402439,-0.609756,-4.675000,18.256250,20.025000,29.559,0.57865792,-0.00957748,-0.02889649,-0.81500201
'00:11:10.764,0.061523,0.030762,1.003906,0.365854,1.341463,-0.548781,-4.675000,18.256250,20.025000,29.529,0.57865319,-0.00957621,-0.02890634,-0.81500503
'00:11:10.774,0.062500,0.029297,1.002441,0.365854,1.341463,-0.548781,-4.381250,17.931250,19.781250,29.529,0.57866285,-0.00960050,-0.02892868,-0.81499710
'00:11:10.784,0.061035,0.029297,1.003418,0.365854,1.341463,-0.609756,-4.381250,17.931250,19.781250,29.514,0.57866815,-0.00961574,-0.02894429,-0.81499260
'00:11:10.794,0.058594,0.030273,1.002930,0.365854,1.280488,-0.548781,-4.418750,17.900000,19.818750,29.499,0.57867397,-0.00961469,-0.02895482,-0.81498810
'00:11:10.804,0.056641,0.030273,1.003906,0.365854,1.341463,-0.548781,-4.418750,17.900000,19.818750,29.514,0.57868001,-0.00959793,-0.02895370,-0.81498406
'00:11:10.814,0.059082,0.027344,1.003418,0.304878,1.280488,-0.548781,-4.418750,17.950001,19.806250,29.574,0.57868753,-0.00961560,-0.02894563,-0.81497879
'00:11:10.824,0.057129,0.031738,1.005859,0.426829,1.341463,-0.609756,-4.418750,17.950001,19.806250,29.574,0.57869008,-0.00959255,-0.02895985,-0.81497675
'00:11:10.834,0.056641,0.028320,1.002930,0.365854,1.341463,-0.548781,-4.512500,18.100000,19.893751,29.514,0.57869403,-0.00958131,-0.02894467,-0.81497461
'00:11:10.844,0.058594,0.028320,1.003906,0.304878,1.341463,-0.548781,-4.512500,18.100000,19.893751,29.499,0.57869790,-0.00958416,-0.02893296,-0.81497225
'00:11:10.854,0.058105,0.029297,1.001953,0.365854,1.402439,-0.548781,-4.675000,18.212500,20.018751,29.544,0.57869259,-0.00956501,-0.02891684,-0.81497682
'00:11:10.864,0.059570,0.029785,1.003906,0.243902,1.280488,-0.548781,-4.675000,18.212500,20.018751,29.514,0.57868682,-0.00956682,-0.02890640,-0.81498126
'00:11:10.874,0.061035,0.029297,1.004395,0.365854,1.341463,-0.548781,-4.418750,17.912500,19.787500,29.559,0.57869342,-0.00957984,-0.02891849,-0.81497600
'00:11:10.886,0.060059,0.029785,1.004395,0.365854,1.341463,-0.548781,-4.412500,17.950001,19.806250,29.529,0.57870260,-0.00958726,-0.02893289,-0.81496888
'00:11:10.894,0.061523,0.028320,1.001953,0.304878,1.280488,-0.548781,-4.412500,17.950001,19.806250,29.544,0.57870868,-0.00960987,-0.02894001,-0.81496404
'00:11:10.904,0.061523,0.028320,1.005371,0.426829,1.341463,-0.548781,-4.418750,17.981251,19.781250,29.514,0.57871683,-0.00962636,-0.02895316,-0.81495759
'00:11:10.914,0.060547,0.028320,1.003906,0.426829,1.402439,-0.609756,-4.418750,17.981251,19.781250,29.529,0.57872077,-0.00963292,-0.02895966,-0.81495449
'00:11:10.925,0.057129,0.029785,1.002930,0.365854,1.341463,-0.609756,-4.587500,18.225000,20.018751,29.499,0.57871653,-0.00961304,-0.02895065,-0.81495805
'00:11:10.934,0.058105,0.030273,1.003906,0.365854,1.341463,-0.548781,-4.587500,18.225000,20.018751,29.514,0.57871690,-0.00960019,-0.02894913,-0.81495799
'00:11:10.944,0.056641,0.029297,1.004883,0.304878,1.280488,-0.548781,-4.762500,18.381250,20.087500,29.559,0.57870869,-0.00958089,-0.02892456,-0.81496493
'00:11:10.954,0.057129,0.029297,1.004395,0.365854,1.341463,-0.609756,-4.762500,18.381250,20.087500,29.559,0.57869644,-0.00955720,-0.02890390,-0.81497463
'00:11:10.964,0.056641,0.030273,1.002930,0.304878,1.341463,-0.548781,-4.493750,18.062500,19.837500,29.574,0.57870078,-0.00954219,-0.02889743,-0.81497196
'00:11:10.974,0.058105,0.029297,1.004395,0.304878,1.341463,-0.548781,-4.493750,18.062500,19.837500,29.559,0.57870532,-0.00953941,-0.02889079,-0.81496901
'00:11:10.984,0.059082,0.030273,1.003906,0.365854,1.341463,-0.548781,-4.450000,17.993750,19.875000,29.514,0.57871103,-0.00953716,-0.02890020,-0.81496464
'00:11:10.994,0.061035,0.030762,1.002930,0.304878,1.341463,-0.548781,-4.450000,17.993750,19.875000,29.529,0.57871646,-0.00954720,-0.02891623,-0.81496010
'00:11:11.004,0.061523,0.028809,1.003906,0.304878,1.341463,-0.548781,-4.368750,17.987501,19.731251,29.514,0.57872840,-0.00957231,-0.02892882,-0.81495088
'00:11:11.014,0.061523,0.029297,1.003906,0.304878,1.341463,-0.548781,-4.368750,17.987501,19.731251,29.589,0.57874012,-0.00959497,-0.02894394,-0.81494175
'00:11:11.024,0.060547,0.028320,1.002930,0.304878,1.341463,-0.609756,-4.450000,18.018751,19.781250,29.544,0.57874242,-0.00961110,-0.02894375,-0.81493994
'00:11:11.034,0.060547,0.028320,1.004395,0.365854,1.341463,-0.548781,-4.450000,18.018751,19.781250,29.544,0.57874908,-0.00962374,-0.02894721,-0.81493493
'00:11:11.044,0.058105,0.029785,1.004883,0.365854,1.341463,-0.548781,-4.743750,18.350000,20.062500,29.574,0.57874147,-0.00960339,-0.02893313,-0.81494108
'00:11:11.054,0.057617,0.029785,1.003418,0.365854,1.341463,-0.609756,-4.743750,18.350000,20.062500,29.574,0.57872961,-0.00958082,-0.02891803,-0.81495030
'00:11:11.064,0.058594,0.030273,1.002441,0.365854,1.402439,-0.548781,-4.575000,18.137501,19.925001,29.559,0.57872956,-0.00956520,-0.02891564,-0.81495060
'00:11:11.074,0.057129,0.029785,1.004395,0.365854,1.341463,-0.548781,-4.575000,18.137501,19.925001,29.544,0.57872957,-0.00954752,-0.02890690,-0.81495112
'00:11:11.084,0.057129,0.028320,1.004883,0.365854,1.402439,-0.609756,-4.368750,17.900000,19.868750,29.544,0.57873521,-0.00954131,-0.02889750,-0.81494752
'00:11:11.094,0.059082,0.028320,1.004395,0.365854,1.341463,-0.548781,-4.368750,17.900000,19.868750,29.544,0.57874494,-0.00955097,-0.02889951,-0.81494042
'00:11:11.104,0.059082,0.029297,1.003418,0.426829,1.341463,-0.548781,-4.475000,18.056250,19.856251,29.544,0.57875045,-0.00954861,-0.02890695,-0.81493627
'00:11:11.114,0.060547,0.030762,1.003418,0.365854,1.341463,-0.609756,-4.475000,18.056250,19.856251,29.544,0.57875117,-0.00955140,-0.02892430,-0.81493511
'00:11:11.124,0.060547,0.028320,1.003906,0.304878,1.341463,-0.609756,-4.387500,17.893751,19.812500,29.514,0.57875509,-0.00957064,-0.02892619,-0.81493204
'00:11:11.134,0.059570,0.028809,1.004395,0.365854,1.402439,-0.609756,-4.387500,17.893751,19.812500,29.544,0.57875910,-0.00957450,-0.02892791,-0.81492908
'00:11:11.144,0.061035,0.028320,1.001953,0.365854,1.341463,-0.609756,-4.800000,18.531250,20.237501,29.559,0.57874693,-0.00957682,-0.02891816,-0.81493804
'00:11:11.155,0.060059,0.029297,1.003906,0.365854,1.341463,-0.609756,-4.706250,18.300001,20.156250,29.574,0.57873516,-0.00957142,-0.02891086,-0.81494672
'00:11:11.164,0.059082,0.029785,1.004395,0.304878,1.402439,-0.609756,-4.706250,18.300001,20.156250,29.544,0.57872561,-0.00955920,-0.02889717,-0.81495414
'00:11:11.174,0.058594,0.030273,1.002930,0.304878,1.341463,-0.548781,-4.468750,17.981251,19.931250,29.589,0.57872936,-0.00955586,-0.02889855,-0.81495147
'00:11:11.184,0.057617,0.030762,1.003906,0.426829,1.341463,-0.609756,-4.468750,17.981251,19.931250,29.484,0.57872881,-0.00953845,-0.02890707,-0.81495176
'00:11:11.194,0.058594,0.028809,1.002930,0.304878,1.341463,-0.548781,-4.400000,17.956251,19.825001,29.544,0.57873761,-0.00954528,-0.02890495,-0.81494550
'00:11:11.204,0.058594,0.030273,1.004395,0.365854,1.341463,-0.548781,-4.400000,17.956251,19.825001,29.499,0.57874611,-0.00954251,-0.02891508,-0.81493914
'00:11:11.214,0.059570,0.029297,1.004395,0.365854,1.341463,-0.548781,-4.418750,17.981251,19.843750,29.529,0.57875389,-0.00954849,-0.02892233,-0.81493328
'00:11:11.224,0.059570,0.030273,1.002441,0.304878,1.341463,-0.609756,-4.418750,17.981251,19.843750,29.514,0.57875700,-0.00955363,-0.02893160,-0.81493068
'00:11:11.234,0.060547,0.029297,1.003906,0.365854,1.341463,-0.548781,-4.525000,18.068750,19.843750,29.589,0.57875916,-0.00955930,-0.02893621,-0.81492892
'00:11:11.244,0.060547,0.029297,1.003906,0.365854,1.341463,-0.548781,-4.525000,18.068750,19.843750,29.589,0.57876129,-0.00956486,-0.02894073,-0.81492718
'00:11:11.254,0.061035,0.029785,1.003418,0.304878,1.280488,-0.609756,-4.600000,18.243750,20.068750,29.529,0.57875647,-0.00957657,-0.02894642,-0.81493027
'00:11:11.264,0.060547,0.029297,1.003906,0.243902,1.158537,-0.548781,-4.600000,18.243750,20.068750,29.499,0.57875574,-0.00959916,-0.02894883,-0.81493043
'00:11:11.274,0.060547,0.029785,1.002930,0.121951,1.036585,-0.548781,-4.456250,17.962500,19.806250,29.574,0.57875930,-0.00963918,-0.02895749,-0.81492713
'00:11:11.284,0.058594,0.029297,1.002930,0.000000,0.914634,-0.548781,-4.456250,17.962500,19.806250,29.499,0.57876254,-0.00968436,-0.02895268,-0.81492446
'00:11:11.294,0.059570,0.029297,1.002441,-0.060976,0.975610,-0.609756,-4.418750,17.856251,19.856251,29.529,0.57876149,-0.00973422,-0.02894514,-0.81492488
'00:11:11.304,0.059570,0.029297,1.002930,0.060976,1.036585,-0.548781,-4.418750,17.856251,19.856251,29.514,0.57876496,-0.00977287,-0.02894297,-0.81492203
'00:11:11.314,0.060059,0.028809,1.002930,0.121951,1.097561,-0.548781,-4.412500,17.843750,19.750000,29.529,0.57876925,-0.00980823,-0.02894164,-0.81491861
'00:11:11.324,0.059570,0.029785,1.004395,0.060976,1.036585,-0.548781,-4.412500,17.843750,19.750000,29.514,0.57877307,-0.00984331,-0.02894209,-0.81491545
'00:11:11.334,0.060547,0.028320,1.003418,0.121951,1.097561,-0.487805,-4.425000,17.862501,19.806250,29.499,0.57878092,-0.00988197,-0.02893880,-0.81490953
'00:11:11.344,0.058105,0.030762,1.005371,0.304878,1.341463,-0.609756,-4.425000,17.862501,19.806250,29.514,0.57878038,-0.00986873,-0.02893971,-0.81491004
'00:11:11.354,0.059570,0.029297,1.003906,0.060976,1.036585,-0.548781,-4.756250,18.506250,20.225000,29.620,0.57877313,-0.00989350,-0.02892449,-0.81491543
'00:11:11.364,0.060059,0.029297,1.002441,0.182927,1.158537,-0.548781,-4.756250,18.506250,20.225000,29.544,0.57876628,-0.00990614,-0.02891454,-0.81492050
'00:11:11.374,0.061035,0.028320,1.003418,0.426829,1.463415,-0.548781,-4.556250,18.131250,19.937500,29.514,0.57876715,-0.00990051,-0.02891225,-0.81492003
'00:11:11.384,0.061523,0.027832,1.002441,0.609756,1.646341,-0.609756,-4.556250,18.131250,19.937500,29.544,0.57876439,-0.00987752,-0.02891339,-0.81492222
'00:11:11.394,0.060547,0.028809,1.002930,0.731707,1.707317,-0.609756,-4.431250,17.950001,19.806250,29.559,0.57876703,-0.00984011,-0.02892771,-0.81492029
'00:11:11.404,0.060059,0.029785,1.004395,0.548781,1.585366,-0.609756,-4.400000,17.900000,19.818750,29.514,0.57877011,-0.00981545,-0.02893945,-0.81491799
'00:11:11.415,0.058594,0.029297,1.003906,0.365854,1.341463,-0.548781,-4.400000,17.900000,19.818750,29.514,0.57877761,-0.00981128,-0.02894189,-0.81491262
'00:11:11.424,0.060547,0.029785,1.003906,0.243902,1.219512,-0.548781,-4.368750,17.950001,19.837500,29.529,0.57878608,-0.00983184,-0.02895450,-0.81490591
'00:11:11.434,0.059570,0.028320,1.003418,0.304878,1.280488,-0.548781,-4.368750,17.950001,19.837500,29.484,0.57879598,-0.00984755,-0.02895718,-0.81489860
'00:11:11.444,0.058105,0.028320,1.003418,0.365854,1.341463,-0.609756,-4.756250,18.412500,20.187500,29.544,0.57878377,-0.00982997,-0.02893480,-0.81490828
'00:11:11.454,0.058594,0.028809,1.003906,0.243902,1.280488,-0.548781,-4.756250,18.412500,20.187500,29.514,0.57877563,-0.00982403,-0.02891176,-0.81491494
'00:11:11.464,0.059570,0.029785,1.004395,0.243902,1.219512,-0.548781,-4.756250,18.368750,20.162500,29.529,0.57876635,-0.00982334,-0.02890053,-0.81492194
'00:11:11.474,0.059570,0.029297,1.002930,0.243902,1.219512,-0.548781,-4.756250,18.368750,20.162500,29.514,0.57875722,-0.00982499,-0.02888733,-0.81492888
'00:11:11.484,0.059082,0.028809,1.004395,0.365854,1.341463,-0.548781,-4.431250,17.981251,19.843750,29.544,0.57876373,-0.00982499,-0.02888869,-0.81492420
'00:11:11.495,0.059570,0.029785,1.002930,0.487805,1.463415,-0.548781,-4.431250,17.981251,19.843750,29.544,0.57877105,-0.00980761,-0.02890197,-0.81491874
'00:11:11.504,0.060547,0.029297,1.003418,0.426829,1.402439,-0.609756,-4.431250,17.987501,19.893751,29.514,0.57877293,-0.00980702,-0.02891241,-0.81491705
'00:11:11.514,0.061523,0.028809,1.002930,0.243902,1.280488,-0.609756,-4.431250,17.987501,19.893751,29.544,0.57877458,-0.00983188,-0.02891831,-0.81491536
'00:11:11.524,0.059570,0.028809,1.002441,0.426829,1.341463,-0.609756,-4.381250,17.931250,19.750000,29.514,0.57877947,-0.00983394,-0.02892933,-0.81491148
'00:11:11.534,0.059570,0.029297,1.002441,0.609756,1.524390,-0.609756,-4.381250,17.931250,19.750000,29.529,0.57878482,-0.00981168,-0.02894674,-0.81490732
'00:11:11.544,0.059082,0.029785,1.003906,0.487805,1.402439,-0.609756,-4.612500,18.200001,20.062500,29.559,0.57877822,-0.00978920,-0.02894869,-0.81491221
'00:11:11.554,0.058594,0.030273,1.003418,0.243902,1.280488,-0.609756,-4.612500,18.200001,20.062500,29.514,0.57877107,-0.00978342,-0.02894053,-0.81491765
'00:11:11.565,0.058594,0.029297,1.003906,0.121951,1.158537,-0.548781,-4.775000,18.437500,20.168751,29.529,0.57876099,-0.00979095,-0.02891466,-0.81492564
'00:11:11.574,0.059570,0.029297,1.003418,0.243902,1.219512,-0.609756,-4.775000,18.437500,20.168751,29.529,0.57874911,-0.00979246,-0.02890264,-0.81493448
'00:11:11.584,0.059570,0.028320,1.002930,0.548781,1.524390,-0.609756,-4.468750,18.056250,19.887501,29.544,0.57875088,-0.00977436,-0.02890601,-0.81493333
'00:11:11.594,0.060059,0.029785,1.002930,0.548781,1.524390,-0.609756,-4.468750,18.056250,19.887501,29.529,0.57875232,-0.00975326,-0.02891979,-0.81493207
'00:11:11.604,0.058594,0.030762,1.003906,0.304878,1.280488,-0.548781,-4.381250,17.893751,19.825001,29.544,0.57875999,-0.00975299,-0.02893116,-0.81492622
'00:11:11.615,0.059082,0.030273,1.003906,-0.060976,0.853659,-0.548781,-4.381250,17.893751,19.825001,29.514,0.57876694,-0.00981160,-0.02893758,-0.81492035
'00:11:11.624,0.060059,0.028809,1.003418,-0.243902,0.731707,-0.548781,-4.437500,17.862501,19.893751,29.529,0.57876787,-0.00988194,-0.02892768,-0.81491919
'00:11:11.634,0.062988,0.028809,1.002930,0.000000,0.914634,-0.548781,-4.437500,17.862501,19.893751,29.589,0.57876932,-0.00995038,-0.02893695,-0.81491700
'00:11:11.644,0.061523,0.027344,1.002441,0.182927,1.219512,-0.548781,-4.437500,17.950001,19.787500,29.559,0.57877429,-0.00998544,-0.02893153,-0.81491323
'00:11:11.654,0.060547,0.028320,1.003906,0.487805,1.463415,-0.609756,-4.437500,17.950001,19.787500,29.529,0.57877559,-0.00997725,-0.02893663,-0.81491223
'00:11:11.664,0.059570,0.029785,1.003418,0.670732,1.646341,-0.548781,-4.775000,18.362501,20.093750,29.514,0.57876632,-0.00992121,-0.02893256,-0.81491964
'00:11:11.674,0.059082,0.028809,1.002441,0.609756,1.524390,-0.670732,-4.393750,17.850000,19.787500,29.544,0.57876452,-0.00989496,-0.02894212,-0.81492090
'00:11:11.684,0.059570,0.030273,1.004883,0.487805,1.463415,-0.609756,-4.393750,17.850000,19.787500,29.529,0.57876651,-0.00987592,-0.02895545,-0.81491925
'00:11:11.694,0.057617,0.029297,1.003906,0.365854,1.341463,-0.548781,-4.500000,18.100000,19.881250,29.529,0.57877037,-0.00986209,-0.02894979,-0.81491687
'00:11:11.704,0.057617,0.028809,1.004395,0.121951,1.158537,-0.548781,-4.500000,18.100000,19.881250,29.514,0.57877369,-0.00987567,-0.02893314,-0.81491494
'00:11:11.714,0.060547,0.028809,1.003418,0.060976,1.036585,-0.548781,-4.468750,17.918751,19.825001,29.589,0.57877495,-0.00991703,-0.02892932,-0.81491368
'00:11:11.724,0.060547,0.028320,1.002930,0.060976,0.975610,-0.548781,-4.468750,17.918751,19.825001,29.499,0.57877608,-0.00996420,-0.02892594,-0.81491242
'00:11:11.734,0.060059,0.028809,1.002441,0.121951,1.158537,-0.609756,-4.481250,17.987501,19.818750,29.529,0.57877388,-0.00998982,-0.02891931,-0.81491390
'00:11:11.744,0.061035,0.027832,1.002930,0.304878,1.341463,-0.548781,-4.481250,17.987501,19.818750,29.529,0.57877678,-0.01000237,-0.02891458,-0.81491186
'00:11:11.754,0.061523,0.028809,1.002441,0.365854,1.402439,-0.609756,-4.706250,18.318750,20.118750,29.514,0.57876595,-0.00999707,-0.02890826,-0.81491984
'00:11:11.764,0.060547,0.029297,1.003906,0.426829,1.402439,-0.548781,-4.706250,18.318750,20.118750,29.529,0.57875951,-0.00998126,-0.02890466,-0.81492474
'00:11:11.774,0.061035,0.028809,1.002930,0.304878,1.280488,-0.548781,-4.756250,18.425001,20.125000,29.499,0.57875172,-0.00998380,-0.02889684,-0.81493051
'00:11:11.784,0.060547,0.028809,1.003418,0.365854,1.341463,-0.548781,-4.756250,18.425001,20.125000,29.529,0.57874419,-0.00997614,-0.02888829,-0.81493626
'00:11:11.794,0.059082,0.028320,1.003906,0.365854,1.341463,-0.548781,-4.443750,17.912500,19.837500,29.544,0.57874820,-0.00997422,-0.02888425,-0.81493357
'00:11:11.804,0.059082,0.028809,1.004883,0.365854,1.341463,-0.548781,-4.443750,17.912500,19.837500,29.514,0.57875212,-0.00997009,-0.02888270,-0.81493090
'00:11:11.814,0.059082,0.029785,1.004395,0.243902,1.219512,-0.548781,-4.437500,17.956251,19.812500,29.514,0.57875690,-0.00997782,-0.02888607,-0.81492729
'00:11:11.824,0.058594,0.028809,1.004395,0.243902,1.158537,-0.548781,-4.437500,17.956251,19.812500,29.574,0.57876173,-0.00999101,-0.02888479,-0.81492374
'00:11:11.834,0.059082,0.028320,1.002930,0.182927,1.219512,-0.548781,-4.412500,17.912500,19.818750,29.514,0.57876747,-0.01000887,-0.02887680,-0.81491973
'00:11:11.844,0.060059,0.028809,1.003418,0.182927,1.219512,-0.548781,-4.412500,17.912500,19.818750,29.544,0.57877301,-0.01002985,-0.02887551,-0.81491558
'00:11:11.855,0.059570,0.029297,1.002930,0.243902,1.219512,-0.548781,-4.600000,18.200001,20.062500,29.544,0.57877054,-0.01003586,-0.02887020,-0.81491745
'00:11:11.864,0.061035,0.029297,1.002930,0.243902,1.280488,-0.548781,-4.600000,18.200001,20.062500,29.529,0.57876861,-0.01004421,-0.02886847,-0.81491878
'00:11:11.874,0.060059,0.029297,1.003906,0.243902,1.280488,-0.609756,-4.750000,18.400000,20.093750,29.514,0.57875630,-0.01004117,-0.02885531,-0.81492803
'00:11:11.884,0.060059,0.028320,1.003906,0.243902,1.219512,-0.548781,-4.750000,18.400000,20.093750,29.574,0.57874844,-0.01004665,-0.02883994,-0.81493409
'00:11:11.894,0.060059,0.027832,1.003418,0.243902,1.219512,-0.548781,-4.437500,17.912500,19.868750,29.514,0.57875234,-0.01006666,-0.02883581,-0.81493122
'00:11:11.905,0.060059,0.027832,1.003418,0.426829,1.280488,-0.609756,-4.431250,17.962500,19.837500,29.529,0.57875400,-0.01007428,-0.02884414,-0.81492965
'00:11:11.914,0.060059,0.028809,1.003906,0.365854,1.341463,-0.548781,-4.431250,17.962500,19.837500,29.499,0.57875913,-0.01007567,-0.02884902,-0.81492581
'00:11:11.924,0.059570,0.027832,1.003418,0.487805,1.402439,-0.609756,-4.425000,17.862501,19.806250,29.514,0.57875934,-0.01006694,-0.02885083,-0.81492571
'00:11:11.934,0.060547,0.029297,1.004395,0.365854,1.402439,-0.609756,-4.425000,17.862501,19.806250,29.514,0.57875908,-0.01006375,-0.02885605,-0.81492575
'00:11:11.944,0.060059,0.028809,1.003418,0.365854,1.341463,-0.548781,-4.681250,18.218750,20.068750,29.529,0.57875225,-0.01005390,-0.02884722,-0.81493103
'00:11:11.954,0.059570,0.028320,1.004395,0.365854,1.341463,-0.548781,-4.681250,18.218750,20.068750,29.499,0.57874560,-0.01004327,-0.02883344,-0.81493637
'00:11:11.964,0.059570,0.028320,1.004395,0.365854,1.341463,-0.548781,-4.750000,18.350000,20.137501,29.499,0.57873699,-0.01003060,-0.02881756,-0.81494321
'00:11:11.975,0.059570,0.028809,1.002930,0.243902,1.219512,-0.548781,-4.750000,18.350000,20.137501,29.484,0.57872702,-0.01003143,-0.02880137,-0.81495085
'00:11:11.984,0.059570,0.028809,1.002930,0.243902,1.219512,-0.548781,-4.637500,18.181250,19.993750,29.484,0.57872294,-0.01003595,-0.02879297,-0.81495399
'00:11:11.994,0.061035,0.029297,1.002930,0.243902,1.158537,-0.609756,-4.637500,18.181250,19.993750,29.544,0.57871379,-0.01005130,-0.02879555,-0.81496020
'00:11:12.004,0.061035,0.028809,1.003906,0.243902,1.219512,-0.609756,-4.462500,17.956251,19.906250,29.544,0.57871235,-0.01007171,-0.02880069,-0.81496079
'00:11:12.014,0.060059,0.028809,1.003418,0.365854,1.280488,-0.548781,-4.462500,17.956251,19.906250,29.499,0.57871551,-0.01007605,-0.02880748,-0.81495826
'00:11:12.027,0.060547,0.028320,1.003906,0.426829,1.463415,-0.609756,-4.443750,17.943750,19.887501,29.514,0.57871616,-0.01006785,-0.02881010,-0.81495780
'00:11:12.034,0.060547,0.028320,1.003906,0.426829,1.463415,-0.609756,-4.443750,17.943750,19.887501,29.514,0.57871652,-0.01006351,-0.02881148,-0.81495755
'00:11:12.044,0.060059,0.028320,1.002930,0.426829,1.463415,-0.548781,-4.493750,17.975000,19.837500,29.544,0.57871879,-0.01005208,-0.02880871,-0.81495618
'00:11:12.054,0.060059,0.028809,1.003906,0.365854,1.402439,-0.609756,-4.493750,17.975000,19.837500,29.529,0.57871645,-0.01004585,-0.02880721,-0.81495797
'00:11:12.064,0.059570,0.028809,1.002930,0.365854,1.341463,-0.548781,-4.575000,18.081251,20.012501,29.499,0.57871433,-0.01003842,-0.02880278,-0.81495973
'00:11:12.074,0.060059,0.028809,1.002441,0.243902,1.219512,-0.548781,-4.575000,18.081251,20.012501,29.514,0.57871179,-0.01004879,-0.02879811,-0.81496156
'00:11:12.084,0.060059,0.028809,1.003418,0.243902,1.158537,-0.548781,-4.737500,18.318750,20.118750,29.529,0.57870288,-0.01005660,-0.02878887,-0.81496812
'00:11:12.094,0.060059,0.028809,1.002441,0.243902,1.219512,-0.548781,-4.737500,18.318750,20.118750,29.499,0.57869415,-0.01006022,-0.02877711,-0.81497469
'00:11:12.104,0.059570,0.027832,1.002930,0.304878,1.280488,-0.609756,-4.425000,17.937500,19.850000,29.514,0.57869572,-0.01007115,-0.02877534,-0.81497351
'00:11:12.114,0.060547,0.027344,1.002930,0.365854,1.402439,-0.548781,-4.425000,17.937500,19.850000,29.559,0.57870202,-0.01007787,-0.02877283,-0.81496904
'00:11:12.125,0.061035,0.028809,1.002930,0.304878,1.341463,-0.548781,-4.425000,17.868750,19.825001,29.544,0.57870676,-0.01008861,-0.02877863,-0.81496534
'00:11:12.134,0.060059,0.028809,1.002441,0.304878,1.341463,-0.548781,-4.425000,17.868750,19.825001,29.514,0.57871064,-0.01009234,-0.02877985,-0.81496249
'00:11:12.144,0.059570,0.029297,1.002441,0.365854,1.280488,-0.548781,-4.450000,17.925001,19.925001,29.529,0.57871381,-0.01009225,-0.02878846,-0.81495994
'00:11:12.154,0.059082,0.028809,1.002441,0.304878,1.280488,-0.548781,-4.450000,17.925001,19.925001,29.544,0.57871703,-0.01009446,-0.02878774,-0.81495765
'00:11:12.164,0.061035,0.027344,1.003418,0.304878,1.341463,-0.548781,-4.625000,18.225000,20.050001,29.559,0.57871463,-0.01010230,-0.02877583,-0.81495968
'00:11:12.174,0.060547,0.028320,1.003418,0.426829,1.402439,-0.609756,-4.625000,18.225000,20.050001,29.574,0.57870798,-0.01009272,-0.02877337,-0.81496460
'00:11:12.184,0.060059,0.028320,1.002930,0.426829,1.463415,-0.548781,-4.775000,18.343750,20.118750,29.499,0.57869812,-0.01006921,-0.02875730,-0.81497246
'00:11:12.194,0.059570,0.029297,1.003418,0.365854,1.341463,-0.609756,-4.437500,17.887501,19.806250,29.544,0.57869780,-0.01006488,-0.02876339,-0.81497253
'00:11:12.204,0.059570,0.028809,1.002930,0.243902,1.219512,-0.548781,-4.437500,17.887501,19.806250,29.514,0.57870149,-0.01007771,-0.02876419,-0.81496972
'00:11:12.215,0.060547,0.029297,1.003906,0.182927,1.158537,-0.548781,-4.437500,17.875000,19.837500,29.514,0.57870468,-0.01010327,-0.02877029,-0.81496692
'00:11:12.224,0.061035,0.027832,1.004395,0.243902,1.158537,-0.609756,-4.437500,17.875000,19.837500,29.559,0.57870365,-0.01012874,-0.02877302,-0.81496725
'00:11:12.234,0.060059,0.028809,1.002930,0.304878,1.280488,-0.548781,-4.450000,17.962500,19.806250,29.514,0.57870814,-0.01013606,-0.02877745,-0.81496381
'00:11:12.244,0.061035,0.028320,1.003418,0.365854,1.341463,-0.548781,-4.450000,17.962500,19.806250,29.514,0.57871287,-0.01014323,-0.02878396,-0.81496013
'00:11:12.254,0.059570,0.027344,1.002930,0.426829,1.402439,-0.548781,-4.612500,18.106251,20.012501,29.544,0.57870913,-0.01013093,-0.02877028,-0.81496342
'00:11:12.264,0.060059,0.028320,1.002441,0.548781,1.524390,-0.609756,-4.612500,18.106251,20.012501,29.529,0.57870130,-0.01010275,-0.02876721,-0.81496944
'00:11:12.274,0.060547,0.028320,1.003418,0.548781,1.585366,-0.609756,-4.625000,18.175001,20.081251,29.514,0.57869406,-0.01007352,-0.02876316,-0.81497509
'00:11:12.284,0.059570,0.029297,1.003418,0.426829,1.402439,-0.609756,-4.625000,18.175001,20.081251,29.469,0.57868616,-0.01005445,-0.02876149,-0.81498099
'00:11:12.294,0.058594,0.029297,1.003906,0.182927,1.097561,-0.548781,-4.425000,17.943750,19.875000,29.544,0.57869134,-0.01007313,-0.02876476,-0.81497697
'00:11:12.304,0.059570,0.028320,1.003418,-0.060976,0.975610,-0.487805,-4.425000,17.943750,19.875000,29.604,0.57870042,-0.01012234,-0.02875518,-0.81497024
'00:11:12.314,0.059570,0.027832,1.002930,0.060976,0.975610,-0.548781,-4.475000,17.962500,19.850000,29.544,0.57870230,-0.01016356,-0.02874827,-0.81496864
'00:11:12.324,0.060059,0.028320,1.002930,0.304878,1.280488,-0.548781,-4.475000,17.962500,19.850000,29.544,0.57870496,-0.01017092,-0.02874815,-0.81496666
'00:11:12.334,0.060059,0.029785,1.002441,0.426829,1.463415,-0.609756,-4.450000,17.931250,19.856251,29.574,0.57870454,-0.01015411,-0.02875745,-0.81496684
'00:11:12.344,0.059570,0.029297,1.004883,0.304878,1.341463,-0.548781,-4.450000,17.931250,19.856251,29.544,0.57870821,-0.01015124,-0.02875825,-0.81496425
'00:11:12.354,0.061035,0.028809,1.003906,0.000000,1.036585,-0.548781,-4.468750,17.918751,19.918751,29.529,0.57870901,-0.01019478,-0.02875433,-0.81496327
'00:11:12.364,0.060547,0.028320,1.003906,-0.243902,0.731707,-0.548781,-4.468750,17.918751,19.918751,29.559,0.57870889,-0.01027086,-0.02874364,-0.81496278
'00:11:12.374,0.062012,0.026855,1.002930,-0.243902,0.731707,-0.487805,-4.656250,18.137501,20.000000,29.499,0.57870483,-0.01035159,-0.02872101,-0.81496544
'00:11:12.384,0.061523,0.027832,1.002441,0.243902,1.219512,-0.548781,-4.656250,18.137501,20.000000,29.559,0.57869782,-0.01036516,-0.02871253,-0.81497055
'00:11:12.394,0.061523,0.027832,1.002441,0.670732,1.646341,-0.609756,-4.525000,18.012501,19.912500,29.544,0.57869450,-0.01033286,-0.02872060,-0.81497303
'00:11:12.404,0.060059,0.028809,1.003418,0.548781,1.585366,-0.609756,-4.525000,18.012501,19.912500,29.544,0.57869084,-0.01029908,-0.02872233,-0.81497599
'00:11:12.414,0.058594,0.028320,1.003906,0.304878,1.280488,-0.548781,-4.400000,17.881250,19.825001,29.529,0.57869699,-0.01029951,-0.02872026,-0.81497170
'00:11:12.424,0.061035,0.028320,1.003418,0.121951,1.158537,-0.548781,-4.400000,17.881250,19.825001,29.529,0.57870251,-0.01033181,-0.02872151,-0.81496732
'00:11:12.434,0.060059,0.026855,1.003418,0.304878,1.280488,-0.609756,-4.406250,17.906250,19.887501,29.544,0.57870431,-0.01034616,-0.02871693,-0.81496602
'00:11:12.444,0.061523,0.026855,1.002441,0.731707,1.707317,-0.609756,-4.406250,17.906250,19.887501,29.499,0.57870745,-0.01031696,-0.02872758,-0.81496379
'00:11:12.454,0.061523,0.028320,1.002441,1.036585,2.073171,-0.609756,-4.412500,17.875000,19.850000,29.574,0.57871052,-0.01023983,-0.02874872,-0.81496184
'00:11:12.464,0.060059,0.029297,1.003906,1.036585,2.073171,-0.609756,-4.712500,18.312500,20.081251,29.529,0.57870159,-0.01013893,-0.02875461,-0.81496923
'00:11:12.474,0.059082,0.030762,1.005371,0.487805,1.524390,-0.609756,-4.712500,18.312500,20.081251,29.514,0.57869074,-0.01009462,-0.02875312,-0.81497754
'00:11:12.485,0.059570,0.029297,1.004883,-0.121951,0.792683,-0.548781,-4.837500,18.406250,20.225000,29.559,0.57867391,-0.01014106,-0.02872937,-0.81498975
'00:11:12.495,0.061035,0.028320,1.002441,-0.304878,0.670732,-0.487805,-4.837500,18.406250,20.225000,29.529,0.57866264,-0.01021325,-0.02870253,-0.81499779
'00:11:12.504,0.061035,0.027344,1.002441,0.121951,1.097561,-0.548781,-4.481250,17.987501,19.881250,29.529,0.57866471,-0.01024804,-0.02869841,-0.81499603
'00:11:12.514,0.061523,0.026367,1.001465,0.731707,1.707317,-0.609756,-4.481250,17.987501,19.881250,29.589,0.57866486,-0.01021890,-0.02870318,-0.81499612
'00:11:12.524,0.060547,0.028320,1.002441,1.219512,2.256098,-0.670732,-4.500000,17.912500,19.837500,29.544,0.57865940,-0.01011044,-0.02871884,-0.81500080
'00:11:12.536,0.060059,0.028809,1.002930,1.402439,2.378049,-0.670732,-4.500000,17.912500,19.837500,29.484,0.57865353,-0.00995501,-0.02874655,-0.81500591
'00:11:12.544,0.058105,0.029297,1.004395,1.219512,2.256098,-0.609756,-4.381250,17.900000,19.806250,29.514,0.57865946,-0.00986283,-0.02876220,-0.81500227
'00:11:12.554,0.059082,0.030273,1.005371,0.609756,1.646341,-0.609756,-4.381250,17.900000,19.806250,29.574,0.57866468,-0.00982442,-0.02877835,-0.81499845
'00:11:12.564,0.059082,0.029297,1.003906,0.182927,1.158537,-0.548781,-4.593750,18.156250,19.993750,29.499,0.57866292,-0.00983770,-0.02877196,-0.81499977
'00:11:12.574,0.060547,0.027832,1.002441,0.182927,1.158537,-0.548781,-4.593750,18.156250,19.993750,29.574,0.57866140,-0.00986528,-0.02876374,-0.81500080
'00:11:12.584,0.060547,0.028809,1.003418,0.670732,1.646341,-0.548781,-4.643750,18.100000,19.943750,29.574,0.57865688,-0.00982506,-0.02876588,-0.81500442
'00:11:12.594,0.059570,0.028320,1.002930,1.036585,2.073171,-0.609756,-4.643750,18.100000,19.943750,29.529,0.57864962,-0.00973318,-0.02876608,-0.81501067
'00:11:12.604,0.060547,0.029297,1.003418,1.036585,2.012195,-0.609756,-4.587500,18.075001,19.975000,29.559,0.57864531,-0.00965168,-0.02878254,-0.81501412
'00:11:12.616,0.059082,0.029785,1.003418,0.731707,1.768293,-0.609756,-4.587500,18.075001,19.975000,29.604,0.57863919,-0.00958238,-0.02878722,-0.81501912
'00:11:12.624,0.059570,0.029785,1.003418,0.487805,1.463415,-0.609756,-4.468750,18.006250,19.831251,29.559,0.57864027,-0.00957136,-0.02879690,-0.81501814
'00:11:12.634,0.059570,0.029297,1.003418,0.426829,1.402439,-0.548781,-4.468750,18.006250,19.831251,29.559,0.57864585,-0.00956730,-0.02880474,-0.81501395
'00:11:12.644,0.060059,0.028809,1.002930,0.487805,1.463415,-0.609756,-4.418750,17.906250,19.768751,29.514,0.57864892,-0.00956235,-0.02881497,-0.81501146
'00:11:12.654,0.060547,0.029785,1.002930,0.487805,1.524390,-0.609756,-4.418750,17.906250,19.768751,29.544,0.57865189,-0.00955184,-0.02882960,-0.81500896
'00:11:12.664,0.059082,0.028320,1.001953,0.548781,1.524390,-0.548781,-4.425000,17.968750,19.843750,29.574,0.57866023,-0.00953714,-0.02883493,-0.81500302
'00:11:12.674,0.059082,0.029297,1.004395,0.426829,1.402439,-0.548781,-4.425000,17.968750,19.843750,29.529,0.57866797,-0.00953288,-0.02884234,-0.81499732
'00:11:12.684,0.059570,0.028809,1.002930,0.365854,1.341463,-0.609756,-4.637500,18.268751,20.068750,29.574,0.57866215,-0.00953205,-0.02883773,-0.81500162
'00:11:12.696,0.060059,0.029297,1.001465,0.426829,1.463415,-0.609756,-4.650000,18.362501,20.125000,29.499,0.57865661,-0.00951895,-0.02883770,-0.81500571
'00:11:12.704,0.060059,0.029297,1.001465,0.426829,1.463415,-0.609756,-4.650000,18.362501,20.125000,29.499,0.57865295,-0.00951039,-0.02883772,-0.81500841
'00:11:12.714,0.058105,0.030273,1.002441,0.487805,1.463415,-0.670732,-4.650000,18.362501,20.125000,29.559,0.57864399,-0.00948151,-0.02883951,-0.81501504
'00:11:12.724,0.061035,0.028320,1.000977,0.304878,1.280488,-0.548781,-4.412500,17.900000,19.818750,29.559,0.57865102,-0.00950870,-0.02884768,-0.81500945
'00:11:12.734,0.057617,0.030762,1.003906,0.365854,1.341463,-0.548781,-4.387500,17.906250,19.825001,29.559,0.57865970,-0.00949953,-0.02885812,-0.81500302
'00:11:12.744,0.061035,0.028320,1.002441,0.426829,1.402439,-0.609756,-4.387500,17.906250,19.825001,29.544,0.57866457,-0.00951279,-0.02886997,-0.81499899
'00:11:12.754,0.059570,0.029785,1.004883,0.243902,1.280488,-0.548781,-4.381250,17.912500,19.762501,29.529,0.57867387,-0.00952925,-0.02887702,-0.81499194
'00:11:12.764,0.058594,0.029785,1.003418,0.487805,1.463415,-0.609756,-4.381250,17.912500,19.762501,29.574,0.57867947,-0.00951472,-0.02888868,-0.81498772
'00:11:12.774,0.059082,0.029297,1.002441,0.304878,1.280488,-0.548781,-4.812500,18.543751,20.268751,29.529,0.57867104,-0.00951054,-0.02887547,-0.81499423
'00:11:12.784,0.059082,0.030762,1.003418,0.365854,1.341463,-0.609756,-4.812500,18.543751,20.268751,29.484,0.57865823,-0.00949281,-0.02887170,-0.81500366
'00:11:12.794,0.059082,0.029785,1.002930,0.365854,1.402439,-0.548781,-4.731250,18.431250,20.225000,29.529,0.57865333,-0.00947850,-0.02886329,-0.81500760
'00:11:12.804,0.060059,0.029297,1.003418,0.365854,1.280488,-0.548781,-4.731250,18.431250,20.225000,29.499,0.57864827,-0.00948040,-0.02886214,-0.81501122
'00:11:12.815,0.059082,0.029785,1.004395,0.304878,1.280488,-0.548781,-4.418750,17.975000,19.837500,29.514,0.57865697,-0.00949127,-0.02887101,-0.81500459
'00:11:12.824,0.059570,0.028320,1.002930,0.365854,1.341463,-0.548781,-4.418750,17.975000,19.837500,29.529,0.57866447,-0.00950153,-0.02887389,-0.81499905
'00:11:12.834,0.059570,0.029785,1.004395,0.304878,1.280488,-0.609756,-4.443750,17.937500,19.881250,29.529,0.57866516,-0.00951167,-0.02888077,-0.81499820
'00:11:12.845,0.059082,0.029785,1.003906,0.365854,1.341463,-0.548781,-4.443750,17.937500,19.881250,29.514,0.57867088,-0.00951171,-0.02888755,-0.81499389
'00:11:12.857,0.059082,0.028809,1.002930,0.365854,1.341463,-0.609756,-4.456250,17.931250,19.875000,29.574,0.57867095,-0.00951556,-0.02888717,-0.81499381
'00:11:12.864,0.058594,0.029785,1.003418,0.304878,1.280488,-0.548781,-4.456250,17.931250,19.875000,29.544,0.57867375,-0.00951821,-0.02888848,-0.81499175
'00:11:12.874,0.060547,0.029297,1.001953,0.426829,1.341463,-0.548781,-4.625000,18.250000,20.050001,29.529,0.57867261,-0.00951874,-0.02889507,-0.81499232
'00:11:12.884,0.060059,0.029785,1.001953,0.365854,1.341463,-0.548781,-4.625000,18.250000,20.050001,29.514,0.57867132,-0.00951761,-0.02889806,-0.81499314
'00:11:12.897,0.060059,0.028320,1.002441,0.365854,1.341463,-0.548781,-4.781250,18.556250,20.237501,29.574,0.57866404,-0.00951709,-0.02888371,-0.81499882
'00:11:12.904,0.060059,0.028320,1.002441,0.365854,1.341463,-0.548781,-4.781250,18.556250,20.237501,29.574,0.57866015,-0.00951685,-0.02887616,-0.81500185
'00:11:12.914,0.059570,0.028809,1.003418,0.365854,1.402439,-0.548781,-4.531250,18.081251,19.950001,29.514,0.57866249,-0.00951586,-0.02887201,-0.81500035
'00:11:12.924,0.059570,0.029785,1.003418,0.365854,1.341463,-0.609756,-4.531250,18.081251,19.950001,29.559,0.57866014,-0.00951505,-0.02887669,-0.81500187
'00:11:12.937,0.059082,0.030273,1.004395,0.426829,1.402439,-0.548781,-4.406250,17.937500,19.850000,29.514,0.57867065,-0.00950568,-0.02889386,-0.81499390
'00:11:12.944,0.058105,0.029297,1.003418,0.426829,1.280488,-0.548781,-4.406250,17.937500,19.850000,29.514,0.57867625,-0.00950585,-0.02890071,-0.81498969
'00:11:12.954,0.059570,0.030762,1.002441,0.365854,1.341463,-0.548781,-4.437500,17.918751,19.887501,29.544,0.57868114,-0.00950511,-0.02891486,-0.81498572
'00:11:12.964,0.060059,0.028809,1.002441,0.365854,1.341463,-0.548781,-4.437500,17.918751,19.887501,29.544,0.57868639,-0.00951523,-0.02891936,-0.81498171
'00:11:12.975,0.059082,0.029297,1.003418,0.365854,1.280488,-0.609756,-4.400000,17.918751,19.768751,29.574,0.57869058,-0.00952448,-0.02892954,-0.81497827
'00:11:12.984,0.059082,0.030762,1.002930,0.365854,1.402439,-0.548781,-4.793750,18.343750,20.162500,29.620,0.57868054,-0.00950297,-0.02892010,-0.81498598
'00:11:12.994,0.060547,0.028809,1.002441,0.426829,1.402439,-0.548781,-4.793750,18.343750,20.162500,29.544,0.57866991,-0.00949245,-0.02890916,-0.81499404
'00:11:13.004,0.059082,0.028809,1.003906,0.365854,1.280488,-0.609756,-4.531250,18.175001,19.956251,29.514,0.57866960,-0.00949861,-0.02891058,-0.81499414
'00:11:13.016,0.059570,0.029297,1.004395,0.426829,1.402439,-0.609756,-4.531250,18.175001,19.956251,29.544,0.57866950,-0.00949256,-0.02891555,-0.81499411
'00:11:13.024,0.060059,0.028809,1.003906,0.365854,1.341463,-0.548781,-4.468750,17.962500,19.787500,29.514,0.57867311,-0.00949916,-0.02891772,-0.81499139
'00:11:13.034,0.059570,0.029785,1.003906,0.304878,1.280488,-0.548781,-4.468750,17.962500,19.787500,29.529,0.57867721,-0.00950795,-0.02892277,-0.81498819
'00:11:13.044,0.059082,0.029785,1.002930,0.365854,1.341463,-0.609756,-4.437500,17.968750,19.812500,29.604,0.57867938,-0.00950860,-0.02892999,-0.81498639
'00:11:13.056,0.058594,0.030273,1.001465,0.365854,1.341463,-0.548781,-4.437500,17.968750,19.812500,29.544,0.57868703,-0.00950415,-0.02894019,-0.81498065
'00:11:13.064,0.059082,0.030273,1.002441,0.365854,1.341463,-0.609756,-4.462500,17.981251,19.768751,29.529,0.57868759,-0.00950191,-0.02894685,-0.81498004
'00:11:13.074,0.059082,0.028809,1.001465,0.304878,1.219512,-0.548781,-4.462500,17.981251,19.768751,29.544,0.57869257,-0.00951725,-0.02894877,-0.81497626
'00:11:13.084,0.058594,0.029297,1.004883,0.365854,1.341463,-0.609756,-4.781250,18.512501,20.200001,29.529,0.57868154,-0.00950340,-0.02893474,-0.81498475
'00:11:13.098,0.059082,0.029785,1.005371,0.426829,1.402439,-0.548781,-4.781250,18.512501,20.200001,29.544,0.57867243,-0.00947512,-0.02892348,-0.81499195
'00:11:13.105,0.058105,0.028809,1.004883,0.365854,1.341463,-0.548781,-4.781250,18.481251,20.181250,29.574,0.57866753,-0.00946522,-0.02891028,-0.81499601
'00:11:13.116,0.059082,0.029297,1.004395,0.304878,1.280488,-0.548781,-4.781250,18.481251,20.181250,29.529,0.57865955,-0.00946192,-0.02889593,-0.81500223
'00:11:13.124,0.057617,0.030273,1.003418,0.304878,1.341463,-0.609756,-4.443750,17.937500,19.850000,29.574,0.57866034,-0.00945663,-0.02889504,-0.81500176
'00:11:13.136,0.059570,0.030762,1.001953,0.365854,1.341463,-0.548781,-4.443750,17.937500,19.850000,29.529,0.57866654,-0.00945656,-0.02891253,-0.81499673
'00:11:13.144,0.060059,0.030273,1.001465,0.304878,1.280488,-0.548781,-4.418750,17.956251,19.812500,29.559,0.57867240,-0.00946771,-0.02892441,-0.81499202
'00:11:13.154,0.060059,0.029785,1.004395,0.304878,1.341463,-0.548781,-4.418750,17.956251,19.812500,29.544,0.57867994,-0.00947848,-0.02893188,-0.81498628
'00:11:13.164,0.060547,0.028809,1.003418,0.426829,1.402439,-0.548781,-4.425000,17.868750,19.750000,29.574,0.57868576,-0.00948387,-0.02893919,-0.81498182
'00:11:13.176,0.061523,0.028809,1.003418,0.365854,1.341463,-0.548781,-4.425000,17.868750,19.750000,29.559,0.57869239,-0.00950566,-0.02895100,-0.81497644
'00:11:13.184,0.058105,0.030273,1.003418,0.426829,1.341463,-0.609756,-4.612500,18.231251,19.993750,29.559,0.57868834,-0.00949194,-0.02895216,-0.81497944
'00:11:13.194,0.059082,0.030273,1.003906,0.365854,1.341463,-0.487805,-4.612500,18.231251,19.993750,29.529,0.57869189,-0.00948377,-0.02895290,-0.81497698
'00:11:13.204,0.059082,0.029297,1.003906,0.365854,1.341463,-0.609756,-4.637500,18.337500,20.125000,29.544,0.57868707,-0.00947952,-0.02894827,-0.81498062
'00:11:13.214,0.058105,0.029785,1.001953,0.365854,1.341463,-0.609756,-4.637500,18.337500,20.125000,29.544,0.57868218,-0.00946831,-0.02894339,-0.81498439
'00:11:13.224,0.058105,0.030273,1.000977,0.365854,1.341463,-0.609756,-4.381250,17.918751,19.843750,29.529,0.57868702,-0.00946539,-0.02895331,-0.81498064
'00:11:13.234,0.060059,0.030762,1.002441,0.304878,1.341463,-0.548781,-4.381250,17.918751,19.843750,29.574,0.57869592,-0.00947452,-0.02896888,-0.81497366
'00:11:13.244,0.060059,0.029297,1.003418,0.304878,1.341463,-0.548781,-4.425000,17.906250,19.812500,29.529,0.57870186,-0.00948623,-0.02897147,-0.81496922
'00:11:13.256,0.059570,0.028809,1.002930,0.304878,1.341463,-0.548781,-4.375000,17.887501,19.787500,29.559,0.57871293,-0.00950280,-0.02897328,-0.81496109
'00:11:13.264,0.060059,0.028320,1.004395,0.365854,1.341463,-0.609756,-4.375000,17.887501,19.787500,29.514,0.57871691,-0.00951461,-0.02897676,-0.81495801
'00:11:13.274,0.060059,0.028320,1.004395,0.365854,1.341463,-0.609756,-4.450000,17.912500,19.868750,29.544,0.57871678,-0.00952484,-0.02897539,-0.81495803
'00:11:13.284,0.061035,0.029785,1.003418,0.365854,1.280488,-0.609756,-4.450000,17.912500,19.868750,29.514,0.57871610,-0.00953892,-0.02898997,-0.81495783
'00:11:13.294,0.059082,0.030273,1.002441,0.365854,1.280488,-0.548781,-4.743750,18.368750,20.162500,29.529,0.57870838,-0.00952862,-0.02898628,-0.81496357
'00:11:13.304,0.058594,0.031738,1.003418,0.304878,1.280488,-0.609756,-4.743750,18.368750,20.162500,29.559,0.57869602,-0.00951258,-0.02898438,-0.81497259
'00:11:13.314,0.059570,0.028809,1.001465,0.304878,1.280488,-0.548781,-4.662500,18.262501,20.018751,29.544,0.57869238,-0.00951786,-0.02897473,-0.81497546
'00:11:13.324,0.057617,0.030273,1.002930,0.304878,1.341463,-0.548781,-4.662500,18.262501,20.018751,29.544,0.57868868,-0.00950160,-0.02896210,-0.81497873
'00:11:13.334,0.059082,0.028809,1.003418,0.365854,1.341463,-0.548781,-4.412500,17.900000,19.787500,29.514,0.57869565,-0.00950700,-0.02896322,-0.81497368
'00:11:13.344,0.060059,0.027344,1.004883,0.365854,1.402439,-0.609756,-4.412500,17.900000,19.787500,29.544,0.57869868,-0.00951904,-0.02895613,-0.81497163
'00:11:13.354,0.059570,0.028809,1.003418,0.365854,1.341463,-0.548781,-4.462500,17.987501,19.868750,29.514,0.57870365,-0.00952503,-0.02895707,-0.81496800
'00:11:13.364,0.060059,0.029785,1.003418,0.304878,1.280488,-0.609756,-4.462500,17.987501,19.868750,29.604,0.57870381,-0.00953689,-0.02896439,-0.81496749
'00:11:13.374,0.061035,0.030273,1.001953,0.365854,1.280488,-0.548781,-4.431250,17.975000,19.868750,29.529,0.57871007,-0.00955129,-0.02898546,-0.81496213
'00:11:13.384,0.060059,0.031250,1.001465,0.304878,1.341463,-0.548781,-4.431250,17.975000,19.868750,29.514,0.57871616,-0.00955467,-0.02900065,-0.81495722
'00:11:13.394,0.060547,0.028809,1.001953,0.365854,1.341463,-0.548781,-4.725000,18.331251,20.087500,29.589,0.57870955,-0.00955439,-0.02899219,-0.81496222
'00:11:13.404,0.060547,0.029785,1.002441,0.365854,1.341463,-0.609756,-4.725000,18.331251,20.087500,29.529,0.57869844,-0.00954995,-0.02898927,-0.81497027
'00:11:13.416,0.059570,0.028320,1.004883,0.426829,1.402439,-0.548781,-4.737500,18.425001,20.218750,29.559,0.57869183,-0.00953694,-0.02897247,-0.81497571
'00:11:13.424,0.059082,0.028320,1.004395,0.426829,1.341463,-0.609756,-4.737500,18.425001,20.218750,29.604,0.57868390,-0.00952971,-0.02896262,-0.81498178
'00:11:13.434,0.058105,0.029785,1.002441,0.365854,1.341463,-0.609756,-4.450000,17.937500,19.893751,29.544,0.57868406,-0.00952348,-0.02896343,-0.81498170
'00:11:13.444,0.058594,0.028809,1.003418,0.243902,1.219512,-0.548781,-4.450000,17.937500,19.893751,29.529,0.57868836,-0.00953895,-0.02895759,-0.81497868
'00:11:13.454,0.058594,0.028809,1.003418,0.243902,1.219512,-0.548781,-4.406250,17.950001,19.818750,29.529,0.57869629,-0.00955694,-0.02895575,-0.81497290
'00:11:13.464,0.058105,0.031250,1.003418,0.304878,1.219512,-0.548781,-4.406250,17.950001,19.818750,29.514,0.57870370,-0.00955864,-0.02897044,-0.81496710
'00:11:13.474,0.058105,0.030762,1.003906,0.365854,1.341463,-0.609756,-4.418750,17.918751,19.856251,29.544,0.57870547,-0.00954916,-0.02897826,-0.81496567
'00:11:13.484,0.059570,0.027832,1.003906,0.487805,1.463415,-0.609756,-4.418750,17.918751,19.856251,29.514,0.57870822,-0.00954550,-0.02897737,-0.81496380
'00:11:13.494,0.060547,0.028320,1.003418,0.365854,1.402439,-0.548781,-4.600000,18.225000,20.125000,29.559,0.57870793,-0.00954921,-0.02896987,-0.81496423
'00:11:13.504,0.059570,0.028809,1.005859,0.365854,1.341463,-0.609756,-4.737500,18.350000,20.168751,29.574,0.57869638,-0.00954238,-0.02895579,-0.81497301
'00:11:13.514,0.061035,0.028809,1.004395,0.304878,1.280488,-0.548781,-4.737500,18.350000,20.168751,29.559,0.57868899,-0.00955171,-0.02894710,-0.81497846
'00:11:13.524,0.061035,0.028809,1.001953,0.365854,1.219512,-0.548781,-4.406250,17.906250,19.800001,29.574,0.57869599,-0.00957689,-0.02896369,-0.81497260
'00:11:13.534,0.060059,0.029297,1.003418,0.243902,1.158537,-0.548781,-4.406250,17.906250,19.800001,29.499,0.57870260,-0.00960425,-0.02897261,-0.81496727
'00:11:13.544,0.060059,0.030762,1.002441,0.304878,1.280488,-0.548781,-4.412500,17.975000,19.881250,29.559,0.57870987,-0.00961424,-0.02898925,-0.81496140
'00:11:13.554,0.059570,0.031250,1.001953,0.365854,1.402439,-0.609756,-4.412500,17.975000,19.881250,29.574,0.57871300,-0.00960741,-0.02900487,-0.81495870
'00:11:13.564,0.060059,0.028809,1.000977,0.365854,1.463415,-0.548781,-4.381250,17.943750,19.875000,29.514,0.57872264,-0.00961124,-0.02900708,-0.81495173
'00:11:13.575,0.059082,0.027832,1.005371,0.426829,1.463415,-0.548781,-4.381250,17.943750,19.875000,29.544,0.57873360,-0.00960927,-0.02900153,-0.81494417
'00:11:13.584,0.058594,0.027832,1.005371,0.365854,1.402439,-0.609756,-4.481250,18.006250,19.887501,29.514,0.57873334,-0.00960664,-0.02898835,-0.81494485
'00:11:13.594,0.058105,0.029297,1.003906,0.365854,1.341463,-0.609756,-4.481250,18.006250,19.887501,29.514,0.57873262,-0.00959963,-0.02898409,-0.81494559
'00:11:13.604,0.058594,0.029785,1.003906,0.426829,1.341463,-0.548781,-4.625000,18.268751,20.012501,29.514,0.57873151,-0.00958539,-0.02898343,-0.81494658
'00:11:13.614,0.059082,0.029785,1.005859,0.304878,1.280488,-0.548781,-4.625000,18.268751,20.012501,29.559,0.57873016,-0.00958418,-0.02897839,-0.81494772
'00:11:13.624,0.058105,0.029297,1.002441,0.182927,1.219512,-0.609756,-4.625000,18.250000,20.081251,29.574,0.57872367,-0.00959047,-0.02896194,-0.81495285
'00:11:13.634,0.056152,0.029785,1.000977,0.243902,1.341463,-0.731707,-4.625000,18.250000,20.081251,29.514,0.57870886,-0.00957192,-0.02893955,-0.81496438
'00:11:13.644,0.058105,0.029785,1.002930,0.121951,1.341463,-0.792683,-4.425000,17.881250,19.825001,29.589,0.57869651,-0.00957742,-0.02892412,-0.81497363
'00:11:13.654,0.058594,0.029297,1.003906,0.182927,1.280488,-0.975610,-4.425000,17.881250,19.825001,29.544,0.57867122,-0.00958830,-0.02891529,-0.81499177
'00:11:13.664,0.058594,0.029785,1.005371,0.243902,1.341463,-1.097561,-4.425000,17.931250,19.812500,29.529,0.57863861,-0.00958968,-0.02891144,-0.81501505
'00:11:13.674,0.056641,0.031738,1.005371,0.304878,1.341463,-1.463415,-4.425000,17.931250,19.812500,29.620,0.57857981,-0.00956793,-0.02891580,-0.81505689
'00:11:13.684,0.059082,0.029785,1.003906,0.121951,1.158537,-1.707317,-4.418750,17.918751,19.843750,29.544,0.57850363,-0.00959092,-0.02891610,-0.81511068
'00:11:13.694,0.056641,0.032227,1.002930,0.182927,1.219512,-1.768293,-4.418750,17.918751,19.843750,29.529,0.57842308,-0.00958230,-0.02892262,-0.81516772
'00:11:13.704,0.053223,0.036133,1.002441,0.121951,1.097561,-2.500000,-4.475000,17.968750,19.875000,29.529,0.57828666,-0.00954533,-0.02893727,-0.81526441
'00:11:13.715,0.057617,0.035156,0.999512,0.243902,1.280488,-2.926829,-4.475000,17.968750,19.875000,29.559,0.57810442,-0.00951637,-0.02896828,-0.81539288
'00:11:13.724,0.055176,0.032715,1.002441,-0.121951,0.975610,-3.231707,-4.818750,18.375000,20.112501,29.544,0.57792197,-0.00951224,-0.02894548,-0.81552306
'00:11:13.734,0.064453,0.024414,1.004883,-0.060976,0.914634,-3.170732,-4.818750,18.375000,20.112501,29.544,0.57772564,-0.00959335,-0.02891755,-0.81566221
'00:11:13.744,0.077148,0.016113,1.007812,0.304878,1.219512,-1.829268,-4.462500,17.818750,19.800001,29.529,0.57764031,-0.00975178,-0.02891711,-0.81572077
'00:11:13.754,0.056152,0.031738,1.008789,0.609756,1.585366,-0.731707,-4.462500,17.818750,19.800001,29.544,0.57763224,-0.00969229,-0.02892452,-0.81572693
'00:11:13.765,0.060059,0.029297,1.002441,0.487805,1.402439,-0.670732,-4.456250,17.843750,19.812500,29.574,0.57762904,-0.00968701,-0.02893907,-0.81572874
'00:11:13.774,0.059570,0.028320,1.001953,0.182927,1.158537,-0.548781,-4.468750,17.868750,19.750000,29.604,0.57763359,-0.00971309,-0.02893526,-0.81572535
'00:11:13.784,0.057617,0.029785,1.002441,0.182927,1.097561,-0.548781,-4.468750,17.868750,19.750000,29.589,0.57763821,-0.00972877,-0.02893449,-0.81572192
'00:11:13.794,0.057617,0.031250,1.002441,0.365854,1.341463,-0.548781,-4.750000,18.206251,20.025000,29.529,0.57763023,-0.00969963,-0.02892796,-0.81572814
'00:11:13.804,0.060059,0.028320,1.003906,0.487805,1.524390,-0.609756,-4.750000,18.206251,20.025000,29.559,0.57761915,-0.00967679,-0.02891365,-0.81573677
'00:11:13.815,0.061523,0.028320,1.002930,0.365854,1.402439,-0.609756,-4.743750,18.250000,20.050001,29.559,0.57760797,-0.00967866,-0.02890383,-0.81574501
'00:11:13.824,0.060059,0.029785,1.004883,0.243902,1.280488,-0.548781,-4.743750,18.250000,20.050001,29.559,0.57760218,-0.00968070,-0.02889518,-0.81574940
'00:11:13.834,0.060547,0.029297,1.004395,0.365854,1.280488,-0.609756,-4.525000,17.937500,19.850000,29.544,0.57760048,-0.00969044,-0.02890417,-0.81575016
'00:11:13.844,0.060547,0.028809,1.004395,0.365854,1.402439,-0.548781,-4.525000,17.937500,19.850000,29.574,0.57760350,-0.00969349,-0.02890399,-0.81574799
'00:11:13.854,0.060059,0.029785,1.004883,0.365854,1.280488,-0.548781,-4.475000,17.912500,19.806250,29.484,0.57760914,-0.00970104,-0.02891691,-0.81574346
'00:11:13.864,0.060059,0.028809,1.003418,0.304878,1.280488,-0.609756,-4.475000,17.912500,19.806250,29.529,0.57761052,-0.00971568,-0.02892025,-0.81574218
'00:11:13.874,0.053223,0.030762,1.001465,0.243902,1.341463,-0.792683,-4.518750,17.900000,19.850000,29.559,0.57759526,-0.00967877,-0.02889666,-0.81575427
'00:11:13.884,0.050781,0.033691,1.004395,0.243902,1.280488,-1.768293,-4.518750,17.900000,19.850000,29.559,0.57751005,-0.00961762,-0.02888338,-0.81581579
'00:11:13.894,0.061523,0.026367,1.004395,0.182927,1.280488,-2.134146,-4.562500,17.956251,19.962500,29.529,0.57739815,-0.00964968,-0.02886546,-0.81589524
'00:11:13.904,0.064941,0.026367,1.003418,0.365854,1.402439,-1.524390,-4.562500,17.956251,19.962500,29.574,0.57733024,-0.00968452,-0.02886869,-0.81594277
'00:11:13.914,0.062500,0.027832,1.002930,0.365854,1.402439,-0.731707,-4.693750,18.150000,20.000000,29.544,0.57731382,-0.00969578,-0.02886435,-0.81595441
'00:11:13.924,0.059570,0.029785,1.001953,0.304878,1.280488,-0.548781,-4.693750,18.150000,20.000000,29.514,0.57730978,-0.00969517,-0.02886163,-0.81595737
'00:11:13.934,0.059570,0.029297,1.002930,0.304878,1.280488,-0.609756,-4.512500,17.931250,19.800001,29.544,0.57730997,-0.00970410,-0.02886548,-0.81595699
'00:11:13.944,0.059082,0.030273,1.000977,0.304878,1.341463,-0.609756,-4.512500,17.931250,19.800001,29.559,0.57731009,-0.00970218,-0.02887066,-0.81595675
'00:11:13.954,0.060059,0.029297,1.005371,0.304878,1.341463,-0.609756,-4.506250,17.850000,19.787500,29.529,0.57730910,-0.00970818,-0.02887092,-0.81595737
'00:11:13.964,0.059082,0.028809,1.003418,0.243902,1.280488,-0.609756,-4.506250,17.850000,19.787500,29.574,0.57730802,-0.00971841,-0.02886393,-0.81595826
'00:11:13.974,0.046387,0.036133,1.004883,0.365854,1.463415,-1.280488,-4.462500,17.831251,19.718750,29.499,0.57726151,-0.00960613,-0.02885049,-0.81599296
'00:11:13.984,0.038086,0.043945,1.002930,0.304878,1.341463,-3.475610,-4.462500,17.831251,19.718750,29.514,0.57705704,-0.00942111,-0.02885343,-0.81613963
'00:11:13.994,0.045410,0.038086,1.003906,0.182927,0.914634,-6.036585,-4.487500,17.862501,19.787500,29.589,0.57667011,-0.00933580,-0.02886644,-0.81641359
'00:11:14.004,0.054688,0.032227,1.004883,0.792683,1.585366,-7.195122,-4.487500,17.862501,19.787500,29.544,0.57620525,-0.00924987,-0.02889474,-0.81674172
'00:11:14.014,0.082520,0.018066,1.003906,1.768293,2.743902,-6.280488,-4.800000,18.250000,19.956251,29.514,0.57579870,-0.00922616,-0.02894758,-0.81702679
'00:11:14.024,0.095703,0.007812,0.996094,0.548781,1.646341,-1.768293,-4.800000,18.250000,19.956251,29.559,0.57571170,-0.00945386,-0.02896125,-0.81708501
'00:11:14.034,0.057129,0.031250,1.008301,0.000000,0.914634,-0.487805,-4.737500,18.000000,19.850000,29.544,0.57571031,-0.00947733,-0.02894914,-0.81708615
'00:11:14.044,0.054199,0.033203,1.011230,0.365854,1.341463,-0.609756,-4.500000,17.812500,19.668751,29.544,0.57571434,-0.00943780,-0.02895500,-0.81708356
'00:11:14.054,0.059082,0.028809,1.005371,0.487805,1.463415,-0.609756,-4.500000,17.812500,19.668751,29.559,0.57571953,-0.00943087,-0.02895999,-0.81707980
'00:11:14.064,0.062988,0.027344,1.002930,0.304878,1.219512,-0.609756,-4.593750,17.787500,19.668751,29.514,0.57571693,-0.00947249,-0.02896428,-0.81708100
'00:11:14.074,0.061035,0.029297,1.002930,0.121951,1.036585,-0.548781,-4.593750,17.787500,19.668751,29.559,0.57571765,-0.00951709,-0.02896798,-0.81707984
'00:11:14.084,0.058594,0.031738,1.003906,0.121951,1.097561,-0.548781,-4.575000,17.837500,19.712500,29.574,0.57572025,-0.00953475,-0.02897490,-0.81707756
'00:11:14.094,0.057617,0.031738,1.002930,-0.731707,0.182927,-0.426829,-4.575000,17.837500,19.712500,29.574,0.57572850,-0.00965509,-0.02896316,-0.81707075
'00:11:14.104,0.062012,0.026855,0.997559,-0.731707,0.182927,-0.487805,-4.706250,17.950001,19.743750,29.559,0.57572634,-0.00981234,-0.02893542,-0.81707138
'00:11:14.114,0.063477,0.024414,0.997559,1.402439,2.500000,-0.670732,-4.706250,17.950001,19.743750,29.544,0.57571904,-0.00971245,-0.02893566,-0.81707771
'00:11:14.124,0.050293,0.037598,1.017578,2.621951,3.841464,-0.853659,-4.887500,18.256250,19.937500,29.559,0.57569478,-0.00932164,-0.02896308,-0.81709838
'00:11:14.134,0.075195,0.013672,0.991211,0.121951,0.853659,-0.487805,-4.887500,18.256250,19.937500,29.514,0.57569168,-0.00950849,-0.02893642,-0.81709936
'00:11:14.144,0.050293,0.038574,1.013672,-0.365854,0.548781,-0.487805,-4.618750,17.787500,19.681250,29.514,0.57569173,-0.00951012,-0.02893409,-0.81709939
'00:11:14.154,0.057617,0.029785,1.005859,1.097561,2.195122,-0.731707,-4.618750,17.787500,19.681250,29.574,0.57568147,-0.00939900,-0.02893578,-0.81710784
'00:11:14.164,0.063477,0.026855,0.999023,-0.182927,0.609756,-0.548781,-4.562500,17.818750,19.706251,29.559,0.57568425,-0.00951753,-0.02894028,-0.81710435
'00:11:14.174,0.058105,0.031738,1.004395,-0.365854,0.609756,-0.487805,-4.562500,17.818750,19.706251,29.544,0.57569023,-0.00959237,-0.02893589,-0.81709942
'00:11:14.184,0.058105,0.031738,1.004395,-0.365854,0.609756,-0.487805,-4.550000,17.737501,19.700001,29.544,0.57569511,-0.00966567,-0.02893058,-0.81709531
'00:11:14.194,0.058105,0.031250,1.002441,-1.585366,-0.731707,-0.426829,-4.550000,17.737501,19.700001,29.544,0.57569985,-0.00989713,-0.02890359,-0.81709015
'00:11:14.205,0.062988,0.025879,1.000488,-1.280488,-0.365854,-0.426829,-4.600000,17.781250,19.675001,29.574,0.57570429,-0.01015407,-0.02886278,-0.81708531
'00:11:14.214,0.063965,0.023438,1.000000,0.670732,1.707317,-0.609756,-4.600000,17.781250,19.675001,29.574,0.57570247,-0.01015314,-0.02885225,-0.81708698
'00:11:14.225,0.061035,0.027344,1.006836,1.951220,3.048780,-0.731707,-4.875000,18.156250,20.043751,29.544,0.57568205,-0.00992691,-0.02886019,-0.81710386
'00:11:14.234,0.057617,0.031738,1.005371,1.341463,2.378049,-0.731707,-4.875000,18.156250,20.043751,29.559,0.57566297,-0.00978296,-0.02886890,-0.81711874
'00:11:14.244,0.056152,0.033691,1.003906,-0.182927,0.731707,-0.548781,-4.618750,17.925001,19.775000,29.529,0.57566257,-0.00981504,-0.02887369,-0.81711846
'00:11:14.255,0.061523,0.030273,0.999512,-0.670732,0.182927,-0.487805,-4.618750,17.925001,19.775000,29.574,0.57566541,-0.00996946,-0.02887479,-0.81711455
'00:11:14.264,0.062012,0.026855,0.999512,0.243902,1.280488,-0.548781,-4.562500,17.731251,19.662500,29.559,0.57566741,-0.00999750,-0.02886880,-0.81711302
'00:11:14.274,0.059570,0.027344,1.004395,0.731707,1.768293,-0.609756,-4.562500,17.731251,19.662500,29.529,0.57566693,-0.00995202,-0.02886357,-0.81711409
'00:11:14.284,0.061035,0.026367,1.004395,0.914634,1.951220,-0.609756,-4.537500,17.750000,19.700001,29.544,0.57566932,-0.00989921,-0.02886490,-0.81711300
'00:11:14.294,0.061523,0.026367,1.005859,1.524390,2.560976,-0.731707,-4.556250,17.762501,19.606251,29.514,0.57566453,-0.00977385,-0.02887973,-0.81711736
'00:11:14.304,0.058594,0.031738,1.004395,1.524390,2.500000,-0.731707,-4.556250,17.762501,19.606251,29.499,0.57565874,-0.00961691,-0.02891734,-0.81712197
'00:11:14.314,0.055664,0.036133,1.007812,-0.304878,0.609756,-0.487805,-4.856250,18.231251,19.981251,29.589,0.57565187,-0.00964412,-0.02891730,-0.81712649
'00:11:14.324,0.059082,0.032715,1.004395,-2.317073,-1.646341,-0.304878,-4.856250,18.231251,19.981251,29.529,0.57565123,-0.00996632,-0.02888256,-0.81712430
'00:11:14.334,0.064941,0.027344,0.998535,-2.682927,-1.890244,-0.304878,-4.831250,18.025000,19.925001,29.514,0.57564730,-0.01037305,-0.02882641,-0.81712400
'00:11:14.344,0.068848,0.020996,0.992676,-0.182927,0.853659,-0.487805,-4.831250,18.025000,19.925001,29.544,0.57563994,-0.01050023,-0.02879286,-0.81712874
'00:11:14.354,0.064941,0.023438,1.001465,2.621951,3.841464,-0.853659,-4.600000,17.837500,19.681250,29.559,0.57562857,-0.01024931,-0.02881869,-0.81713903
'00:11:14.364,0.058105,0.027832,1.008789,3.048780,4.207317,-0.853659,-4.600000,17.837500,19.681250,29.544,0.57561833,-0.00989743,-0.02885163,-0.81714941
'00:11:14.374,0.056641,0.031250,1.009277,2.073171,3.170732,-0.731707,-4.575000,17.775000,19.681250,29.544,0.57561356,-0.00965256,-0.02888111,-0.81715466
'00:11:14.384,0.053711,0.035645,1.009277,0.487805,1.524390,-0.609756,-4.575000,17.775000,19.681250,29.544,0.57561150,-0.00957403,-0.02889364,-0.81715659
'00:11:14.394,0.057129,0.033691,1.004395,-1.036585,-0.060976,-0.487805,-4.593750,17.837500,19.700001,29.574,0.57561331,-0.00971455,-0.02888134,-0.81715410
'00:11:14.404,0.060547,0.028320,0.997070,-2.073171,-1.158537,-0.304878,-4.593750,17.837500,19.700001,29.559,0.57562519,-0.01002630,-0.02883581,-0.81714356
'00:11:14.414,0.067383,0.020508,0.990234,0.000000,1.097561,-0.609756,-4.875000,18.181250,19.950001,29.544,0.57561121,-0.01012557,-0.02879649,-0.81715358
'00:11:14.424,0.068848,0.022949,0.992676,4.573171,5.914634,-0.914634,-4.875000,18.181250,19.950001,29.544,0.57559098,-0.00964766,-0.02886051,-0.81717135
'00:11:14.434,0.029297,0.056641,1.034668,-2.256098,-1.463415,-0.182927,-4.843750,18.250000,20.006250,29.529,0.57559607,-0.00969493,-0.02882697,-0.81716839
'00:11:14.444,0.069824,0.017578,1.004395,1.524390,2.804878,-0.792683,-4.843750,18.250000,20.006250,29.529,0.57557924,-0.00962377,-0.02880302,-0.81718193
'00:11:14.454,0.048340,0.042969,1.010742,-1.036585,-0.365854,-0.365854,-4.606250,17.793751,19.706251,29.529,0.57558542,-0.00969537,-0.02882074,-0.81717611
'00:11:14.464,0.052246,0.036621,1.014648,1.829268,3.048780,-0.792683,-4.606250,17.793751,19.706251,29.514,0.57557340,-0.00942529,-0.02884893,-0.81718674
'00:11:14.474,0.073730,0.019043,0.991699,0.243902,1.158537,-0.487805,-4.581250,17.718750,19.675001,29.529,0.57558023,-0.00956953,-0.02885298,-0.81718011
'00:11:14.484,0.055664,0.035645,1.006348,-0.487805,0.426829,-0.426829,-4.581250,17.718750,19.675001,29.544,0.57558617,-0.00963047,-0.02885895,-0.81717500
'00:11:14.494,0.060547,0.026855,0.997559,-0.121951,0.792683,-0.548781,-4.506250,17.737501,19.650000,29.604,0.57559196,-0.00971620,-0.02885136,-0.81717017
'00:11:14.504,0.062012,0.025879,1.002441,0.365854,1.341463,-0.548781,-4.506250,17.737501,19.650000,29.544,0.57559954,-0.00974806,-0.02884922,-0.81716453
'00:11:14.514,0.058594,0.029297,1.003906,1.524390,2.560976,-0.670732,-4.725000,18.006250,19.781250,29.544,0.57559218,-0.00959090,-0.02886275,-0.81717109
'00:11:14.524,0.058105,0.030273,1.008301,-0.609756,0.243902,-0.426829,-4.725000,18.006250,19.781250,29.574,0.57559470,-0.00970141,-0.02884224,-0.81716874
'00:11:14.534,0.059570,0.029297,1.004395,-0.060976,0.853659,-0.548781,-4.781250,18.125000,19.893751,29.574,0.57558886,-0.00975026,-0.02883043,-0.81717269
'00:11:14.544,0.061035,0.029297,1.001953,0.000000,0.975610,-0.548781,-4.781250,18.125000,19.893751,29.544,0.57558326,-0.00979527,-0.02882371,-0.81717633
'00:11:14.554,0.060547,0.029297,0.999023,0.487805,1.585366,-0.548781,-4.606250,17.868750,19.750000,29.544,0.57558637,-0.00977671,-0.02882851,-0.81717420
'00:11:14.564,0.060547,0.030273,1.000488,0.426829,1.463415,-0.548781,-4.537500,17.743750,19.612501,29.574,0.57559148,-0.00976817,-0.02884297,-0.81717019
'00:11:14.574,0.063965,0.025879,1.001953,0.548781,1.585366,-0.609756,-4.537500,17.743750,19.612501,29.574,0.57559341,-0.00978133,-0.02884751,-0.81716851
'00:11:14.585,0.061523,0.025391,1.004395,1.646341,2.682927,-0.731707,-4.562500,17.843750,19.718750,29.574,0.57559033,-0.00963530,-0.02886312,-0.81717186
'00:11:14.594,0.059570,0.028320,1.005859,-0.365854,0.365854,-0.487805,-4.562500,17.843750,19.718750,29.559,0.57559644,-0.00973705,-0.02885896,-0.81716650
'00:11:14.604,0.053223,0.036133,1.008301,0.731707,1.768293,-0.609756,-4.587500,17.787500,19.681250,29.544,0.57559445,-0.00962251,-0.02887744,-0.81716861
'00:11:14.614,0.059570,0.030273,1.002930,-0.426829,0.609756,-0.548781,-4.587500,17.787500,19.681250,29.574,0.57559413,-0.00971150,-0.02886531,-0.81716821
'00:11:14.624,0.058105,0.030762,1.002441,-0.975610,-0.060976,-0.426829,-4.918750,18.306250,20.068750,29.544,0.57558770,-0.00985271,-0.02883039,-0.81717228
'00:11:14.634,0.062500,0.026367,0.997559,-0.914634,0.000000,-0.487805,-4.918750,18.306250,20.068750,29.544,0.57557772,-0.01002698,-0.02879164,-0.81717856
'00:11:14.644,0.065430,0.022461,0.994141,1.341463,2.378049,-0.670732,-4.875000,18.193750,19.937500,29.574,0.57556403,-0.00994860,-0.02878670,-0.81718933
'00:11:14.654,0.061523,0.027344,1.005859,3.292683,4.512195,-0.853659,-4.875000,18.193750,19.937500,29.529,0.57554371,-0.00957775,-0.02882163,-0.81720684
'00:11:14.664,0.056641,0.031250,1.016113,-1.707317,-1.036585,-0.243902,-4.575000,17.768751,19.662500,29.559,0.57556079,-0.00982741,-0.02879100,-0.81719293
'00:11:14.674,0.061035,0.026855,1.003906,-0.060976,0.731707,-0.548781,-4.575000,17.768751,19.662500,29.589,0.57556218,-0.00990880,-0.02878640,-0.81719113
'00:11:14.684,0.058105,0.030762,1.001465,0.000000,0.975610,-0.487805,-4.537500,17.831251,19.631250,29.529,0.57557186,-0.00993991,-0.02879003,-0.81718380
'00:11:14.694,0.060059,0.033203,1.001953,-0.609756,0.365854,-0.487805,-4.537500,17.831251,19.631250,29.604,0.57557875,-0.01004549,-0.02880228,-0.81717722
'00:11:14.704,0.062500,0.027344,0.999023,-0.487805,0.548781,-0.487805,-4.587500,17.750000,19.681250,29.589,0.57558158,-0.01016440,-0.02878492,-0.81717438
'00:11:14.715,0.064941,0.025391,0.998047,0.792683,1.768293,-0.609756,-4.587500,17.750000,19.681250,29.559,0.57557983,-0.01015051,-0.02879784,-0.81717532
'00:11:14.724,0.062012,0.026367,1.002930,2.012195,3.170732,-0.731707,-4.943750,18.337500,20.093750,29.499,0.57556336,-0.00996290,-0.02880299,-0.81718905
'00:11:14.734,0.057617,0.029785,1.011230,1.646341,2.682927,-0.731707,-4.943750,18.337500,20.093750,29.544,0.57554333,-0.00977116,-0.02880612,-0.81720536
'00:11:14.744,0.052246,0.033691,1.013672,-0.609756,0.243902,-0.548781,-4.793750,18.143751,19.962500,29.574,0.57553420,-0.00982956,-0.02877798,-0.81721209
'00:11:14.754,0.055664,0.034668,1.007324,-3.597561,-2.865854,-0.243902,-4.793750,18.143751,19.962500,29.529,0.57553600,-0.01027570,-0.02871470,-0.81720756
'00:11:14.764,0.064941,0.025879,0.995117,-3.902439,-3.170732,-0.182927,-4.587500,17.681250,19.706251,29.544,0.57554644,-0.01084823,-0.02864287,-0.81719532
'00:11:14.774,0.067871,0.020508,0.991699,-0.914634,0.000000,-0.426829,-4.587500,17.681250,19.706251,29.544,0.57555012,-0.01107448,-0.02860722,-0.81719095
'00:11:14.785,0.067871,0.020996,0.993164,2.682927,3.902439,-0.792683,-4.556250,17.687500,19.637501,29.559,0.57554233,-0.01081355,-0.02864069,-0.81719875
'00:11:14.794,0.061523,0.028320,1.004395,4.573171,5.853659,-1.036585,-4.556250,17.687500,19.637501,29.514,0.57552562,-0.01033154,-0.02871241,-0.81721424
'00:11:14.804,0.054688,0.033203,1.016113,2.865854,4.024390,-0.792683,-4.562500,17.812500,19.681250,29.589,0.57552055,-0.00996075,-0.02876001,-0.81722074
'00:11:14.814,0.055176,0.033691,1.016602,0.000000,0.853659,-0.548781,-4.562500,17.812500,19.681250,29.574,0.57552289,-0.00996668,-0.02876674,-0.81721879
'00:11:14.825,0.056641,0.033203,1.006836,-2.865854,-2.073171,-0.243902,-4.806250,18.037500,19.881250,29.559,0.57552466,-0.01036269,-0.02870251,-0.81721487
'00:11:14.834,0.063965,0.024902,0.995605,-2.987805,-2.134146,-0.304878,-4.931250,18.125000,19.956251,29.544,0.57551668,-0.01075370,-0.02862632,-0.81721811
'00:11:14.844,0.067871,0.022461,0.991211,0.000000,1.097561,-0.609756,-4.931250,18.125000,19.956251,29.544,0.57549673,-0.01083345,-0.02859660,-0.81723215
'00:11:14.854,0.064941,0.025391,0.995605,2.804878,4.085366,-0.975610,-4.637500,17.825001,19.700001,29.574,0.57547427,-0.01054256,-0.02863682,-0.81725036
'00:11:14.867,0.059082,0.029297,1.004883,3.231707,4.451220,-0.914634,-4.637500,17.825001,19.700001,29.604,0.57545236,-0.01004302,-0.02869852,-0.81726992
'00:11:14.874,0.057129,0.031738,1.008789,2.012195,3.109756,-0.792683,-4.562500,17.768751,19.706251,29.544,0.57544656,-0.00987670,-0.02872439,-0.81727511
'00:11:14.884,0.056152,0.031738,1.012207,0.670732,1.707317,-0.609756,-4.562500,17.768751,19.706251,29.544,0.57544699,-0.00980324,-0.02873055,-0.81727548
'00:11:14.894,0.054199,0.033691,1.014160,-1.768293,-0.975610,-0.426829,-4.531250,17.762501,19.625000,29.529,0.57545382,-0.01002726,-0.02870256,-0.81726894
'00:11:14.905,0.059082,0.030273,1.003906,-4.024390,-3.353659,-0.243902,-4.531250,17.762501,19.625000,29.544,0.57546691,-0.01062908,-0.02863049,-0.81725464
'00:11:14.914,0.068359,0.023926,0.991211,-2.378049,-1.524390,-0.365854,-4.662500,17.756250,19.718750,29.514,0.57546629,-0.01098645,-0.02859005,-0.81725177
'00:11:14.924,0.068848,0.021973,0.990723,1.158537,2.256098,-0.731707,-4.662500,17.756250,19.718750,29.544,0.57545210,-0.01094107,-0.02859877,-0.81726207
'00:11:14.934,0.068848,0.021973,0.990723,1.158537,2.256098,-0.731707,-4.943750,18.225000,20.006250,29.544,0.57542861,-0.01088519,-0.02859645,-0.81727943
'00:11:14.946,0.055664,0.032715,1.010254,1.280488,2.439024,-0.731707,-4.943750,18.225000,20.006250,29.559,0.57539922,-0.01065368,-0.02859442,-0.81730325
'00:11:14.954,0.055664,0.032715,1.010254,1.280488,2.439024,-0.731707,-4.762500,17.993750,19.843750,29.559,0.57538608,-0.01050736,-0.02860051,-0.81731418
'00:11:14.964,0.055176,0.032227,1.012695,-1.829268,-0.975610,-0.365854,-4.762500,17.993750,19.843750,29.514,0.57538479,-0.01072577,-0.02855203,-0.81731394
'00:11:14.974,0.061035,0.027344,1.009766,-3.353659,-2.682927,-0.243902,-4.618750,17.712500,19.700001,29.529,0.57539106,-0.01119669,-0.02848243,-0.81730565
'00:11:14.985,0.061523,0.029297,0.998535,-2.378049,-1.463415,-0.365854,-4.618750,17.712500,19.700001,29.559,0.57539122,-0.01155412,-0.02843500,-0.81730221
'00:11:14.994,0.061523,0.029297,0.998535,-2.378049,-1.463415,-0.365854,-4.625000,17.693750,19.768751,29.559,0.57538974,-0.01184124,-0.02839533,-0.81730052
'00:11:15.004,0.064453,0.026855,0.994629,-1.646341,-0.731707,-0.365854,-4.625000,17.693750,19.768751,29.514,0.57539053,-0.01209452,-0.02836609,-0.81729727
'00:11:15.014,0.071289,0.020020,0.993652,0.731707,1.768293,-0.548781,-4.593750,17.600000,19.700001,29.574,0.57538791,-0.01211254,-0.02836975,-0.81729872
'00:11:15.025,0.067383,0.020020,1.001953,3.414634,4.451220,-0.792683,-4.593750,17.600000,19.700001,29.544,0.57537658,-0.01174682,-0.02841548,-0.81731044
'00:11:15.034,0.061523,0.027832,1.005859,3.902439,4.939024,-0.914634,-4.800000,17.962500,19.925001,29.559,0.57535420,-0.01133395,-0.02847288,-0.81733003
'00:11:15.044,0.056152,0.036133,1.012695,1.585366,2.621951,-0.731707,-4.800000,17.962500,19.925001,29.544,0.57533338,-0.01109871,-0.02851034,-0.81734661
'00:11:15.054,0.060547,0.030273,1.006348,-1.097561,-0.121951,-0.426829,-4.950000,18.200001,19.956251,29.559,0.57532165,-0.01124203,-0.02847479,-0.81735415
'00:11:15.066,0.065918,0.021484,1.000488,-0.243902,0.792683,-0.487805,-4.950000,18.200001,19.956251,29.589,0.57530782,-0.01135966,-0.02841973,-0.81736417
'00:11:15.074,0.064941,0.022949,0.997559,1.646341,2.743902,-0.792683,-4.600000,17.700001,19.712500,29.559,0.57529692,-0.01125273,-0.02842986,-0.81737297
'00:11:15.084,0.061035,0.028320,1.004395,2.317073,3.536585,-0.792683,-4.568750,17.662500,19.668751,29.559,0.57528672,-0.01098660,-0.02846493,-0.81738255
'00:11:15.094,0.058105,0.032715,1.010742,0.792683,1.829268,-0.609756,-4.568750,17.662500,19.668751,29.529,0.57528351,-0.01088732,-0.02848772,-0.81738535
'00:11:15.107,0.057617,0.032715,1.010254,-1.341463,-0.548781,-0.487805,-4.568750,17.681250,19.693750,29.574,0.57528094,-0.01111689,-0.02847253,-0.81738459
'00:11:15.114,0.059570,0.031250,1.007812,-3.353659,-2.560976,-0.304878,-4.568750,17.681250,19.693750,29.559,0.57528366,-0.01142176,-0.02843465,-0.81737979
'00:11:15.124,0.062012,0.027832,1.000977,-4.390244,-3.597561,-0.182927,-4.775000,17.837500,19.787500,29.589,0.57528160,-0.01199765,-0.02833873,-0.81737632
'00:11:15.134,0.068848,0.020996,0.994629,-3.109756,-2.317073,-0.243902,-4.775000,17.837500,19.787500,29.574,0.57527978,-0.01247590,-0.02826119,-0.81737313
'00:11:15.145,0.073242,0.015625,0.990723,0.304878,1.341463,-0.609756,-5.081250,18.281250,20.131250,29.544,0.57525070,-0.01255462,-0.02821601,-0.81739395
'00:11:15.154,0.066895,0.020508,1.000000,3.780488,4.939024,-1.036585,-5.081250,18.281250,20.131250,29.559,0.57521024,-0.01217986,-0.02823962,-0.81742727
'00:11:15.164,0.060547,0.027832,1.012207,3.292683,4.451220,-0.975610,-4.656250,17.718750,19.718750,29.559,0.57518451,-0.01177839,-0.02828684,-0.81744963
'00:11:15.174,0.057129,0.032227,1.014160,0.609756,1.524390,-0.670732,-4.656250,17.718750,19.718750,29.544,0.57517041,-0.01168967,-0.02829998,-0.81746037
'00:11:15.184,0.057617,0.032715,1.011719,-2.195122,-1.402439,-0.365854,-4.662500,17.687500,19.700001,29.574,0.57516690,-0.01195275,-0.02826418,-0.81746028
'00:11:15.194,0.063477,0.027832,1.002930,-4.085366,-3.231707,-0.182927,-4.662500,17.687500,19.700001,29.589,0.57517019,-0.01249202,-0.02818430,-0.81745266
'00:11:15.204,0.064941,0.026855,0.995605,-3.963415,-3.170732,-0.121951,-4.693750,17.681250,19.737501,29.544,0.57517473,-0.01302489,-0.02811086,-0.81744368
'00:11:15.214,0.066895,0.023438,0.997559,-3.414634,-2.560976,-0.182927,-4.693750,17.681250,19.737501,29.529,0.57517669,-0.01350275,-0.02803366,-0.81743720
'00:11:15.224,0.073730,0.015625,0.992676,-1.402439,-0.426829,-0.426829,-4.737500,17.625000,19.787500,29.589,0.57516485,-0.01378667,-0.02797312,-0.81744286
'00:11:15.234,0.077637,0.013184,0.992676,3.292683,4.451220,-0.792683,-4.737500,17.625000,19.787500,29.544,0.57514435,-0.01351287,-0.02800513,-0.81746076
'00:11:15.244,0.070801,0.017578,0.999023,7.621952,8.902439,-1.219512,-5.050000,18.143751,20.068750,29.574,0.57509927,-0.01263993,-0.02810727,-0.81750293
'00:11:15.254,0.060059,0.027832,1.014160,8.292683,9.573171,-1.280488,-5.050000,18.143751,20.068750,29.529,0.57505144,-0.01159664,-0.02823295,-0.81754771
'00:11:15.264,0.047363,0.037109,1.020508,3.963415,5.060976,-0.853659,-4.800000,17.981251,19.918751,29.589,0.57503170,-0.01101121,-0.02829063,-0.81756770
'00:11:15.274,0.050293,0.037598,1.018066,-2.987805,-2.317073,-0.304878,-4.800000,17.981251,19.918751,29.559,0.57502692,-0.01132525,-0.02823762,-0.81756860
'00:11:15.284,0.061523,0.028809,1.003418,-5.853659,-5.243903,0.000000,-4.631250,17.581251,19.718750,29.574,0.57503789,-0.01209263,-0.02813194,-0.81755354
'00:11:15.296,0.067383,0.024414,0.991699,-4.817073,-4.085366,-0.060976,-4.631250,17.581251,19.718750,29.574,0.57504930,-0.01290222,-0.02802800,-0.81753671
'00:11:15.304,0.070801,0.022461,0.991211,-1.890244,-0.914634,-0.365854,-4.612500,17.550001,19.681250,29.544,0.57504790,-0.01315568,-0.02800156,-0.81753456
'00:11:15.314,0.069336,0.019531,0.998047,0.609756,1.646341,-0.609756,-4.612500,17.550001,19.681250,29.559,0.57503822,-0.01316180,-0.02799316,-0.81754156
'00:11:15.324,0.074707,0.013184,0.995605,3.658537,4.817073,-0.853659,-4.718750,17.625000,19.756250,29.559,0.57501755,-0.01283754,-0.02802306,-0.81756022
'00:11:15.334,0.069336,0.019043,0.997559,7.195122,8.475610,-1.158537,-4.956250,18.156250,20.025000,29.544,0.57498266,-0.01201943,-0.02812762,-0.81759361
'00:11:15.344,0.060547,0.029297,1.009766,8.109756,9.451220,-1.280488,-4.956250,18.156250,20.025000,29.604,0.57494154,-0.01100678,-0.02826663,-0.81763199
'00:11:15.355,0.045898,0.042969,1.025391,3.231707,4.329268,-0.853659,-4.831250,18.156250,19.918751,29.544,0.57491905,-0.01043779,-0.02834334,-0.81765261
'00:11:15.364,0.052246,0.039062,1.012695,-3.719512,-3.048780,-0.182927,-4.831250,18.156250,19.918751,29.574,0.57492293,-0.01081526,-0.02829969,-0.81764649
'00:11:15.374,0.062988,0.028320,1.000488,-5.792683,-5.000000,-0.060976,-4.625000,17.637501,19.668751,29.544,0.57493356,-0.01158211,-0.02819251,-0.81763221
'00:11:15.384,0.066895,0.022949,0.995117,-5.060976,-4.268293,-0.121951,-4.625000,17.637501,19.668751,29.514,0.57494169,-0.01229320,-0.02808805,-0.81761971
'00:11:15.394,0.072754,0.014648,0.987305,-1.463415,-0.548781,-0.426829,-4.700000,17.706251,19.750000,29.589,0.57493716,-0.01261102,-0.02802873,-0.81762009
'00:11:15.404,0.074707,0.013184,0.989258,4.329268,5.609756,-0.914634,-4.700000,17.706251,19.750000,29.650,0.57491895,-0.01220912,-0.02807328,-0.81763747
'00:11:15.414,0.067871,0.020508,1.004395,8.780488,10.121951,-1.341463,-4.631250,17.662500,19.712500,29.559,0.57488930,-0.01120093,-0.02822262,-0.81766760
'00:11:15.424,0.047363,0.040527,1.026855,7.012195,8.353659,-1.219512,-4.631250,17.662500,19.712500,29.574,0.57485995,-0.01022293,-0.02835748,-0.81769639
'00:11:15.434,0.041504,0.046875,1.029785,-2.743902,-1.951220,-0.304878,-4.662500,17.918751,19.781250,29.574,0.57486509,-0.01043020,-0.02832669,-0.81769122
'00:11:15.444,0.063477,0.027832,1.001465,-7.560976,-7.073171,0.182927,-4.662500,17.918751,19.781250,29.574,0.57489068,-0.01144618,-0.02819946,-0.81766404
'00:11:15.454,0.070801,0.022461,0.988281,-5.609756,-4.817073,-0.060976,-5.018750,18.168751,19.981251,29.574,0.57488605,-0.01223414,-0.02808050,-0.81765998
'00:11:15.464,0.073730,0.019531,0.985352,-1.707317,-0.731707,-0.365854,-5.018750,18.168751,19.981251,29.514,0.57487292,-0.01255098,-0.02803201,-0.81766607
'00:11:15.474,0.071777,0.018555,0.990723,2.317073,3.475610,-0.670732,-4.725000,17.637501,19.731251,29.529,0.57486096,-0.01236405,-0.02805505,-0.81767654
'00:11:15.484,0.069336,0.018555,0.999512,5.365854,6.646342,-1.036585,-4.725000,17.637501,19.731251,29.559,0.57483437,-0.01178423,-0.02812384,-0.81770143
'00:11:15.494,0.062500,0.022461,1.010742,6.707317,7.926829,-1.158537,-4.637500,17.675001,19.775000,29.559,0.57481058,-0.01100441,-0.02822245,-0.81772562
'00:11:15.505,0.049805,0.035156,1.024902,4.024390,5.182927,-0.975610,-4.637500,17.675001,19.775000,29.559,0.57478723,-0.01038513,-0.02828947,-0.81774782
'00:11:15.514,0.051758,0.036133,1.018066,-1.585366,-0.731707,-0.426829,-4.593750,17.750000,19.656250,29.514,0.57479103,-0.01053171,-0.02827021,-0.81774394
'00:11:15.524,0.061035,0.031250,1.000977,-3.719512,-2.987805,-0.182927,-4.593750,17.750000,19.656250,29.635,0.57480534,-0.01103618,-0.02822544,-0.81772878
'00:11:15.534,0.062988,0.028809,0.995117,-3.048780,-2.195122,-0.243902,-4.631250,17.637501,19.731251,29.604,0.57481176,-0.01146124,-0.02817907,-0.81772001
'00:11:15.544,0.066406,0.025879,0.992676,-1.768293,-0.792683,-0.365854,-4.631250,17.637501,19.731251,29.559,0.57481385,-0.01174714,-0.02815150,-0.81771544
'00:11:15.554,0.070801,0.020508,0.991699,0.487805,1.585366,-0.609756,-4.993750,18.237501,20.081251,29.544,0.57479501,-0.01177700,-0.02813829,-0.81772871
'00:11:15.564,0.072266,0.016113,0.998047,3.658537,4.817073,-0.792683,-4.993750,18.237501,20.081251,29.544,0.57477517,-0.01143940,-0.02816845,-0.81774641
'00:11:15.574,0.064941,0.022949,1.009766,5.792683,7.134147,-1.097561,-4.775000,17.981251,19.918751,29.574,0.57475021,-0.01077498,-0.02825084,-0.81777013
'00:11:15.584,0.050293,0.036621,1.022949,2.987805,4.146341,-0.914634,-4.775000,17.981251,19.918751,29.529,0.57472692,-0.01033633,-0.02829704,-0.81779057
'00:11:15.594,0.052246,0.036133,1.016602,-2.378049,-1.646341,-0.304878,-4.587500,17.700001,19.650000,29.589,0.57473641,-0.01060788,-0.02826691,-0.81778146
'00:11:15.604,0.062012,0.027344,1.000977,-4.146341,-3.475610,-0.182927,-4.581250,17.656250,19.687500,29.559,0.57474852,-0.01118854,-0.02819641,-0.81776764
'00:11:15.614,0.064941,0.025879,0.989258,-2.987805,-2.195122,-0.304878,-4.581250,17.656250,19.687500,29.574,0.57475511,-0.01163602,-0.02815260,-0.81775828
'00:11:15.624,0.067871,0.024414,0.986816,-0.060976,1.036585,-0.548781,-4.556250,17.612501,19.700001,29.559,0.57475517,-0.01172324,-0.02816086,-0.81775670
'00:11:15.634,0.066406,0.021973,0.997070,2.378049,3.536585,-0.731707,-4.556250,17.612501,19.700001,29.544,0.57475134,-0.01150711,-0.02819339,-0.81776134
'00:11:15.644,0.064453,0.022461,1.005371,3.353659,4.451220,-0.792683,-5.006250,18.256250,20.068750,29.604,0.57472947,-0.01114628,-0.02822166,-0.81778074
'00:11:15.654,0.060547,0.026367,1.014160,3.353659,4.512195,-0.853659,-5.006250,18.256250,20.068750,29.544,0.57470334,-0.01074797,-0.02825038,-0.81780344
'00:11:15.664,0.057617,0.028320,1.017090,1.341463,2.378049,-0.670732,-4.868750,18.006250,19.887501,29.574,0.57468769,-0.01058893,-0.02824581,-0.81781667
'00:11:15.674,0.060547,0.027832,1.008789,-0.243902,0.670732,-0.548781,-4.868750,18.006250,19.887501,29.604,0.57467537,-0.01065364,-0.02822591,-0.81782517
'00:11:15.684,0.060547,0.027832,1.008789,-0.243902,0.670732,-0.548781,-4.643750,17.818750,19.706251,29.604,0.57467481,-0.01072809,-0.02821967,-0.81782481
'00:11:15.694,0.061035,0.028320,1.001953,-0.609756,0.365854,-0.548781,-4.643750,17.818750,19.706251,29.589,0.57467285,-0.01084377,-0.02821004,-0.81782500
'00:11:15.704,0.060547,0.031738,0.998047,-1.036585,-0.182927,-0.487805,-4.631250,17.681250,19.718750,29.604,0.57467019,-0.01100143,-0.02821455,-0.81782460
'00:11:15.714,0.065918,0.026367,0.990234,-0.670732,0.304878,-0.426829,-4.631250,17.681250,19.718750,29.529,0.57467396,-0.01115778,-0.02821389,-0.81781986
'00:11:15.724,0.067383,0.024414,0.993164,1.768293,2.865854,-0.731707,-4.618750,17.787500,19.668751,29.544,0.57466816,-0.01102324,-0.02825565,-0.81782432
'00:11:15.734,0.062012,0.025879,1.005371,3.231707,4.390244,-0.853659,-4.618750,17.787500,19.668751,29.544,0.57465909,-0.01066972,-0.02830736,-0.81783359
'00:11:15.744,0.059082,0.028320,1.015137,2.195122,3.292683,-0.731707,-4.918750,18.218750,20.025000,29.559,0.57464314,-0.01041252,-0.02832456,-0.81784751
'00:11:15.754,0.059082,0.029785,1.012695,0.182927,1.158537,-0.609756,-4.918750,18.218750,20.025000,29.514,0.57462894,-0.01040727,-0.02831441,-0.81785791
'00:11:15.764,0.062012,0.028320,1.007812,-0.792683,0.121951,-0.487805,-5.068750,18.400000,20.125000,29.574,0.57461406,-0.01054203,-0.02828469,-0.81786767
'00:11:15.774,0.062012,0.027344,0.998047,-0.487805,0.365854,-0.548781,-5.068750,18.400000,20.125000,29.529,0.57459571,-0.01064809,-0.02826326,-0.81787993
'00:11:15.784,0.062988,0.028809,0.992188,0.304878,1.341463,-0.548781,-4.587500,17.750000,19.637501,29.604,0.57459965,-0.01066343,-0.02828726,-0.81787613
'00:11:15.794,0.061523,0.028809,0.998535,1.585366,2.682927,-0.670732,-4.587500,17.750000,19.637501,29.574,0.57459944,-0.01050868,-0.02832659,-0.81787692
'00:11:15.804,0.058594,0.029785,1.004395,1.280488,2.317073,-0.670732,-4.618750,17.656250,19.612501,29.574,0.57459402,-0.01037259,-0.02834911,-0.81788168
'00:11:15.814,0.061523,0.025879,1.005371,0.731707,1.707317,-0.670732,-4.618750,17.656250,19.612501,29.589,0.57458754,-0.01034156,-0.02835177,-0.81788654
'00:11:15.824,0.063477,0.024902,1.006836,1.036585,2.073171,-0.670732,-4.543750,17.718750,19.675001,29.514,0.57458882,-0.01029000,-0.02836667,-0.81788578
'00:11:15.834,0.062500,0.026367,1.009766,1.402439,2.439024,-0.670732,-4.543750,17.718750,19.675001,29.604,0.57459116,-0.01018276,-0.02839255,-0.81788457
'00:11:15.844,0.059082,0.030762,1.008301,0.609756,1.524390,-0.609756,-4.831250,18.181250,19.856251,29.620,0.57458414,-0.01013486,-0.02840729,-0.81788959
'00:11:15.854,0.060547,0.032227,1.001953,-0.609756,0.304878,-0.548781,-4.831250,18.181250,19.856251,29.544,0.57457703,-0.01023942,-0.02841242,-0.81789310
'00:11:15.864,0.062012,0.028809,0.996582,-0.548781,0.426829,-0.548781,-4.868750,18.143751,19.937500,29.544,0.57456705,-0.01035100,-0.02840038,-0.81789913
'00:11:15.874,0.061523,0.028320,0.997559,0.365854,1.341463,-0.609756,-4.868750,18.143751,19.937500,29.574,0.57455578,-0.01034879,-0.02840277,-0.81790698
'00:11:15.884,0.059570,0.030273,1.003418,0.487805,1.463415,-0.609756,-4.650000,17.856251,19.800001,29.574,0.57455362,-0.01032085,-0.02841947,-0.81790828
'00:11:15.894,0.060059,0.027832,1.005859,-0.060976,0.975610,-0.548781,-4.550000,17.687500,19.712500,29.559,0.57455817,-0.01037170,-0.02841233,-0.81790469
'00:11:15.904,0.061523,0.024902,1.005859,0.304878,1.341463,-0.548781,-4.550000,17.687500,19.712500,29.544,0.57456440,-0.01039750,-0.02840187,-0.81790035
'00:11:15.915,0.060547,0.026855,1.006836,0.731707,1.707317,-0.609756,-4.575000,17.725000,19.668751,29.604,0.57456667,-0.01035667,-0.02841049,-0.81789897
'00:11:15.924,0.060547,0.028809,1.002930,0.426829,1.463415,-0.548781,-4.575000,17.725000,19.668751,29.544,0.57457128,-0.01034700,-0.02842039,-0.81789551
'00:11:15.934,0.061523,0.027832,1.000977,0.365854,1.402439,-0.548781,-4.556250,17.737501,19.668751,29.529,0.57457792,-0.01035505,-0.02843076,-0.81789038
'00:11:15.944,0.062012,0.027344,1.000488,0.731707,1.829268,-0.670732,-4.556250,17.737501,19.668751,29.574,0.57457728,-0.01031871,-0.02844505,-0.81789080
'00:11:15.954,0.060547,0.028809,1.002441,0.914634,1.951220,-0.609756,-4.825000,18.106251,19.962500,29.514,0.57456992,-0.01023965,-0.02845469,-0.81789663
'00:11:15.964,0.060547,0.029785,1.004395,0.609756,1.707317,-0.609756,-4.825000,18.106251,19.962500,29.574,0.57456164,-0.01019014,-0.02845955,-0.81790289
'00:11:15.975,0.061035,0.029297,1.003906,0.304878,1.341463,-0.609756,-4.662500,17.862501,19.775000,29.559,0.57455842,-0.01019407,-0.02846866,-0.81790479
'00:11:15.984,0.061523,0.027832,1.003418,0.426829,1.402439,-0.548781,-4.662500,17.862501,19.775000,29.589,0.57456018,-0.01019583,-0.02847538,-0.81790329
'00:11:15.994,0.060059,0.028809,1.004395,0.426829,1.463415,-0.609756,-4.587500,17.750000,19.668751,29.514,0.57456089,-0.01018381,-0.02848269,-0.81790269
'00:11:16.004,0.062012,0.028320,1.003418,0.365854,1.402439,-0.548781,-4.587500,17.750000,19.668751,29.559,0.57456574,-0.01019266,-0.02849390,-0.81789878
'00:11:16.014,0.062988,0.028809,1.001953,0.548781,1.646341,-0.609756,-4.612500,17.756250,19.750000,29.529,0.57456486,-0.01017720,-0.02851104,-0.81789899
'00:11:16.024,0.061523,0.029297,1.003418,0.731707,1.768293,-0.609756,-4.612500,17.756250,19.750000,29.574,0.57456442,-0.01013357,-0.02853125,-0.81789914
'00:11:16.034,0.059570,0.028809,1.003418,0.548781,1.585366,-0.609756,-4.575000,17.762501,19.668751,29.574,0.57456672,-0.01010603,-0.02854004,-0.81789756
'00:11:16.044,0.061035,0.028320,1.003906,0.548781,1.585366,-0.609756,-4.575000,17.762501,19.668751,29.574,0.57456907,-0.01008899,-0.02855154,-0.81789572
'00:11:16.054,0.060059,0.028320,1.003418,0.426829,1.524390,-0.548781,-4.750000,17.993750,19.800001,29.544,0.57456816,-0.01006996,-0.02854486,-0.81789683
'00:11:16.064,0.059570,0.030273,1.004883,0.182927,1.219512,-0.548781,-4.750000,17.993750,19.800001,29.529,0.57456593,-0.01007434,-0.02854478,-0.81789834
'00:11:16.074,0.060547,0.029785,1.003906,-0.243902,0.792683,-0.548781,-4.962500,18.375000,20.112501,29.559,0.57455536,-0.01013128,-0.02852896,-0.81790561
'00:11:16.084,0.061523,0.028320,1.001465,-0.060976,0.914634,-0.609756,-4.962500,18.375000,20.112501,29.589,0.57454113,-0.01018106,-0.02851690,-0.81791541
'00:11:16.094,0.062012,0.027344,1.004883,0.365854,1.341463,-0.548781,-4.575000,17.806250,19.612501,29.544,0.57454844,-0.01019921,-0.02852686,-0.81790970
'00:11:16.104,0.061035,0.027344,1.007324,0.304878,1.280488,-0.609756,-4.575000,17.806250,19.612501,29.514,0.57455120,-0.01021831,-0.02853053,-0.81790740
'00:11:16.114,0.061523,0.027832,1.002930,0.426829,1.402439,-0.609756,-4.581250,17.743750,19.643751,29.574,0.57455216,-0.01022296,-0.02854117,-0.81790629
'00:11:16.124,0.061523,0.028320,1.000977,0.914634,1.951220,-0.670732,-4.581250,17.743750,19.643751,29.559,0.57455043,-0.01016227,-0.02856257,-0.81790752
'00:11:16.134,0.059570,0.030273,1.004395,0.975610,2.012195,-0.609756,-4.593750,17.762501,19.712500,29.529,0.57455229,-0.01007521,-0.02858635,-0.81790646
'00:11:16.144,0.058594,0.030762,1.004883,0.304878,1.341463,-0.609756,-4.718750,17.956251,19.825001,29.514,0.57454720,-0.01005853,-0.02858871,-0.81791016
'00:11:16.154,0.060059,0.030762,1.004395,-0.365854,0.548781,-0.487805,-4.718750,17.956251,19.825001,29.544,0.57454824,-0.01014083,-0.02858882,-0.81790841
'00:11:16.164,0.059082,0.028809,1.001465,-0.975610,0.000000,-0.487805,-4.718750,18.018751,19.887501,29.574,0.57454878,-0.01029555,-0.02856025,-0.81790709
'00:11:16.174,0.063477,0.026855,1.001953,-0.670732,0.304878,-0.548781,-4.718750,18.018751,19.887501,29.574,0.57454598,-0.01044296,-0.02854442,-0.81790774
'00:11:16.184,0.062012,0.024902,1.002930,0.426829,1.341463,-0.609756,-4.706250,17.875000,19.775000,29.559,0.57454075,-0.01045718,-0.02853564,-0.81791154
'00:11:16.194,0.061035,0.027344,1.003418,1.036585,2.134146,-0.670732,-4.706250,17.875000,19.775000,29.559,0.57453323,-0.01036868,-0.02854069,-0.81791777
'00:11:16.204,0.059570,0.028320,1.003906,1.036585,2.073171,-0.609756,-4.625000,17.768751,19.737501,29.544,0.57453330,-0.01027734,-0.02855237,-0.81791847
'00:11:16.214,0.061035,0.028809,1.003906,0.792683,1.768293,-0.609756,-4.625000,17.768751,19.737501,29.529,0.57453236,-0.01022760,-0.02857054,-0.81791912
'00:11:16.224,0.061035,0.027832,1.001953,0.914634,2.012195,-0.670732,-4.550000,17.725000,19.668751,29.604,0.57453257,-0.01016336,-0.02858530,-0.81791925
'00:11:16.235,0.060547,0.029297,1.005859,0.853659,1.890244,-0.609756,-4.550000,17.725000,19.668751,29.589,0.57453702,-0.01009632,-0.02860869,-0.81791615
'00:11:16.244,0.059570,0.030762,1.005859,0.060976,1.036585,-0.548781,-4.562500,17.825001,19.700001,29.559,0.57454297,-0.01012326,-0.02862032,-0.81791122
'00:11:16.254,0.059570,0.029785,1.003906,-0.731707,0.243902,-0.487805,-4.562500,17.825001,19.700001,29.574,0.57455136,-0.01025350,-0.02861128,-0.81790403
'00:11:16.264,0.063477,0.026855,1.001465,-0.487805,0.487805,-0.487805,-4.931250,18.356251,20.087500,29.559,0.57454598,-0.01037138,-0.02858985,-0.81790707
'00:11:16.275,0.063965,0.025391,1.001953,0.853659,1.890244,-0.609756,-4.931250,18.356251,20.087500,29.604,0.57453582,-0.01032401,-0.02858739,-0.81791489
'00:11:16.284,0.062500,0.027344,1.002441,1.707317,2.804878,-0.670732,-4.781250,17.981251,19.800001,29.544,0.57452866,-0.01017748,-0.02860673,-0.81792108
'00:11:16.294,0.059082,0.030762,1.004883,1.341463,2.439024,-0.670732,-4.781250,17.981251,19.800001,29.589,0.57451912,-0.01002823,-0.02862536,-0.81792897
'00:11:16.305,0.058594,0.030273,1.005371,0.548781,1.646341,-0.609756,-4.575000,17.793751,19.706251,29.574,0.57452232,-0.00998241,-0.02863515,-0.81792695
'00:11:16.314,0.059082,0.028320,1.002930,0.182927,1.158537,-0.548781,-4.575000,17.793751,19.706251,29.544,0.57452786,-0.01000359,-0.02863402,-0.81792283
'00:11:16.325,0.061523,0.028809,1.003418,0.243902,1.219512,-0.548781,-4.518750,17.793751,19.612501,29.544,0.57453932,-0.01003735,-0.02865275,-0.81791371
'00:11:16.334,0.060547,0.028320,1.002441,0.487805,1.463415,-0.609756,-4.518750,17.793751,19.612501,29.604,0.57454555,-0.01003472,-0.02866675,-0.81790888
'00:11:16.344,0.060547,0.027832,1.003906,0.670732,1.646341,-0.609756,-4.593750,17.818750,19.706251,29.559,0.57454807,-0.01000708,-0.02867694,-0.81790709
'00:11:16.355,0.058594,0.028320,1.002441,0.853659,1.890244,-0.609756,-4.593750,17.818750,19.706251,29.574,0.57455168,-0.00993400,-0.02868407,-0.81790519
'00:11:16.364,0.061035,0.028809,1.004395,0.914634,2.012195,-0.609756,-4.662500,17.875000,19.762501,29.574,0.57455152,-0.00987171,-0.02869508,-0.81790568
'00:11:16.374,0.060547,0.027832,1.003906,0.975610,2.073171,-0.670732,-4.662500,17.875000,19.762501,29.544,0.57454751,-0.00979721,-0.02870126,-0.81790917
'00:11:16.386,0.059082,0.028320,1.003906,0.914634,1.951220,-0.609756,-4.512500,17.731251,19.706251,29.604,0.57455657,-0.00972028,-0.02871749,-0.81790315
'00:11:16.394,0.058594,0.031250,1.004395,0.487805,1.524390,-0.548781,-4.512500,17.731251,19.706251,29.559,0.57456453,-0.00969954,-0.02873280,-0.81789727
'00:11:16.404,0.060547,0.029785,1.004395,0.060976,1.036585,-0.487805,-4.575000,17.837500,19.681250,29.559,0.57457556,-0.00974457,-0.02874238,-0.81788865
'00:11:16.414,0.060547,0.029785,1.004395,0.060976,1.036585,-0.487805,-4.562500,17.775000,19.656250,29.559,0.57458601,-0.00978877,-0.02875131,-0.81788047
'00:11:16.424,0.060547,0.028809,1.003418,0.060976,1.097561,-0.548781,-4.562500,17.775000,19.656250,29.529,0.57459234,-0.00983192,-0.02875174,-0.81787549
'00:11:16.435,0.060547,0.028320,1.003418,0.914634,1.890244,-0.670732,-4.512500,17.850000,19.656250,29.574,0.57459847,-0.00977584,-0.02877863,-0.81787091
'00:11:16.444,0.060547,0.028320,1.003418,0.914634,1.890244,-0.670732,-4.512500,17.850000,19.656250,29.574,0.57460351,-0.00973068,-0.02880030,-0.81786714
'00:11:16.454,0.060547,0.029297,1.002930,1.219512,2.195122,-0.670732,-4.768750,18.100000,19.818750,29.559,0.57459714,-0.00962794,-0.02882164,-0.81787208
'00:11:16.464,0.055664,0.031738,1.007324,0.121951,1.036585,-0.548781,-4.768750,18.100000,19.818750,29.589,0.57459548,-0.00962690,-0.02881539,-0.81787348
'00:11:16.474,0.062012,0.027832,1.000488,0.548781,1.585366,-0.609756,-5.000000,18.368750,20.056250,29.559,0.57458144,-0.00960763,-0.02880609,-0.81788390
'00:11:16.484,0.056152,0.034180,1.005859,0.365854,1.402439,-0.609756,-5.000000,18.368750,20.056250,29.559,0.57456571,-0.00955280,-0.02880365,-0.81789568
'00:11:16.494,0.061035,0.028320,1.002441,0.548781,1.585366,-0.609756,-4.556250,17.875000,19.656250,29.544,0.57457250,-0.00954679,-0.02881637,-0.81789053
'00:11:16.504,0.058594,0.031250,1.005371,0.000000,0.914634,-0.548781,-4.556250,17.875000,19.656250,29.544,0.57458098,-0.00959013,-0.02882925,-0.81788361
'00:11:16.516,0.060547,0.029785,1.006348,0.121951,1.097561,-0.548781,-4.562500,17.818750,19.781250,29.574,0.57458927,-0.00963742,-0.02884007,-0.81787685
'00:11:16.524,0.060547,0.029785,1.006348,0.121951,1.097561,-0.548781,-4.562500,17.818750,19.781250,29.574,0.57459469,-0.00966833,-0.02884705,-0.81787243
'00:11:16.534,0.058594,0.030273,1.005371,-0.121951,0.792683,-0.548781,-4.556250,17.787500,19.681250,29.574,0.57460053,-0.00972732,-0.02884889,-0.81786757
'00:11:16.544,0.059570,0.029785,1.003906,-0.182927,0.792683,-0.548781,-4.556250,17.787500,19.681250,29.574,0.57460623,-0.00979623,-0.02884790,-0.81786277
'00:11:16.556,0.060059,0.027832,1.000977,0.000000,0.975610,-0.548781,-4.581250,17.800001,19.712500,29.514,0.57461215,-0.00986297,-0.02883931,-0.81785811
'00:11:16.564,0.060059,0.028320,1.000977,0.365854,1.402439,-0.548781,-4.581250,17.800001,19.712500,29.544,0.57461703,-0.00986604,-0.02883962,-0.81785464
'00:11:16.574,0.058594,0.028809,1.002930,0.792683,1.829268,-0.609756,-4.956250,18.281250,20.056250,29.559,0.57460409,-0.00979179,-0.02882697,-0.81786507
'00:11:16.584,0.057617,0.029785,1.005371,0.609756,1.707317,-0.609756,-4.956250,18.281250,20.056250,29.589,0.57459072,-0.00972684,-0.02880846,-0.81787589
'00:11:16.597,0.058105,0.031250,1.006348,-0.182927,0.853659,-0.548781,-4.768750,18.100000,19.925001,29.559,0.57458691,-0.00978106,-0.02879313,-0.81787845
'00:11:16.604,0.060059,0.029297,1.004883,-0.792683,0.121951,-0.487805,-4.768750,18.100000,19.925001,29.529,0.57458645,-0.00988105,-0.02877821,-0.81787810
'00:11:16.614,0.062988,0.028320,1.001465,-0.548781,0.365854,-0.487805,-4.575000,17.793751,19.675001,29.544,0.57459396,-0.01002114,-0.02877823,-0.81787112
'00:11:16.624,0.062500,0.027344,1.000977,0.548781,1.585366,-0.548781,-4.575000,17.793751,19.675001,29.559,0.57460109,-0.01001831,-0.02878784,-0.81786581
'00:11:16.635,0.061035,0.028809,1.000977,1.341463,2.378049,-0.731707,-4.525000,17.812500,19.656250,29.559,0.57460164,-0.00989702,-0.02882464,-0.81786561
'00:11:16.644,0.059570,0.030273,1.002441,1.280488,2.378049,-0.670732,-4.525000,17.812500,19.656250,29.574,0.57460588,-0.00978920,-0.02885226,-0.81786295
'00:11:16.654,0.057617,0.031250,1.004883,0.792683,1.829268,-0.609756,-4.531250,17.812500,19.637501,29.574,0.57461283,-0.00971878,-0.02887170,-0.81785822
'00:11:16.664,0.059082,0.030273,1.006348,-0.060976,0.914634,-0.548781,-4.912500,18.275000,20.031250,29.559,0.57460399,-0.00975344,-0.02885563,-0.81786458
'00:11:16.676,0.060547,0.028320,1.004883,-0.609756,0.304878,-0.487805,-4.912500,18.275000,20.031250,29.544,0.57459662,-0.00989907,-0.02882069,-0.81786924
'00:11:16.684,0.060059,0.028320,1.004395,-0.548781,0.426829,-0.548781,-4.812500,18.106251,19.906250,29.544,0.57459111,-0.00998564,-0.02879805,-0.81787286
'00:11:16.694,0.060547,0.028320,1.002441,0.060976,1.036585,-0.548781,-4.812500,18.106251,19.906250,29.604,0.57458616,-0.01002169,-0.02878563,-0.81787633
'00:11:16.704,0.059082,0.029297,1.001953,0.426829,1.402439,-0.548781,-4.606250,17.756250,19.693750,29.604,0.57458937,-0.01000826,-0.02878946,-0.81787411
'00:11:16.714,0.060059,0.030762,1.003418,0.304878,1.219512,-0.548781,-4.606250,17.756250,19.693750,29.589,0.57459168,-0.01001340,-0.02880545,-0.81787186
'00:11:16.724,0.059082,0.029297,1.002930,0.060976,1.036585,-0.548781,-4.575000,17.768751,19.718750,29.529,0.57459599,-0.01004645,-0.02880349,-0.81786850
'00:11:16.734,0.060547,0.027832,1.002441,0.182927,1.158537,-0.548781,-4.575000,17.768751,19.718750,29.544,0.57460088,-0.01007852,-0.02880167,-0.81786473
'00:11:16.744,0.061523,0.027832,1.002441,0.548781,1.524390,-0.548781,-4.625000,17.768751,19.631250,29.574,0.57460378,-0.01006766,-0.02880775,-0.81786261
'00:11:16.754,0.061035,0.028320,1.004883,0.792683,1.951220,-0.609756,-4.625000,17.768751,19.631250,29.529,0.57460355,-0.01000890,-0.02880967,-0.81786342
'00:11:16.764,0.061523,0.028809,1.004883,0.853659,1.890244,-0.609756,-4.681250,18.018751,19.768751,29.559,0.57460438,-0.00995320,-0.02882480,-0.81786299
'00:11:16.774,0.059082,0.029785,1.002930,0.731707,1.768293,-0.609756,-4.681250,18.018751,19.768751,29.514,0.57460475,-0.00989608,-0.02883390,-0.81786310
'00:11:16.785,0.059570,0.029297,1.003418,0.426829,1.402439,-0.609756,-4.925000,18.318750,20.068750,29.574,0.57459198,-0.00987385,-0.02882537,-0.81787264
'00:11:16.794,0.059570,0.030273,1.002930,0.000000,0.975610,-0.548781,-4.925000,18.318750,20.068750,29.544,0.57458405,-0.00989940,-0.02881550,-0.81787825
'00:11:16.804,0.059570,0.028320,1.001953,-0.182927,0.731707,-0.548781,-4.600000,17.793751,19.750000,29.589,0.57458647,-0.00997398,-0.02880670,-0.81787596
'00:11:16.814,0.060547,0.029297,1.001953,0.060976,1.097561,-0.548781,-4.600000,17.793751,19.750000,29.559,0.57458964,-0.01001063,-0.02880654,-0.81787329
'00:11:16.824,0.060547,0.028320,1.001953,0.609756,1.646341,-0.609756,-4.587500,17.775000,19.681250,29.604,0.57459118,-0.00998424,-0.02881307,-0.81787230
'00:11:16.836,0.059570,0.027344,1.002930,0.975610,2.012195,-0.609756,-4.587500,17.775000,19.681250,29.574,0.57459486,-0.00989768,-0.02881822,-0.81787058
'00:11:16.844,0.060059,0.029297,1.004883,1.036585,2.134146,-0.609756,-4.575000,17.812500,19.712500,29.529,0.57459865,-0.00982821,-0.02883166,-0.81786828
'00:11:16.854,0.059082,0.028320,1.003418,1.036585,2.073171,-0.670732,-4.575000,17.812500,19.712500,29.544,0.57459922,-0.00974544,-0.02884249,-0.81786849
'00:11:16.864,0.059570,0.030273,1.003418,0.914634,1.951220,-0.609756,-4.556250,17.831251,19.693750,29.574,0.57460523,-0.00967506,-0.02886584,-0.81786429
'00:11:16.876,0.058594,0.030273,1.004395,0.548781,1.646341,-0.609756,-4.556250,17.831251,19.693750,29.574,0.57461129,-0.00963309,-0.02887539,-0.81786018
'00:11:16.884,0.059082,0.029297,1.004883,0.182927,1.097561,-0.548781,-4.606250,17.931250,19.825001,29.544,0.57461621,-0.00965581,-0.02887806,-0.81785636
'00:11:16.894,0.059570,0.029297,1.002441,-0.182927,0.853659,-0.548781,-4.606250,17.931250,19.825001,29.559,0.57462134,-0.00972282,-0.02887038,-0.81785224
'00:11:16.904,0.061523,0.028809,1.000977,0.000000,0.975610,-0.548781,-4.768750,18.043751,19.875000,29.574,0.57461797,-0.00977560,-0.02886499,-0.81785417
'00:11:16.916,0.061035,0.029297,1.001953,0.365854,1.402439,-0.609756,-4.768750,18.043751,19.875000,29.559,0.57461019,-0.00977345,-0.02886479,-0.81785967
'00:11:16.924,0.060547,0.027344,1.003906,0.853659,1.890244,-0.609756,-4.556250,17.725000,19.637501,29.589,0.57461346,-0.00973526,-0.02886965,-0.81785765
'00:11:16.934,0.059570,0.029297,1.003418,1.219512,2.256098,-0.670732,-4.537500,17.781250,19.675001,29.514,0.57461655,-0.00963226,-0.02889379,-0.81785585
'00:11:16.944,0.056152,0.033691,1.007812,0.060976,0.975610,-0.548781,-4.537500,17.781250,19.675001,29.559,0.57462349,-0.00964223,-0.02890906,-0.81785032
'00:11:16.954,0.061523,0.027344,1.000977,0.426829,1.463415,-0.609756,-4.500000,17.737501,19.650000,29.574,0.57463038,-0.00965827,-0.02891534,-0.81784506
'00:11:16.964,0.056641,0.033691,1.006348,0.426829,1.463415,-0.609756,-4.500000,17.737501,19.650000,29.604,0.57463611,-0.00961919,-0.02893652,-0.81784075
'00:11:16.974,0.060059,0.027832,1.003418,-0.060976,0.975610,-0.548781,-5.075000,18.550001,20.231251,29.574,0.57462253,-0.00966108,-0.02890168,-0.81785103
'00:11:16.984,0.060547,0.029785,1.003906,0.182927,1.280488,-0.548781,-5.075000,18.550001,20.231251,29.544,0.57460955,-0.00966342,-0.02888203,-0.81786081
'00:11:16.994,0.058594,0.029785,1.002930,0.060976,1.036585,-0.548781,-4.950000,18.368750,20.056250,29.529,0.57460081,-0.00968319,-0.02886452,-0.81786734
'00:11:17.004,0.058105,0.028809,1.003906,-0.182927,0.853659,-0.548781,-4.950000,18.368750,20.056250,29.574,0.57459164,-0.00972893,-0.02883131,-0.81787441
'00:11:17.014,0.059570,0.029785,1.003418,-0.243902,0.670732,-0.548781,-4.612500,17.887501,19.656250,29.559,0.57459546,-0.00980743,-0.02883048,-0.81787082
'00:11:17.024,0.059570,0.028809,1.002441,-0.243902,0.731707,-0.487805,-4.612500,17.887501,19.656250,29.544,0.57460383,-0.00988466,-0.02882120,-0.81786433
'00:11:17.034,0.060547,0.028809,1.001465,0.000000,1.036585,-0.548781,-4.581250,17.837500,19.681250,29.559,0.57460956,-0.00993366,-0.02881962,-0.81785977
'00:11:17.044,0.060547,0.027832,1.003418,0.487805,1.402439,-0.609756,-4.581250,17.837500,19.681250,29.574,0.57461241,-0.00993474,-0.02882806,-0.81785746
'00:11:17.054,0.059570,0.028809,1.002930,0.548781,1.585366,-0.609756,-4.537500,17.793751,19.706251,29.604,0.57461755,-0.00991263,-0.02883586,-0.81785384
'00:11:17.064,0.058105,0.029297,1.005859,0.182927,1.219512,-0.548781,-4.537500,17.793751,19.706251,29.589,0.57462581,-0.00992449,-0.02883150,-0.81784805
'00:11:17.074,0.058594,0.030273,1.006836,-0.426829,0.487805,-0.548781,-4.843750,18.256250,20.025000,29.544,0.57461944,-0.01000576,-0.02881362,-0.81785216
'00:11:17.084,0.061035,0.029297,1.003418,-0.914634,0.000000,-0.487805,-4.843750,18.256250,20.025000,29.559,0.57461576,-0.01016331,-0.02879094,-0.81785360
'00:11:17.094,0.062500,0.026855,1.000977,-0.609756,0.365854,-0.548781,-4.950000,18.293751,20.087500,29.574,0.57460267,-0.01028961,-0.02875757,-0.81786239
'00:11:17.104,0.062012,0.027832,1.001465,0.304878,1.402439,-0.548781,-4.950000,18.293751,20.087500,29.574,0.57459269,-0.01028775,-0.02874125,-0.81787000
'00:11:17.114,0.060547,0.028320,1.003418,0.670732,1.707317,-0.548781,-4.562500,17.787500,19.656250,29.574,0.57460054,-0.01025126,-0.02875136,-0.81786459
'00:11:17.124,0.061035,0.028320,1.004883,0.426829,1.402439,-0.548781,-4.562500,17.787500,19.656250,29.589,0.57460742,-0.01025166,-0.02876056,-0.81785943
'00:11:17.134,0.061035,0.029297,1.004395,-0.060976,0.914634,-0.548781,-4.537500,17.762501,19.743750,29.574,0.57461320,-0.01030890,-0.02876632,-0.81785445
'00:11:17.144,0.060547,0.028320,1.003906,0.000000,0.975610,-0.548781,-4.537500,17.762501,19.743750,29.604,0.57461928,-0.01035916,-0.02876573,-0.81784956
'00:11:17.154,0.060547,0.028320,1.003906,0.000000,0.975610,-0.548781,-4.518750,17.762501,19.606251,29.604,0.57462716,-0.01040942,-0.02876686,-0.81784335
'00:11:17.164,0.062012,0.028320,1.002930,0.182927,1.219512,-0.548781,-4.518750,17.762501,19.606251,29.574,0.57463560,-0.01044074,-0.02877490,-0.81783674
'00:11:17.174,0.060547,0.028320,1.004395,0.304878,1.219512,-0.609756,-4.781250,18.118750,19.800001,29.559,0.57462887,-0.01044570,-0.02877239,-0.81784149
'00:11:17.184,0.060547,0.029297,1.002930,-0.060976,0.975610,-0.548781,-4.781250,18.118750,19.800001,29.544,0.57462534,-0.01048291,-0.02876209,-0.81784385
'00:11:17.194,0.060547,0.028809,1.002930,-0.121951,0.853659,-0.487805,-4.868750,18.256250,19.962500,29.529,0.57462240,-0.01053045,-0.02874699,-0.81784584
'00:11:17.205,0.062012,0.029297,1.002930,0.060976,0.975610,-0.548781,-4.675000,17.887501,19.743750,29.559,0.57462098,-0.01057581,-0.02875523,-0.81784596
'00:11:17.214,0.061035,0.028320,1.003906,0.000000,0.975610,-0.548781,-4.675000,17.887501,19.743750,29.559,0.57461992,-0.01061348,-0.02874903,-0.81784644
'00:11:17.224,0.061035,0.028320,1.003418,0.060976,1.036585,-0.548781,-4.562500,17.725000,19.731251,29.514,0.57462306,-0.01065233,-0.02874877,-0.81784373
'00:11:17.234,0.062988,0.027832,1.002930,0.243902,1.219512,-0.609756,-4.562500,17.725000,19.731251,29.574,0.57462240,-0.01068130,-0.02875756,-0.81784351
'00:11:17.245,0.061035,0.027832,1.002930,0.304878,1.341463,-0.609756,-4.618750,17.737501,19.668751,29.589,0.57461840,-0.01068373,-0.02875210,-0.81784648
'00:11:17.254,0.061035,0.027832,1.003906,0.243902,1.219512,-0.609756,-4.618750,17.737501,19.668751,29.574,0.57461483,-0.01069607,-0.02874895,-0.81784894
'00:11:17.264,0.061035,0.028809,1.003418,0.243902,1.280488,-0.609756,-4.625000,17.787500,19.625000,29.529,0.57461168,-0.01070159,-0.02874903,-0.81785108
'00:11:17.274,0.060547,0.028320,1.002930,0.243902,1.219512,-0.548781,-4.625000,17.787500,19.625000,29.604,0.57461285,-0.01071089,-0.02874757,-0.81785019
'00:11:17.284,0.061523,0.027344,1.003906,0.000000,1.036585,-0.548781,-4.943750,18.168751,19.937500,29.544,0.57459925,-0.01074108,-0.02871965,-0.81786032
'00:11:17.294,0.060547,0.027832,1.003418,0.060976,1.036585,-0.548781,-4.943750,18.168751,19.937500,29.544,0.57458567,-0.01076070,-0.02869565,-0.81787045
'00:11:17.306,0.062012,0.026855,1.001953,0.426829,1.402439,-0.548781,-4.681250,17.893751,19.812500,29.559,0.57458549,-0.01075960,-0.02869409,-0.81787065
'00:11:17.314,0.061523,0.026367,1.002930,0.548781,1.646341,-0.609756,-4.681250,17.893751,19.812500,29.574,0.57458258,-0.01073917,-0.02868620,-0.81787324
'00:11:17.324,0.061523,0.026367,1.003418,0.548781,1.646341,-0.548781,-4.637500,17.706251,19.631250,29.544,0.57458287,-0.01071375,-0.02867576,-0.81787373
'00:11:17.334,0.060547,0.027832,1.004395,0.426829,1.463415,-0.609756,-4.637500,17.706251,19.631250,29.574,0.57457805,-0.01069616,-0.02867019,-0.81787754
'00:11:17.344,0.060059,0.027344,1.002930,0.304878,1.341463,-0.548781,-4.587500,17.756250,19.718750,29.574,0.57458158,-0.01069740,-0.02866280,-0.81787531
'00:11:17.354,0.060547,0.027832,1.003418,0.243902,1.219512,-0.609756,-4.587500,17.756250,19.718750,29.604,0.57458028,-0.01071089,-0.02866191,-0.81787608
'00:11:17.364,0.061035,0.027344,1.003906,0.182927,1.219512,-0.548781,-4.512500,17.712500,19.668751,29.589,0.57458781,-0.01073607,-0.02866062,-0.81787050
'00:11:17.374,0.061523,0.027832,1.001953,0.304878,1.280488,-0.487805,-4.512500,17.712500,19.668751,29.559,0.57459974,-0.01075174,-0.02867045,-0.81786157
'00:11:17.384,0.061523,0.028320,1.002930,0.487805,1.524390,-0.609756,-4.750000,17.993750,19.831251,29.574,0.57459282,-0.01072738,-0.02867084,-0.81786673
'00:11:17.394,0.061523,0.028320,1.002930,0.548781,1.585366,-0.609756,-4.750000,17.993750,19.831251,29.559,0.57458618,-0.01069601,-0.02867258,-0.81787175
'00:11:17.404,0.061035,0.028809,1.004395,0.548781,1.524390,-0.609756,-4.956250,18.212500,19.975000,29.559,0.57456993,-0.01065562,-0.02866682,-0.81788390
'00:11:17.414,0.061523,0.028320,1.004395,0.304878,1.341463,-0.548781,-4.956250,18.212500,19.975000,29.544,0.57455757,-0.01064589,-0.02865217,-0.81789322
'00:11:17.424,0.061523,0.027344,1.003418,0.243902,1.219512,-0.548781,-4.537500,17.743750,19.643751,29.559,0.57456440,-0.01067070,-0.02865653,-0.81788795
'00:11:17.434,0.061523,0.027344,1.002930,0.304878,1.280488,-0.548781,-4.537500,17.743750,19.643751,29.544,0.57457135,-0.01068780,-0.02866224,-0.81788264
'00:11:17.444,0.061035,0.027344,1.003418,0.487805,1.463415,-0.609756,-4.518750,17.693750,19.662500,29.574,0.57457466,-0.01068000,-0.02866987,-0.81788015
'00:11:17.454,0.061035,0.027832,1.003906,0.548781,1.524390,-0.548781,-4.575000,17.787500,19.712500,29.529,0.57458038,-0.01066073,-0.02867882,-0.81787607
'00:11:17.464,0.061035,0.027344,1.002930,0.548781,1.585366,-0.548781,-4.575000,17.787500,19.712500,29.589,0.57458635,-0.01063959,-0.02868215,-0.81787203
'00:11:17.474,0.060547,0.028809,1.003418,0.548781,1.585366,-0.609756,-4.731250,17.993750,19.856251,29.544,0.57458098,-0.01060326,-0.02868399,-0.81787621
'00:11:17.484,0.060547,0.028320,1.002930,0.548781,1.585366,-0.609756,-4.731250,17.993750,19.856251,29.559,0.57457578,-0.01056956,-0.02868328,-0.81788033
'00:11:17.494,0.060547,0.027344,1.002930,0.548781,1.646341,-0.609756,-4.912500,18.231251,20.043751,29.544,0.57456340,-0.01052874,-0.02866542,-0.81789017
'00:11:17.504,0.060059,0.028320,1.002930,0.548781,1.524390,-0.670732,-4.912500,18.231251,20.043751,29.620,0.57454633,-0.01049059,-0.02865770,-0.81790293
'00:11:17.514,0.060547,0.028809,1.004395,0.426829,1.402439,-0.609756,-4.650000,17.850000,19.818750,29.559,0.57454332,-0.01047861,-0.02866350,-0.81790499
'00:11:17.524,0.060547,0.028320,1.003906,0.243902,1.219512,-0.609756,-4.650000,17.850000,19.818750,29.544,0.57453981,-0.01049112,-0.02866275,-0.81790732
'00:11:17.534,0.061035,0.028320,1.003418,0.182927,1.219512,-0.548781,-4.606250,17.768751,19.675001,29.574,0.57454235,-0.01051077,-0.02866165,-0.81790532
'00:11:17.544,0.061035,0.028320,1.004395,0.243902,1.280488,-0.548781,-4.606250,17.768751,19.675001,29.589,0.57454507,-0.01052249,-0.02866142,-0.81790328
'00:11:17.554,0.060547,0.028320,1.003906,0.365854,1.402439,-0.609756,-4.618750,17.762501,19.700001,29.574,0.57454272,-0.01051563,-0.02866088,-0.81790503
'00:11:17.565,0.061035,0.028320,1.004395,0.426829,1.402439,-0.548781,-4.618750,17.762501,19.700001,29.604,0.57454499,-0.01050792,-0.02866695,-0.81790333
'00:11:17.574,0.060547,0.028320,1.002441,0.426829,1.402439,-0.609756,-4.643750,17.856251,19.737501,29.514,0.57454314,-0.01049930,-0.02867095,-0.81790459
'00:11:17.584,0.061523,0.028320,1.002441,0.487805,1.402439,-0.609756,-4.643750,17.856251,19.737501,29.574,0.57454111,-0.01049226,-0.02868357,-0.81790566
'00:11:17.594,0.061523,0.027344,1.002441,0.487805,1.524390,-0.609756,-4.706250,17.943750,19.781250,29.514,0.57453710,-0.01047793,-0.02868137,-0.81790875
'00:11:17.605,0.061035,0.028809,1.003418,0.609756,1.585366,-0.548781,-4.706250,17.943750,19.781250,29.574,0.57453748,-0.01044140,-0.02869180,-0.81790858
'00:11:17.614,0.060059,0.028320,1.002930,0.487805,1.463415,-0.609756,-4.887500,18.218750,19.950001,29.559,0.57452759,-0.01041606,-0.02868514,-0.81791608
'00:11:17.624,0.060547,0.028809,1.004883,0.426829,1.402439,-0.548781,-4.887500,18.218750,19.950001,29.529,0.57452073,-0.01039621,-0.02868044,-0.81792132
'00:11:17.634,0.059570,0.028809,1.003906,0.426829,1.402439,-0.548781,-4.593750,17.718750,19.662500,29.544,0.57452391,-0.01038186,-0.02868413,-0.81791914
'00:11:17.644,0.061523,0.027832,1.002930,0.426829,1.463415,-0.609756,-4.593750,17.718750,19.662500,29.559,0.57452301,-0.01037838,-0.02868734,-0.81791970
'00:11:17.654,0.060059,0.028809,1.003906,0.548781,1.524390,-0.609756,-4.531250,17.737501,19.712500,29.559,0.57452685,-0.01035642,-0.02870084,-0.81791681
'00:11:17.664,0.060059,0.028809,1.003418,0.426829,1.463415,-0.548781,-4.531250,17.737501,19.712500,29.544,0.57453477,-0.01034549,-0.02870864,-0.81791111
'00:11:17.674,0.061035,0.029297,1.003418,0.426829,1.402439,-0.548781,-4.556250,17.731251,19.706251,29.574,0.57454049,-0.01034086,-0.02872396,-0.81790662
'00:11:17.684,0.060059,0.029297,1.002441,0.365854,1.341463,-0.548781,-4.556250,17.731251,19.706251,29.589,0.57454600,-0.01033836,-0.02873421,-0.81790242
'00:11:17.694,0.059570,0.028320,1.003418,0.304878,1.341463,-0.548781,-4.818750,18.100000,19.912500,29.604,0.57454109,-0.01032925,-0.02871964,-0.81790649
'00:11:17.704,0.060059,0.028809,1.003906,0.365854,1.341463,-0.548781,-4.818750,18.100000,19.912500,29.604,0.57453618,-0.01031793,-0.02871417,-0.81791028
'00:11:17.714,0.060547,0.027832,1.002930,0.426829,1.402439,-0.609756,-4.962500,18.331251,20.012501,29.559,0.57452255,-0.01030087,-0.02870139,-0.81792051
'00:11:17.724,0.061035,0.028320,1.004395,0.426829,1.341463,-0.609756,-4.656250,17.831251,19.768751,29.589,0.57451917,-0.01030012,-0.02870827,-0.81792265
'00:11:17.734,0.059082,0.027832,1.003418,0.304878,1.341463,-0.609756,-4.656250,17.831251,19.768751,29.544,0.57451586,-0.01029672,-0.02869615,-0.81792545
'00:11:17.744,0.060547,0.027832,1.003418,0.365854,1.341463,-0.609756,-4.562500,17.718750,19.693750,29.574,0.57451687,-0.01030281,-0.02869940,-0.81792455
'00:11:17.754,0.060547,0.027832,1.002930,0.426829,1.402439,-0.609756,-4.562500,17.718750,19.693750,29.544,0.57451806,-0.01030151,-0.02870407,-0.81792356
'00:11:17.764,0.059570,0.028320,1.003418,0.426829,1.463415,-0.548781,-4.612500,17.793751,19.693750,29.574,0.57452190,-0.01028625,-0.02870207,-0.81792113
'00:11:17.774,0.059570,0.028320,1.002930,0.487805,1.463415,-0.548781,-4.612500,17.793751,19.693750,29.544,0.57452580,-0.01026827,-0.02870466,-0.81791852
'00:11:17.784,0.060059,0.028809,1.003418,0.426829,1.463415,-0.609756,-4.762500,18.081251,19.856251,29.589,0.57452070,-0.01024914,-0.02870208,-0.81792244
'00:11:17.794,0.060547,0.029297,1.002930,0.487805,1.402439,-0.548781,-4.762500,18.081251,19.856251,29.559,0.57451977,-0.01023262,-0.02871183,-0.81792295
'00:11:17.804,0.060059,0.029297,1.002441,0.426829,1.463415,-0.609756,-4.806250,18.031250,19.931250,29.589,0.57451023,-0.01020917,-0.02870768,-0.81793009
'00:11:17.814,0.059570,0.027344,1.002930,0.487805,1.463415,-0.609756,-4.806250,18.031250,19.931250,29.544,0.57450127,-0.01018806,-0.02869479,-0.81793710
'00:11:17.824,0.060547,0.028809,1.003418,0.365854,1.463415,-0.548781,-4.687500,17.943750,19.800001,29.589,0.57450294,-0.01017878,-0.02869288,-0.81793611
'00:11:17.834,0.061523,0.028320,1.003906,0.426829,1.402439,-0.548781,-4.687500,17.943750,19.800001,29.544,0.57450460,-0.01017823,-0.02869929,-0.81793473
'00:11:17.844,0.060059,0.028809,1.003418,0.304878,1.341463,-0.548781,-4.587500,17.787500,19.668751,29.544,0.57450989,-0.01018193,-0.02870169,-0.81793088
'00:11:17.854,0.060547,0.029297,1.002930,0.243902,1.280488,-0.609756,-4.587500,17.787500,19.668751,29.559,0.57451045,-0.01019366,-0.02870774,-0.81793013
'00:11:17.864,0.060059,0.029297,1.003418,0.304878,1.280488,-0.548781,-4.531250,17.787500,19.656250,29.559,0.57451942,-0.01020297,-0.02872033,-0.81792327
'00:11:17.874,0.060059,0.028809,1.003418,0.365854,1.341463,-0.548781,-4.531250,17.787500,19.656250,29.574,0.57452863,-0.01020668,-0.02873114,-0.81791638
'00:11:17.884,0.060547,0.028809,1.004883,0.304878,1.341463,-0.609756,-4.556250,17.718750,19.631250,29.544,0.57453015,-0.01021303,-0.02873527,-0.81791508
'00:11:17.894,0.059570,0.029785,1.003418,0.365854,1.402439,-0.609756,-4.556250,17.718750,19.631250,29.544,0.57453168,-0.01020272,-0.02874294,-0.81791387
'00:11:17.904,0.059082,0.028320,1.001953,0.365854,1.280488,-0.609756,-4.825000,18.087500,19.881250,29.559,0.57452203,-0.01019385,-0.02873395,-0.81792107
'00:11:17.914,0.059082,0.028320,1.001953,0.365854,1.280488,-0.609756,-4.825000,18.087500,19.881250,29.559,0.57451244,-0.01018515,-0.02872515,-0.81792822
'00:11:17.925,0.061035,0.028320,1.003418,0.304878,1.341463,-0.609756,-4.737500,18.068750,19.918751,29.574,0.57450790,-0.01019158,-0.02872210,-0.81793145
'00:11:17.934,0.061035,0.028320,1.003418,0.304878,1.341463,-0.609756,-4.737500,18.068750,19.918751,29.574,0.57450418,-0.01019677,-0.02871965,-0.81793408
'00:11:17.944,0.060547,0.028320,1.003418,0.365854,1.341463,-0.609756,-4.618750,17.756250,19.675001,29.544,0.57450227,-0.01019929,-0.02872201,-0.81793531
'00:11:17.954,0.061523,0.027344,1.003418,0.365854,1.341463,-0.548781,-4.618750,17.756250,19.675001,29.574,0.57450486,-0.01021133,-0.02872256,-0.81793332
'00:11:17.964,0.060059,0.028809,1.003418,0.365854,1.341463,-0.609756,-4.556250,17.743750,19.693750,29.574,0.57450684,-0.01021273,-0.02873033,-0.81793164
'00:11:17.974,0.060547,0.028809,1.004883,0.365854,1.341463,-0.548781,-4.556250,17.743750,19.693750,29.514,0.57451313,-0.01021667,-0.02873926,-0.81792686
'00:11:17.984,0.060059,0.029297,1.002930,0.365854,1.341463,-0.609756,-4.587500,17.762501,19.681250,29.574,0.57451321,-0.01021429,-0.02874771,-0.81792653
'00:11:17.994,0.061035,0.029297,1.004883,0.304878,1.341463,-0.609756,-4.625000,17.887501,19.731251,29.529,0.57451321,-0.01021946,-0.02875454,-0.81792622
'00:11:18.005,0.060547,0.028320,1.003906,0.304878,1.280488,-0.609756,-4.625000,17.887501,19.731251,29.574,0.57451327,-0.01023141,-0.02875743,-0.81792593
'00:11:18.015,0.060547,0.029785,1.003906,0.304878,1.219512,-0.548781,-4.868750,18.181250,19.937500,29.559,0.57450634,-0.01023035,-0.02875882,-0.81793076
'00:11:18.024,0.060059,0.027832,1.004395,0.304878,1.280488,-0.548781,-4.868750,18.181250,19.937500,29.559,0.57450065,-0.01022995,-0.02874555,-0.81793523
'00:11:18.034,0.059082,0.027832,1.002930,0.304878,1.280488,-0.548781,-4.568750,17.812500,19.700001,29.574,0.57450761,-0.01023729,-0.02874279,-0.81793035
'00:11:18.044,0.059570,0.028320,1.003418,0.304878,1.341463,-0.548781,-4.568750,17.812500,19.700001,29.574,0.57451458,-0.01024082,-0.02874157,-0.81792545
'00:11:18.054,0.060059,0.027832,1.003906,0.243902,1.219512,-0.548781,-4.575000,17.768751,19.612501,29.559,0.57452018,-0.01025943,-0.02873977,-0.81792135
'00:11:18.064,0.060547,0.028809,1.003906,0.243902,1.280488,-0.609756,-4.575000,17.768751,19.612501,29.544,0.57452130,-0.01027201,-0.02874250,-0.81792031
'00:11:18.074,0.060547,0.028320,1.003418,0.243902,1.219512,-0.548781,-4.556250,17.756250,19.737501,29.574,0.57452718,-0.01029237,-0.02874644,-0.81791578
'00:11:18.085,0.060547,0.028809,1.003906,0.304878,1.280488,-0.548781,-4.556250,17.756250,19.737501,29.589,0.57453370,-0.01030394,-0.02875495,-0.81791076
'00:11:18.094,0.060059,0.028809,1.003418,0.243902,1.280488,-0.548781,-4.862500,18.131250,19.906250,29.574,0.57452706,-0.01030160,-0.02874238,-0.81791589
'00:11:18.104,0.059570,0.028320,1.004883,0.243902,1.219512,-0.609756,-4.862500,18.131250,19.906250,29.559,0.57451536,-0.01030219,-0.02872651,-0.81792466
'00:11:18.114,0.059570,0.027832,1.004395,0.243902,1.219512,-0.548781,-4.768750,18.031250,19.843750,29.574,0.57451249,-0.01030914,-0.02871322,-0.81792706
'00:11:18.124,0.060547,0.027832,1.003418,0.304878,1.280488,-0.548781,-4.768750,18.031250,19.843750,29.589,0.57450981,-0.01031425,-0.02870568,-0.81792914
'00:11:18.134,0.060547,0.028320,1.004883,0.365854,1.280488,-0.609756,-4.650000,17.843750,19.750000,29.604,0.57450706,-0.01031839,-0.02870990,-0.81793087
'00:11:18.144,0.061035,0.028809,1.004395,0.365854,1.341463,-0.548781,-4.650000,17.843750,19.750000,29.544,0.57450866,-0.01031914,-0.02871589,-0.81792953
'00:11:18.154,0.061035,0.028809,1.002441,0.243902,1.280488,-0.548781,-4.600000,17.718750,19.675001,29.544,0.57451091,-0.01033203,-0.02871815,-0.81792770
'00:11:18.164,0.061523,0.028320,1.002930,0.365854,1.280488,-0.609756,-4.600000,17.718750,19.675001,29.604,0.57450898,-0.01034306,-0.02872802,-0.81792858
'00:11:18.174,0.060547,0.028320,1.003418,0.426829,1.341463,-0.609756,-4.550000,17.775000,19.656250,29.589,0.57451213,-0.01034477,-0.02874024,-0.81792591
'00:11:18.184,0.061035,0.028320,1.003418,0.426829,1.402439,-0.548781,-4.550000,17.775000,19.656250,29.574,0.57451972,-0.01034497,-0.02875107,-0.81792020
'00:11:18.194,0.061523,0.028320,1.003418,0.365854,1.402439,-0.609756,-4.556250,17.750000,19.656250,29.559,0.57452183,-0.01035004,-0.02875828,-0.81791840
'00:11:18.204,0.060059,0.028320,1.003418,0.304878,1.341463,-0.548781,-4.556250,17.750000,19.656250,29.574,0.57452813,-0.01035434,-0.02875816,-0.81791392
'00:11:18.214,0.060059,0.028809,1.003906,0.426829,1.341463,-0.609756,-4.875000,18.262501,20.006250,29.529,0.57451833,-0.01033845,-0.02875574,-0.81792109
'00:11:18.224,0.060059,0.027344,1.003906,0.365854,1.402439,-0.548781,-4.875000,18.262501,20.006250,29.604,0.57451335,-0.01032750,-0.02873772,-0.81792536
'00:11:18.234,0.061035,0.028320,1.003418,0.426829,1.402439,-0.609756,-4.862500,18.212500,20.000000,29.604,0.57450365,-0.01031523,-0.02873374,-0.81793247
'00:11:18.247,0.059082,0.028809,1.003906,0.365854,1.341463,-0.548781,-4.537500,17.731251,19.643751,29.559,0.57451328,-0.01030897,-0.02873968,-0.81792557
'00:11:18.254,0.059570,0.028320,1.004395,0.365854,1.280488,-0.548781,-4.537500,17.731251,19.643751,29.544,0.57451841,-0.01031193,-0.02874419,-0.81792178
'00:11:18.264,0.060547,0.028320,1.004395,0.304878,1.341463,-0.609756,-4.568750,17.756250,19.768751,29.544,0.57451924,-0.01031884,-0.02874486,-0.81792108
'00:11:18.274,0.060547,0.028320,1.003906,0.426829,1.402439,-0.609756,-4.568750,17.756250,19.768751,29.574,0.57452031,-0.01031530,-0.02875135,-0.81792015
'00:11:18.285,0.060547,0.027344,1.003418,0.487805,1.463415,-0.609756,-4.606250,17.756250,19.556250,29.604,0.57452004,-0.01030448,-0.02875120,-0.81792048
'00:11:18.294,0.060059,0.027832,1.002930,0.548781,1.524390,-0.609756,-4.606250,17.756250,19.556250,29.635,0.57451994,-0.01028499,-0.02875320,-0.81792072
'00:11:18.304,0.060547,0.027832,1.003418,0.487805,1.524390,-0.609756,-4.956250,18.312500,20.006250,29.544,0.57450674,-0.01025665,-0.02873798,-0.81793089
'00:11:18.314,0.060547,0.028809,1.002930,0.426829,1.463415,-0.609756,-4.956250,18.312500,20.006250,29.529,0.57449324,-0.01023248,-0.02872745,-0.81794104
'00:11:18.327,0.059570,0.028320,1.003418,0.487805,1.402439,-0.609756,-5.006250,18.418751,20.131250,29.514,0.57447403,-0.01019714,-0.02871295,-0.81795549
'00:11:18.334,0.059082,0.028809,1.002930,0.304878,1.341463,-0.609756,-5.006250,18.418751,20.131250,29.604,0.57446349,-0.01018485,-0.02869911,-0.81796352
'00:11:18.344,0.059082,0.029785,1.004395,0.304878,1.280488,-0.548781,-4.587500,17.787500,19.756250,29.589,0.57446822,-0.01018344,-0.02870583,-0.81795999
'00:11:18.354,0.060547,0.028320,1.003906,0.365854,1.280488,-0.548781,-4.587500,17.787500,19.756250,29.559,0.57447322,-0.01019332,-0.02871437,-0.81795605
'00:11:18.365,0.060059,0.028809,1.003418,0.365854,1.280488,-0.548781,-4.600000,17.850000,19.700001,29.604,0.57447942,-0.01019876,-0.02872538,-0.81795124
'00:11:18.374,0.060547,0.027832,1.003906,0.365854,1.341463,-0.548781,-4.600000,17.850000,19.700001,29.544,0.57448476,-0.01020511,-0.02872797,-0.81794732
'00:11:18.384,0.060547,0.028320,1.003418,0.304878,1.280488,-0.548781,-4.562500,17.793751,19.600000,29.604,0.57449212,-0.01021893,-0.02873439,-0.81794175
'00:11:18.394,0.061035,0.028320,1.004395,0.304878,1.280488,-0.548781,-4.562500,17.793751,19.600000,29.574,0.57449940,-0.01023501,-0.02874220,-0.81793616
