# FW/GUI: v9.6.1-multi17-dual (PyQt5)
# StartTime: 2026-04-03 16:19:17
# Slot: 13
# DeviceID: 13
# Label: EMG13
# IP: 192.168.137.206
# TCP: 3333
# DeviceFW: EMG_FW_v9.6_MULTI17_DUALCH_RUNTIMECFG_CHEN
# EMG column notes: EMG_t_s=seconds since this Start; sample_idx=device sample index (ADS frame index); fs=sample rate (SPS); gain=gain; flags=0x01(TEST) 0x02(SHORT) 0x04(RLD); emg_valid=1 valid / 0 invalid (spike-guard decision); ch1_raw_uV=raw uV (after spike guard); ch1_filt_uV=filtered uV; ch1_env_uV=envelope (RMS) uV
EMG_t_s,sample_idx,fs,gain,flags,emg_valid,ch1_raw_uV,ch1_filt_uV,ch1_env_uV,ch2_raw_uV,ch2_filt_uV,ch2_env_uV
0.000000,613051,1000.00,12,0,1,1100.747,-1.712,3.232,985.592,0.689,0.870
0.001000,613052,1000.00,12,0,1,1095.775,-5.393,3.280,984.007,-1.707,0.900
0.002000,613053,1000.00,12,0,1,1095.247,-6.048,3.390,985.688,0.166,0.900
0.003000,613054,1000.00,12,0,1,1094.406,-3.996,3.399,983.743,-0.857,0.903
0.004000,613055,1000.00,12,0,1,1094.478,-2.846,3.276,986.433,0.346,0.901
0.005000,613056,1000.00,12,0,1,1097.048,1.525,3.069,986.961,2.331,0.958
0.006000,613057,1000.00,12,0,1,1095.126,2.047,3.063,985.904,0.121,0.958
0.007000,613058,1000.00,12,0,1,1091.235,-0.714,3.065,986.409,0.818,0.963
0.008000,613059,1000.00,12,0,1,1090.514,0.014,3.052,987.081,1.074,0.971
0.009000,613060,1000.00,12,0,1,1089.313,0.298,3.052,985.977,0.163,0.970
0.010000,613061,1000.00,12,0,1,1089.313,0.716,3.033,986.625,0.091,0.967
0.011000,613062,1000.00,12,0,1,1089.193,1.114,3.007,985.160,-0.652,0.965
0.012000,613063,1000.00,12,0,1,1090.274,1.444,3.014,984.055,-2.203,1.010
0.013000,613064,1000.00,12,0,1,1091.956,2.343,3.022,985.400,-0.786,0.968
0.014000,613065,1000.00,12,0,1,1089.722,-0.368,2.991,984.968,-0.624,0.972
0.015000,613066,1000.00,12,0,1,1090.394,-1.912,2.881,985.784,-0.480,0.907
0.016000,613067,1000.00,12,0,1,1093.901,0.644,2.765,986.913,1.075,0.894
0.017000,613068,1000.00,12,0,1,1095.583,0.930,2.660,986.625,0.478,0.897
0.018000,613069,1000.00,12,0,1,1098.105,1.646,2.637,985.808,-0.209,0.897
0.019000,613070,1000.00,12,0,1,1098.489,1.444,2.641,986.241,-0.137,0.888
0.020000,613071,1000.00,12,0,1,1099.258,0.788,2.640,985.208,-0.539,0.880
0.021000,613072,1000.00,12,0,1,1100.339,1.848,2.652,987.105,0.405,0.878
0.022000,613073,1000.00,12,0,1,1096.808,-0.808,2.654,987.226,1.441,0.841
0.023000,613074,1000.00,12,0,1,1093.949,-3.173,2.690,984.775,-1.249,0.858
0.024000,613075,1000.00,12,0,1,1094.526,-1.134,2.694,984.271,-1.734,0.868
0.025000,613076,1000.00,12,0,1,1094.238,0.469,2.693,985.664,-0.194,0.868
0.026000,613077,1000.00,12,0,1,1093.517,1.098,2.640,986.745,0.929,0.867
0.027000,613078,1000.00,12,0,1,1094.814,3.307,2.568,987.250,1.334,0.885
0.028000,613079,1000.00,12,0,1,1090.923,1.627,2.525,988.018,1.627,0.914
0.029000,613080,1000.00,12,0,1,1090.394,0.368,2.524,987.586,1.249,0.930
0.030000,613081,1000.00,12,0,1,1089.386,1.186,2.526,984.968,-1.335,0.937
0.031000,613082,1000.00,12,0,1,1084.605,-3.326,2.566,985.304,-1.502,0.961
0.032000,613083,1000.00,12,0,1,1084.942,-3.585,2.613,985.352,-0.743,0.960
0.033000,613084,1000.00,12,0,1,1090.731,1.530,2.618,984.223,-1.861,0.993
0.034000,613085,1000.00,12,0,1,1095.295,4.805,2.698,983.959,-1.878,1.028
0.035000,613086,1000.00,12,0,1,1095.126,3.186,2.722,985.136,-0.655,1.027
0.036000,613087,1000.00,12,0,1,1095.535,0.917,2.693,985.880,0.344,1.027
0.037000,613088,1000.00,12,0,1,1096.400,0.496,2.594,984.751,-0.500,1.027
0.038000,613089,1000.00,12,0,1,1096.616,-0.896,2.581,986.073,0.185,1.005
0.039000,613090,1000.00,12,0,1,1099.618,0.571,2.441,985.232,0.327,1.006
0.040000,613091,1000.00,12,0,1,1098.489,-0.159,2.225,985.472,-0.330,1.002
0.041000,613092,1000.00,12,0,1,1093.613,-4.956,2.297,987.057,1.614,1.026
0.042000,613093,1000.00,12,0,1,1090.082,-7.208,2.511,986.985,1.386,1.045
0.043000,613094,1000.00,12,0,1,1091.307,-4.760,2.598,984.367,-0.853,1.050
0.044000,613095,1000.00,12,0,1,1094.742,0.526,2.575,983.839,-1.741,1.076
0.045000,613096,1000.00,12,0,1,1092.292,0.665,2.527,984.631,-0.470,1.075
0.046000,613097,1000.00,12,0,1,1094.478,2.443,2.543,982.229,-1.990,1.110
0.047000,613098,1000.00,12,0,1,1096.616,6.712,2.706,981.581,-2.889,1.179
0.048000,613099,1000.00,12,0,1,1090.322,1.688,2.710,985.064,0.765,1.177
0.049000,613100,1000.00,12,0,1,1085.326,-3.023,2.743,985.424,1.759,1.189
0.050000,613101,1000.00,12,0,1,1082.660,-4.071,2.792,984.679,0.525,1.187
0.051000,613102,1000.00,12,0,1,1086.047,-1.315,2.693,985.904,1.461,1.180
0.052000,613103,1000.00,12,0,1,1086.887,0.984,2.557,985.904,1.578,1.201
0.053000,613104,1000.00,12,0,1,1087.080,-0.526,2.495,984.920,0.285,1.196
0.054000,613105,1000.00,12,0,1,1087.392,-0.429,2.463,986.241,1.088,1.204
0.055000,613106,1000.00,12,0,1,1092.580,1.966,2.469,985.856,1.084,1.169
0.056000,613107,1000.00,12,0,1,1093.517,2.839,2.485,986.121,0.564,1.171
0.057000,613108,1000.00,12,0,1,1095.631,1.617,2.493,988.114,2.320,1.211
0.058000,613109,1000.00,12,0,1,1096.856,2.316,2.515,986.193,0.819,1.207
0.059000,613110,1000.00,12,0,1,1092.556,-2.569,2.540,986.577,0.001,1.206
0.060000,613111,1000.00,12,0,1,1089.938,-5.795,2.667,987.778,1.672,1.229
0.061000,613112,1000.00,12,0,1,1094.094,-1.580,2.672,984.415,-1.317,1.240
0.062000,613113,1000.00,12,0,1,1095.895,1.537,2.673,985.952,-0.931,1.207
0.063000,613114,1000.00,12,0,1,1093.853,0.413,2.653,986.529,0.905,1.209
0.064000,613115,1000.00,12,0,1,1096.279,2.660,2.679,985.664,-0.620,1.209
0.065000,613116,1000.00,12,0,1,1092.124,1.803,2.678,989.051,2.188,1.246
0.066000,613117,1000.00,12,0,1,1080.186,-8.110,2.911,988.018,1.984,1.268
0.067000,613118,1000.00,12,0,1,1081.771,-6.132,3.035,985.400,-1.464,1.283
0.068000,613119,1000.00,12,0,1,1082.035,-1.263,3.031,984.343,-2.069,1.316
0.069000,613120,1000.00,12,0,1,1079.921,-2.901,3.052,984.487,-1.991,1.346
0.070000,613121,1000.00,12,0,1,1076.582,-3.575,3.092,985.256,-0.892,1.349
0.071000,613122,1000.00,12,0,1,1079.297,-1.726,3.090,985.064,-0.858,1.354
0.072000,613123,1000.00,12,0,1,1084.990,4.493,3.153,985.040,-0.947,1.345
0.073000,613124,1000.00,12,0,1,1089.794,7.505,3.296,985.592,-0.311,1.334
0.074000,613125,1000.00,12,0,1,1090.370,6.639,3.424,986.097,0.117,1.311
0.075000,613126,1000.00,12,0,1,1092.556,5.539,3.512,985.736,-0.106,1.311
0.076000,613127,1000.00,12,0,1,1091.547,3.317,3.539,986.481,0.195,1.305
0.077000,613128,1000.00,12,0,1,1088.257,-1.882,3.518,984.631,-0.827,1.296
0.078000,613129,1000.00,12,0,1,1092.676,-0.050,3.511,984.223,-1.872,1.303
0.079000,613130,1000.00,12,0,1,1095.078,2.779,3.532,985.904,0.224,1.291
0.080000,613131,1000.00,12,0,1,1094.646,0.709,3.530,988.691,2.478,1.325
0.081000,613132,1000.00,12,0,1,1091.740,-1.198,3.502,986.721,1.341,1.321
0.082000,613133,1000.00,12,0,1,1087.248,-5.115,3.540,985.448,-0.890,1.323
0.083000,613134,1000.00,12,0,1,1087.728,-3.584,3.570,984.968,-0.667,1.300
0.084000,613135,1000.00,12,0,1,1086.815,-1.748,3.513,986.289,0.142,1.273
0.085000,613136,1000.00,12,0,1,1084.341,-2.566,3.503,986.409,0.878,1.275
0.086000,613137,1000.00,12,0,1,1082.251,-2.223,3.515,986.649,0.621,1.277
0.087000,613138,1000.00,12,0,1,1079.825,-2.537,3.532,985.304,-0.192,1.276
0.088000,613139,1000.00,12,0,1,1078.648,-1.938,3.541,984.391,-1.341,1.290
0.089000,613140,1000.00,12,0,1,1076.462,-2.106,3.552,986.985,0.833,1.294
0.090000,613141,1000.00,12,0,1,1076.582,-1.552,3.559,987.970,2.274,1.333
0.091000,613142,1000.00,12,0,1,1076.558,-0.409,3.490,987.922,1.376,1.327
0.092000,613143,1000.00,12,0,1,1080.186,1.814,3.347,985.712,-0.269,1.313
0.093000,613144,1000.00,12,0,1,1083.741,4.983,3.354,984.343,-2.272,1.347
0.094000,613145,1000.00,12,0,1,1088.449,6.740,3.486,983.983,-1.968,1.353
0.095000,613146,1000.00,12,0,1,1087.608,5.060,3.557,986.145,-0.371,1.352
0.096000,613147,1000.00,12,0,1,1084.894,-0.386,3.541,984.367,-0.787,1.327
0.097000,613148,1000.00,12,0,1,1087.560,0.247,3.412,984.944,-1.410,1.278
0.098000,613149,1000.00,12,0,1,1092.052,3.401,3.437,988.427,2.376,1.317
0.099000,613150,1000.00,12,0,1,1093.565,3.684,3.450,987.634,1.855,1.320
0.100000,613151,1000.00,12,0,1,1091.932,1.491,3.408,985.400,-0.817,1.323
0.101000,613152,1000.00,12,0,1,1088.593,-1.871,3.413,985.904,-0.412,1.308
0.102000,613153,1000.00,12,0,1,1089.914,-0.673,3.412,987.514,1.082,1.298
0.103000,613154,1000.00,12,0,1,1086.959,-1.014,3.414,984.487,-0.890,1.303
0.104000,613155,1000.00,12,0,1,1083.837,-3.424,3.448,986.601,-0.432,1.296
0.105000,613156,1000.00,12,0,1,1081.074,-3.295,3.468,988.307,2.598,1.338
0.106000,613157,1000.00,12,0,1,1084.990,0.848,3.447,985.256,-0.701,1.339
0.107000,613158,1000.00,12,0,1,1084.389,3.552,3.475,982.782,-2.934,1.363
0.108000,613159,1000.00,12,0,1,1080.041,-0.477,3.461,983.118,-2.405,1.400
0.109000,613160,1000.00,12,0,1,1078.864,-0.839,3.444,984.607,-0.569,1.403
0.110000,613161,1000.00,12,0,1,1078.961,-0.047,3.345,983.334,-1.000,1.390
0.111000,613162,1000.00,12,0,1,1074.925,-3.152,3.367,985.088,-0.201,1.378
0.112000,613163,1000.00,12,0,1,1077.880,-1.936,3.371,986.241,1.831,1.395
0.113000,613164,1000.00,12,0,1,1085.158,4.592,3.432,984.223,-0.425,1.391
0.114000,613165,1000.00,12,0,1,1093.205,9.666,3.675,985.520,0.247,1.389
0.115000,613166,1000.00,12,0,1,1099.690,12.781,4.088,986.889,1.894,1.380
0.116000,613167,1000.00,12,0,1,1093.493,5.274,3.994,988.162,2.337,1.391
0.117000,613168,1000.00,12,0,1,1084.653,-6.634,4.010,985.760,0.609,1.378
0.118000,613169,1000.00,12,0,1,1081.411,-9.931,4.245,986.217,-0.348,1.348
0.119000,613170,1000.00,12,0,1,1081.555,-9.488,4.433,985.448,0.088,1.318
0.120000,613171,1000.00,12,0,1,1084.293,-5.784,4.479,984.079,-1.834,1.337
0.121000,613172,1000.00,12,0,1,1085.566,-3.012,4.493,985.664,-0.152,1.332
0.122000,613173,1000.00,12,0,1,1088.401,0.199,4.448,983.094,-1.441,1.341
0.123000,613174,1000.00,12,0,1,1092.076,4.920,4.375,985.184,-0.820,1.345
0.124000,613175,1000.00,12,0,1,1084.365,0.198,4.273,985.928,1.655,1.365
0.125000,613176,1000.00,12,0,1,1076.631,-6.823,4.310,987.514,1.638,1.385
0.126000,613177,1000.00,12,0,1,1081.555,-0.819,4.286,987.178,2.375,1.424
0.127000,613178,1000.00,12,0,1,1082.083,3.158,4.301,986.265,0.409,1.421
0.128000,613179,1000.00,12,0,1,1075.021,-2.634,4.317,985.856,0.322,1.397
0.129000,613180,1000.00,12,0,1,1071.394,-5.188,4.362,987.754,1.397,1.410
0.130000,613181,1000.00,12,0,1,1071.106,-4.067,4.398,986.241,0.655,1.369
0.131000,613182,1000.00,12,0,1,1073.460,-1.445,4.400,985.520,-0.972,1.363
0.132000,613183,1000.00,12,0,1,1076.823,1.781,4.347,985.400,-0.659,1.360
0.133000,613184,1000.00,12,0,1,1075.550,0.412,4.318,986.337,-0.142,1.357
0.134000,613185,1000.00,12,0,1,1079.177,1.233,4.314,986.385,0.141,1.357
0.135000,613186,1000.00,12,0,1,1081.194,3.112,4.321,984.800,-1.290,1.364
0.136000,613187,1000.00,12,0,1,1082.083,1.372,4.314,985.664,-1.010,1.368
0.137000,613188,1000.00,12,0,1,1085.590,3.240,4.324,985.496,-0.308,1.369
0.138000,613189,1000.00,12,0,1,1088.569,4.633,4.365,985.376,-1.011,1.363
0.139000,613190,1000.00,12,0,1,1087.992,3.105,4.376,986.193,0.186,1.358
0.140000,613191,1000.00,12,0,1,1088.257,2.130,4.381,987.922,1.365,1.334
0.141000,613192,1000.00,12,0,1,1087.152,1.449,4.386,986.625,0.754,1.324
0.142000,613193,1000.00,12,0,1,1086.167,0.570,4.379,986.025,-0.626,1.326
0.143000,613194,1000.00,12,0,1,1088.088,2.898,4.341,987.562,1.008,1.294
0.144000,613195,1000.00,12,0,1,1082.179,0.022,4.235,986.961,0.685,1.268
0.145000,613196,1000.00,12,0,1,1081.074,-1.784,4.182,986.889,0.079,1.267
0.146000,613197,1000.00,12,0,1,1083.693,3.414,4.209,985.784,-0.377,1.263
0.147000,613198,1000.00,12,0,1,1077.784,-0.345,4.210,986.361,-0.513,1.249
0.148000,613199,1000.00,12,0,1,1073.027,-4.505,4.230,986.601,0.415,1.205
0.149000,613200,1000.00,12,0,1,1071.634,-4.010,4.236,987.442,0.549,1.178
0.150000,613201,1000.00,12,0,1,1072.139,-2.948,4.251,985.304,-0.621,1.176
0.151000,613202,1000.00,12,0,1,1074.613,-0.173,4.243,983.839,-2.661,1.233
0.152000,613203,1000.00,12,0,1,1076.799,1.408,4.247,986.625,0.045,1.224
0.153000,613204,1000.00,12,0,1,1079.945,2.900,4.264,988.475,2.132,1.254
0.154000,613205,1000.00,12,0,1,1085.086,5.623,4.311,986.553,0.212,1.253
0.155000,613206,1000.00,12,0,1,1088.040,6.352,4.379,984.583,-1.889,1.227
0.156000,613207,1000.00,12,0,1,1083.116,0.138,4.377,985.977,-0.873,1.230
0.157000,613208,1000.00,12,0,1,1081.627,-4.206,4.389,986.193,0.064,1.157
0.158000,613209,1000.00,12,0,1,1084.101,-2.088,4.398,987.346,0.401,1.108
0.159000,613210,1000.00,12,0,1,1086.167,-0.782,4.398,986.505,0.395,1.106
0.160000,613211,1000.00,12,0,1,1088.881,1.413,4.402,983.406,-2.722,1.163
0.161000,613212,1000.00,12,0,1,1090.370,2.977,4.400,983.743,-2.421,1.212
0.162000,613213,1000.00,12,0,1,1091.403,3.740,4.423,986.673,0.732,1.188
0.163000,613214,1000.00,12,0,1,1089.073,2.653,4.391,986.985,1.462,1.205
0.164000,613215,1000.00,12,0,1,1083.885,-1.461,4.178,988.355,2.006,1.237
0.165000,613216,1000.00,12,0,1,1083.741,-0.849,3.769,987.418,1.660,1.230
0.166000,613217,1000.00,12,0,1,1079.705,-1.591,3.701,986.241,-0.186,1.185
0.167000,613218,1000.00,12,0,1,1077.760,-3.203,3.609,986.529,0.212,1.183
0.168000,613219,1000.00,12,0,1,1078.792,-0.133,3.324,985.808,-0.265,1.182
0.169000,613220,1000.00,12,0,1,1073.604,-3.263,3.076,985.712,-0.605,1.185
0.170000,613221,1000.00,12,0,1,1070.313,-6.466,3.103,986.865,0.610,1.160
0.171000,613222,1000.00,12,0,1,1073.484,-2.853,3.100,986.889,0.664,1.163
0.172000,613223,1000.00,12,0,1,1075.045,-0.930,3.103,984.583,-1.263,1.159
0.173000,613224,1000.00,12,0,1,1078.192,0.492,3.025,985.520,-1.074,1.163
0.174000,613225,1000.00,12,0,1,1083.476,4.071,3.079,985.880,0.169,1.140
0.175000,613226,1000.00,12,0,1,1086.863,5.258,3.017,986.361,-0.030,1.116
0.176000,613227,1000.00,12,0,1,1087.080,3.242,3.049,986.721,0.677,1.069
0.177000,613228,1000.00,12,0,1,1087.080,0.972,3.020,987.490,0.878,1.074
0.178000,613229,1000.00,12,0,1,1087.560,-0.015,2.997,988.979,2.094,1.113
0.179000,613230,1000.00,12,0,1,1096.448,5.677,3.014,987.033,0.515,1.098
0.180000,613231,1000.00,12,0,1,1086.599,-0.226,2.959,986.985,-0.558,1.097
0.181000,613232,1000.00,12,0,1,1084.629,-6.789,3.104,987.154,0.290,1.089
0.182000,613233,1000.00,12,0,1,1084.557,-1.947,3.106,985.952,-1.109,1.096
0.183000,613234,1000.00,12,0,1,1081.363,-4.959,3.184,986.865,-0.327,1.097
0.184000,613235,1000.00,12,0,1,1081.122,-2.615,3.200,987.322,0.468,1.099
0.185000,613236,1000.00,12,0,1,1079.801,-1.367,3.176,986.577,-0.298,1.085
0.186000,613237,1000.00,12,0,1,1082.275,1.607,3.178,986.673,-0.255,1.076
0.187000,613238,1000.00,12,0,1,1084.942,6.392,3.272,987.154,0.278,1.076
0.188000,613239,1000.00,12,0,1,1082.564,4.229,3.261,986.673,-0.027,1.066
0.189000,613240,1000.00,12,0,1,1077.591,0.236,3.232,985.352,-1.200,1.079
0.190000,613241,1000.00,12,0,1,1076.198,-1.996,3.230,984.391,-1.945,1.097
0.191000,613242,1000.00,12,0,1,1079.705,1.286,3.229,986.913,0.132,1.092
0.192000,613243,1000.00,12,0,1,1081.627,2.374,3.245,988.307,2.015,1.125
0.193000,613244,1000.00,12,0,1,1080.978,0.395,3.220,989.147,2.007,1.151
0.194000,613245,1000.00,12,0,1,1081.387,-1.161,3.224,986.649,0.147,1.147
0.195000,613246,1000.00,12,0,1,1084.053,-0.338,3.214,985.544,-1.858,1.177
0.196000,613247,1000.00,12,0,1,1086.311,0.320,3.178,985.304,-1.390,1.192
0.197000,613248,1000.00,12,0,1,1088.857,0.836,3.180,986.385,-0.722,1.194
0.198000,613249,1000.00,12,0,1,1090.442,1.219,3.120,986.649,0.069,1.193
0.199000,613250,1000.00,12,0,1,1088.833,-1.017,3.072,986.361,-0.397,1.192
0.200000,613251,1000.00,12,0,1,1089.746,-1.133,3.047,984.463,-1.705,1.213
0.201000,613252,1000.00,12,0,1,1090.394,0.365,3.048,984.079,-2.191,1.194
0.202000,613253,1000.00,12,0,1,1087.728,-1.375,3.047,986.313,0.136,1.194
0.203000,613254,1000.00,12,0,1,1082.564,-4.536,3.087,985.040,-0.103,1.155
0.204000,613255,1000.00,12,0,1,1081.531,-4.259,3.043,986.145,-0.084,1.155
0.205000,613256,1000.00,12,0,1,1082.972,-0.359,2.908,984.703,0.063,1.124
0.206000,613257,1000.00,12,0,1,1081.170,0.141,2.908,986.529,0.256,1.118
0.207000,613258,1000.00,12,0,1,1077.543,-1.781,2.858,987.706,2.645,1.178
0.208000,613259,1000.00,12,0,1,1074.589,-3.001,2.874,987.754,1.647,1.200
0.209000,613260,1000.00,12,0,1,1075.165,-1.732,2.882,987.370,1.487,1.217
0.210000,613261,1000.00,12,0,1,1078.120,1.722,2.885,984.223,-1.363,1.170
0.211000,613262,1000.00,12,0,1,1077.111,1.066,2.859,984.391,-1.897,1.151
0.212000,613263,1000.00,12,0,1,1074.493,-2.351,2.829,986.217,0.596,1.149
0.213000,613264,1000.00,12,0,1,1075.237,-2.704,2.830,986.529,0.656,1.134
0.214000,613265,1000.00,12,0,1,1079.249,-0.062,2.822,985.712,0.098,1.098
0.215000,613266,1000.00,12,0,1,1079.441,-0.410,2.820,986.241,0.056,1.073
0.216000,613267,1000.00,12,0,1,1081.699,-0.714,2.813,985.880,0.223,1.073
0.217000,613268,1000.00,12,0,1,1085.734,2.266,2.795,986.145,-0.091,1.073
0.218000,613269,1000.00,12,0,1,1087.272,2.479,2.817,985.112,-0.453,1.074
0.219000,613270,1000.00,12,0,1,1088.401,2.323,2.798,983.647,-2.028,1.108
0.220000,613271,1000.00,12,0,1,1092.580,5.139,2.742,982.830,-2.311,1.152
0.221000,613272,1000.00,12,0,1,1092.796,5.698,2.830,984.415,-0.823,1.154
0.222000,613273,1000.00,12,0,1,1088.377,1.460,2.834,985.352,0.683,1.145
0.223000,613274,1000.00,12,0,1,1081.891,-3.426,2.874,985.592,0.749,1.139
0.224000,613275,1000.00,12,0,1,1073.796,-8.626,3.069,986.961,1.802,1.167
0.225000,613276,1000.00,12,0,1,1073.988,-6.931,3.135,984.031,-0.165,1.168
0.226000,613277,1000.00,12,0,1,1076.510,-0.730,3.103,983.815,-1.512,1.183
0.227000,613278,1000.00,12,0,1,1078.985,2.692,3.123,985.448,0.935,1.184
0.228000,613279,1000.00,12,0,1,1079.801,5.037,3.203,985.760,0.951,1.154
0.229000,613280,1000.00,12,0,1,1076.174,2.015,3.114,987.154,1.995,1.186
0.230000,613281,1000.00,12,0,1,1079.441,3.392,3.151,986.457,1.551,1.203
0.231000,613282,1000.00,12,0,1,1078.696,3.848,3.050,987.850,1.733,1.227
0.232000,613283,1000.00,12,0,1,1076.270,-1.003,3.041,986.457,1.261,1.230
0.233000,613284,1000.00,12,0,1,1076.558,-1.420,2.965,986.121,-0.363,1.231
0.234000,613285,1000.00,12,0,1,1078.264,-1.503,2.950,985.977,0.222,1.229
0.235000,613286,1000.00,12,0,1,1081.218,-0.144,2.944,986.745,0.196,1.229
0.236000,613287,1000.00,12,0,1,1080.906,-1.316,2.941,986.985,0.821,1.234
0.237000,613288,1000.00,12,0,1,1081.675,-2.576,2.822,988.379,1.382,1.249
0.238000,613289,1000.00,12,0,1,1087.752,1.990,2.772,985.328,-0.611,1.252
0.239000,613290,1000.00,12,0,1,1088.353,2.757,2.799,985.136,-2.027,1.273
0.240000,613291,1000.00,12,0,1,1088.785,1.511,2.793,986.697,0.261,1.243
0.241000,613292,1000.00,12,0,1,1089.722,2.891,2.817,985.856,-0.447,1.245
0.242000,613293,1000.00,12,0,1,1084.269,-1.091,2.801,986.649,-0.198,1.212
0.243000,613294,1000.00,12,0,1,1074.661,-8.481,3.047,986.961,0.663,1.182
0.244000,613295,1000.00,12,0,1,1069.929,-10.700,3.398,985.088,-1.292,1.196
0.245000,613296,1000.00,12,0,1,1071.826,-5.824,3.496,985.952,-0.711,1.171
0.246000,613297,1000.00,12,0,1,1074.349,-0.244,3.496,984.679,-1.090,1.164
0.247000,613298,1000.00,12,0,1,1073.364,1.004,3.497,985.904,-0.741,1.165
0.248000,613299,1000.00,12,0,1,1074.252,2.469,3.510,986.625,0.807,1.170
0.249000,613300,1000.00,12,0,1,1073.220,2.847,3.530,986.745,0.343,1.170
0.250000,613301,1000.00,12,0,1,1070.601,0.115,3.526,985.520,-0.381,1.146
0.251000,613302,1000.00,12,0,1,1074.301,2.380,3.542,985.520,-0.858,1.110
0.252000,613303,1000.00,12,0,1,1076.318,4.305,3.589,987.202,0.817,1.116
0.253000,613304,1000.00,12,0,1,1077.231,2.668,3.551,986.073,0.201,1.116
0.254000,613305,1000.00,12,0,1,1080.954,4.160,3.549,982.542,-3.139,1.201
0.255000,613306,1000.00,12,0,1,1085.134,5.653,3.637,983.214,-2.641,1.258
0.256000,613307,1000.00,12,0,1,1080.114,0.106,3.637,985.592,0.239,1.258
0.257000,613308,1000.00,12,0,1,1080.282,-3.382,3.660,986.265,1.090,1.211
0.258000,613309,1000.00,12,0,1,1082.035,-0.993,3.638,985.568,0.380,1.189
0.259000,613310,1000.00,12,0,1,1078.864,-4.292,3.680,986.961,1.241,1.184
0.260000,613311,1000.00,12,0,1,1079.393,-3.991,3.715,986.625,1.355,1.183
0.261000,613312,1000.00,12,0,1,1080.978,-0.791,3.714,985.136,-0.429,1.154
0.262000,613313,1000.00,12,0,1,1080.282,-0.397,3.699,985.280,-0.371,1.152
0.263000,613314,1000.00,12,0,1,1075.790,-2.264,3.693,984.920,-0.333,1.150
0.264000,613315,1000.00,12,0,1,1075.357,-1.966,3.704,986.673,0.749,1.154
0.265000,613316,1000.00,12,0,1,1076.462,1.938,3.713,985.280,0.434,1.156
0.266000,613317,1000.00,12,0,1,1075.502,2.319,3.726,984.391,-1.313,1.170
0.267000,613318,1000.00,12,0,1,1073.460,1.813,3.721,984.848,-0.245,1.171
0.268000,613319,1000.00,12,0,1,1072.739,1.627,3.712,985.112,-0.123,1.169
0.269000,613320,1000.00,12,0,1,1072.235,1.781,3.706,986.721,1.245,1.147
0.270000,613321,1000.00,12,0,1,1070.794,0.433,3.635,987.322,1.947,1.133
0.271000,613322,1000.00,12,0,1,1071.754,0.378,3.545,986.721,0.951,1.135
0.272000,613323,1000.00,12,0,1,1072.019,0.360,3.539,983.911,-1.314,1.146
0.273000,613324,1000.00,12,0,1,1070.769,-2.170,3.519,983.983,-1.951,1.174
0.274000,613325,1000.00,12,0,1,1076.919,1.208,3.305,987.490,1.659,1.170
0.275000,613326,1000.00,12,0,1,1081.723,5.050,3.236,986.673,1.391,1.186
0.276000,613327,1000.00,12,0,1,1082.684,3.334,3.269,984.992,-0.863,1.173
0.277000,613328,1000.00,12,0,1,1085.206,3.443,3.283,986.529,0.438,1.168
0.278000,613329,1000.00,12,0,1,1081.050,-0.631,3.206,985.280,-0.084,1.160
0.279000,613330,1000.00,12,0,1,1078.744,-4.769,3.264,986.529,0.066,1.125
0.280000,613331,1000.00,12,0,1,1083.044,-0.261,3.229,985.712,0.421,1.105
0.281000,613332,1000.00,12,0,1,1080.834,-0.527,3.183,985.184,-0.996,1.087
0.282000,613333,1000.00,12,0,1,1081.963,-0.223,3.180,984.463,-0.860,1.079
0.283000,613334,1000.00,12,0,1,1083.741,3.794,3.219,982.397,-2.707,1.144
0.284000,613335,1000.00,12,0,1,1079.993,1.339,3.217,983.622,-1.650,1.167
0.285000,613336,1000.00,12,0,1,1075.357,-1.679,3.226,984.247,-0.088,1.167
0.286000,613337,1000.00,12,0,1,1073.220,-2.192,3.236,985.664,0.626,1.164
0.287000,613338,1000.00,12,0,1,1070.818,-2.421,3.233,985.088,0.930,1.155
0.288000,613339,1000.00,12,0,1,1075.886,2.130,3.235,985.448,0.300,1.153
0.289000,613340,1000.00,12,0,1,1078.600,6.327,3.334,984.944,0.564,1.119
0.290000,613341,1000.00,12,0,1,1066.590,-4.120,3.378,984.607,-0.376,1.120
0.291000,613342,1000.00,12,0,1,1066.974,-7.101,3.500,985.784,0.848,1.125
0.292000,613343,1000.00,12,0,1,1070.818,-1.036,3.500,986.673,1.587,1.146
0.293000,613344,1000.00,12,0,1,1075.285,0.379,3.288,985.832,0.733,1.147
0.294000,613345,1000.00,12,0,1,1075.189,0.763,2.921,984.343,-0.755,1.138
0.295000,613346,1000.00,12,0,1,1077.856,-0.334,2.803,983.863,-1.296,1.148
0.296000,613347,1000.00,12,0,1,1080.041,1.500,2.811,987.466,1.713,1.163
0.297000,613348,1000.00,12,0,1,1085.158,3.257,2.845,985.280,0.877,1.165
0.298000,613349,1000.00,12,0,1,1086.551,4.365,2.890,986.265,-0.002,1.159
0.299000,613350,1000.00,12,0,1,1085.566,1.559,2.870,985.856,1.069,1.168
0.300000,613351,1000.00,12,0,1,1088.016,2.815,2.898,986.337,0.188,1.167
0.301000,613352,1000.00,12,0,1,1079.633,-2.531,2.900,984.031,-0.703,1.165
0.302000,613353,1000.00,12,0,1,1073.820,-9.158,3.117,984.199,-1.666,1.183
0.303000,613354,1000.00,12,0,1,1074.661,-4.793,3.168,986.241,0.966,1.191
0.304000,613355,1000.00,12,0,1,1075.958,-1.761,3.123,983.911,-0.701,1.109
0.305000,613356,1000.00,12,0,1,1070.313,-3.213,3.053,984.800,-0.959,1.053
0.306000,613357,1000.00,12,0,1,1067.719,-5.006,3.134,984.631,0.266,1.053
0.307000,613358,1000.00,12,0,1,1071.226,0.741,3.099,986.361,0.492,1.044
0.308000,613359,1000.00,12,0,1,1074.493,4.950,3.174,985.880,1.332,1.060
0.309000,613360,1000.00,12,0,1,1073.916,4.773,3.187,984.055,-1.371,1.063
0.310000,613361,1000.00,12,0,1,1068.223,-0.439,3.138,984.920,-0.373,1.047
0.311000,613362,1000.00,12,0,1,1067.695,-2.731,3.159,985.784,0.535,1.048
0.312000,613363,1000.00,12,0,1,1074.493,3.030,3.188,986.241,0.761,1.052
0.313000,613364,1000.00,12,0,1,1073.580,1.981,3.184,985.856,0.498,1.053
0.314000,613365,1000.00,12,0,1,1075.045,-0.075,3.172,985.856,0.066,1.048
0.315000,613366,1000.00,12,0,1,1074.949,-0.274,3.160,985.760,0.219,1.047
0.316000,613367,1000.00,12,0,1,1075.694,-2.206,3.159,985.592,-0.198,1.030
0.317000,613368,1000.00,12,0,1,1076.198,-1.797,3.158,984.872,-0.562,1.033
0.318000,613369,1000.00,12,0,1,1076.823,-2.296,3.167,984.103,-1.328,1.050
0.319000,613370,1000.00,12,0,1,1083.813,3.176,3.188,983.983,-1.157,1.048
0.320000,613371,1000.00,12,0,1,1083.933,4.851,3.261,984.391,-0.602,1.014
0.321000,613372,1000.00,12,0,1,1081.867,1.387,3.266,986.073,0.926,1.014
0.322000,613373,1000.00,12,0,1,1080.426,1.577,3.274,985.664,0.981,1.006
0.323000,613374,1000.00,12,0,1,1074.421,-2.631,3.280,985.472,0.218,0.968
0.324000,613375,1000.00,12,0,1,1074.901,-1.617,3.284,985.376,0.421,0.941
0.325000,613376,1000.00,12,0,1,1073.940,0.878,3.208,986.385,0.851,0.928
0.326000,613377,1000.00,12,0,1,1072.667,0.179,3.173,986.481,1.217,0.936
0.327000,613378,1000.00,12,0,1,1073.628,2.723,3.159,983.430,-1.559,0.960
0.328000,613379,1000.00,12,0,1,1072.835,2.702,3.181,983.334,-2.200,1.009
0.329000,613380,1000.00,12,0,1,1073.748,3.085,3.139,984.583,-0.314,1.010
0.330000,613381,1000.00,12,0,1,1070.145,0.507,3.139,983.887,-0.833,1.015
0.331000,613382,1000.00,12,0,1,1064.500,-5.859,3.246,984.151,-0.685,1.010
0.332000,613383,1000.00,12,0,1,1064.476,-6.347,3.368,985.544,0.709,1.008
0.333000,613384,1000.00,12,0,1,1069.424,-2.348,3.341,983.911,-0.330,0.933
0.334000,613385,1000.00,12,0,1,1073.388,0.771,3.338,984.343,-0.655,0.908
0.335000,613386,1000.00,12,0,1,1075.814,1.268,3.334,983.334,-0.564,0.912
0.336000,613387,1000.00,12,0,1,1077.423,1.212,3.324,984.319,-0.480,0.910
0.337000,613388,1000.00,12,0,1,1077.495,-0.041,3.306,985.016,1.047,0.912
0.338000,613389,1000.00,12,0,1,1078.744,-0.225,3.293,985.592,1.004,0.922
0.339000,613390,1000.00,12,0,1,1082.035,2.238,3.185,986.937,2.238,0.972
0.340000,613391,1000.00,12,0,1,1082.395,2.717,3.154,983.863,-0.120,0.971
0.341000,613392,1000.00,12,0,1,1076.270,-2.166,3.006,984.103,-1.124,0.976
0.342000,613393,1000.00,12,0,1,1073.099,-4.879,3.080,984.271,0.296,0.951
0.343000,613394,1000.00,12,0,1,1074.180,-1.603,3.088,983.550,-0.962,0.955
0.344000,613395,1000.00,12,0,1,1069.929,-2.589,3.108,983.719,-0.336,0.950
0.345000,613396,1000.00,12,0,1,1066.542,-4.346,3.168,984.751,0.426,0.934
0.346000,613397,1000.00,12,0,1,1069.785,0.654,3.162,984.175,0.327,0.904
0.347000,613398,1000.00,12,0,1,1070.265,3.479,3.167,984.872,0.397,0.897
0.348000,613399,1000.00,12,0,1,1067.623,1.513,3.114,985.328,1.143,0.911
0.349000,613400,1000.00,12,0,1,1065.245,-0.165,3.106,985.544,0.932,0.908
0.350000,613401,1000.00,12,0,1,1066.254,0.373,3.081,984.800,0.314,0.909
0.351000,613402,1000.00,12,0,1,1069.641,3.116,3.091,984.631,-0.183,0.904
0.352000,613403,1000.00,12,0,1,1069.857,2.565,2.830,984.944,0.140,0.873
0.353000,613404,1000.00,12,0,1,1070.842,1.183,2.753,983.671,-0.778,0.869
0.354000,613405,1000.00,12,0,1,1071.538,0.668,2.743,985.904,0.463,0.866
0.355000,613406,1000.00,12,0,1,1072.403,-0.656,2.707,984.151,0.212,0.856
0.356000,613407,1000.00,12,0,1,1074.901,0.221,2.613,984.968,-0.645,0.860
0.357000,613408,1000.00,12,0,1,1075.670,-0.044,2.611,983.791,-0.104,0.857
0.358000,613409,1000.00,12,0,1,1076.078,-0.838,2.518,983.671,-1.411,0.860
0.359000,613410,1000.00,12,0,1,1075.982,-0.973,2.430,983.046,-0.781,0.845
0.360000,613411,1000.00,12,0,1,1074.997,-1.726,2.441,983.142,-1.182,0.859
0.361000,613412,1000.00,12,0,1,1073.748,-1.920,2.426,984.055,0.164,0.856
0.362000,613413,1000.00,12,0,1,1075.237,0.256,2.388,985.112,1.100,0.864
0.363000,613414,1000.00,12,0,1,1068.391,-2.690,2.402,984.463,0.615,0.865
0.364000,613415,1000.00,12,0,1,1062.843,-7.277,2.613,984.343,0.238,0.866
0.365000,613416,1000.00,12,0,1,1069.088,0.592,2.614,984.511,0.376,0.867
0.366000,613417,1000.00,12,0,1,1074.036,7.863,2.823,984.703,0.549,0.870
0.367000,613418,1000.00,12,0,1,1065.941,2.070,2.827,985.472,0.932,0.876
0.368000,613419,1000.00,12,0,1,1060.441,-3.816,2.860,984.824,0.611,0.860
0.369000,613420,1000.00,12,0,1,1058.495,-3.755,2.874,985.064,0.139,0.845
0.370000,613421,1000.00,12,0,1,1060.104,-2.328,2.810,984.751,0.307,0.842
0.371000,613422,1000.00,12,0,1,1063.948,1.555,2.812,984.247,-0.602,0.836
0.372000,613423,1000.00,12,0,1,1066.254,2.923,2.833,985.088,0.235,0.825
0.373000,613424,1000.00,12,0,1,1070.241,4.374,2.876,984.848,0.180,0.825
0.374000,613425,1000.00,12,0,1,1071.754,4.550,2.938,985.304,0.216,0.823
0.375000,613426,1000.00,12,0,1,1072.019,1.921,2.948,984.800,0.141,0.814
0.376000,613427,1000.00,12,0,1,1073.460,1.592,2.957,983.430,-1.316,0.817
0.377000,613428,1000.00,12,0,1,1071.730,-1.097,2.936,985.280,0.145,0.787
0.378000,613429,1000.00,12,0,1,1073.364,-1.311,2.917,984.103,-0.014,0.723
0.379000,613430,1000.00,12,0,1,1076.510,1.815,2.895,984.920,-0.313,0.723
0.380000,613431,1000.00,12,0,1,1081.074,5.106,2.983,983.983,0.005,0.714
0.381000,613432,1000.00,12,0,1,1082.299,6.819,3.024,984.055,-0.876,0.718
0.382000,613433,1000.00,12,0,1,1076.270,1.559,2.896,985.496,1.009,0.725
0.383000,613434,1000.00,12,0,1,1067.022,-5.919,2.996,984.920,0.466,0.727
0.384000,613435,1000.00,12,0,1,1062.410,-8.472,3.225,984.703,-0.106,0.721
0.385000,613436,1000.00,12,0,1,1063.251,-4.939,3.295,984.247,-0.206,0.717
0.386000,613437,1000.00,12,0,1,1062.530,-2.443,3.308,983.238,-1.307,0.737
0.387000,613438,1000.00,12,0,1,1062.578,-1.155,3.312,985.904,0.834,0.732
0.388000,613439,1000.00,12,0,1,1063.059,1.011,3.315,985.040,0.881,0.729
0.389000,613440,1000.00,12,0,1,1063.155,1.316,3.305,984.031,-0.945,0.670
0.390000,613441,1000.00,12,0,1,1061.714,0.290,3.283,983.959,-0.555,0.674
0.391000,613442,1000.00,12,0,1,1063.900,0.838,3.271,985.184,0.231,0.656
0.392000,613443,1000.00,12,0,1,1066.013,2.414,3.216,984.199,-0.063,0.655
0.393000,613444,1000.00,12,0,1,1067.983,2.037,3.220,983.671,-1.050,0.657
0.394000,613445,1000.00,12,0,1,1072.427,3.993,3.249,983.935,-0.429,0.658
0.395000,613446,1000.00,12,0,1,1074.901,4.438,3.251,984.655,0.195,0.656
0.396000,613447,1000.00,12,0,1,1075.742,2.601,3.271,985.472,0.970,0.669
0.397000,613448,1000.00,12,0,1,1072.355,-1.431,3.240,984.824,0.544,0.671
0.398000,613449,1000.00,12,0,1,1074.469,-2.005,3.245,983.743,-0.709,0.659
0.399000,613450,1000.00,12,0,1,1076.558,1.028,3.249,984.079,-0.326,0.647
0.400000,613451,1000.00,12,0,1,1076.534,0.295,3.248,984.151,-0.074,0.646
0.401000,613452,1000.00,12,0,1,1072.811,-1.659,3.227,985.016,0.561,0.650
0.402000,613453,1000.00,12,0,1,1071.947,-2.336,3.223,982.710,-0.901,0.662
0.403000,613454,1000.00,12,0,1,1068.632,-2.345,3.236,982.806,-1.593,0.691
0.404000,613455,1000.00,12,0,1,1069.352,-1.196,3.239,983.430,-0.108,0.688
0.405000,613456,1000.00,12,0,1,1073.340,4.785,3.308,984.199,0.226,0.688
0.406000,613457,1000.00,12,0,1,1066.974,1.390,3.313,985.208,1.340,0.708
0.407000,613458,1000.00,12,0,1,1060.248,-5.115,3.391,985.592,1.480,0.738
0.408000,613459,1000.00,12,0,1,1060.777,-3.042,3.417,985.184,0.893,0.721
0.409000,613460,1000.00,12,0,1,1064.380,0.847,3.416,983.695,-0.462,0.716
0.410000,613461,1000.00,12,0,1,1062.242,0.062,3.407,985.160,0.197,0.697
0.411000,613462,1000.00,12,0,1,1060.705,-3.055,3.424,983.743,-0.049,0.696
0.412000,613463,1000.00,12,0,1,1065.029,0.179,3.424,983.358,-1.431,0.708
0.413000,613464,1000.00,12,0,1,1066.109,0.645,3.404,986.145,1.536,0.736
0.414000,613465,1000.00,12,0,1,1069.905,1.228,3.249,984.824,0.753,0.743
0.415000,613466,1000.00,12,0,1,1066.782,-1.287,3.253,984.079,-0.735,0.748
0.416000,613467,1000.00,12,0,1,1067.983,-3.906,3.107,984.391,0.042,0.744
0.417000,613468,1000.00,12,0,1,1073.820,1.801,3.103,982.157,-1.777,0.774
0.418000,613469,1000.00,12,0,1,1077.303,3.723,3.101,983.959,-0.681,0.775
0.419000,613470,1000.00,12,0,1,1072.787,-0.039,3.055,983.863,0.442,0.778
0.420000,613471,1000.00,12,0,1,1068.127,-5.054,3.120,984.439,0.050,0.776
0.421000,613472,1000.00,12,0,1,1069.665,-2.638,3.135,985.928,1.889,0.817
0.422000,613473,1000.00,12,0,1,1069.376,-0.304,3.108,984.775,0.715,0.822
0.423000,613474,1000.00,12,0,1,1065.365,-2.441,3.065,984.439,-0.113,0.822
0.424000,613475,1000.00,12,0,1,1064.140,-1.671,3.006,983.959,-0.198,0.822
0.425000,613476,1000.00,12,0,1,1062.410,-0.712,2.995,984.175,-0.433,0.824
0.426000,613477,1000.00,12,0,1,1061.329,-0.105,2.987,985.784,1.162,0.819
0.427000,613478,1000.00,12,0,1,1063.443,3.007,3.013,985.136,0.669,0.825
0.428000,613479,1000.00,12,0,1,1063.059,4.010,3.060,984.007,-0.721,0.831
0.429000,613480,1000.00,12,0,1,1061.449,2.007,3.063,986.001,0.741,0.836
0.430000,613481,1000.00,12,0,1,1061.714,1.850,2.988,986.553,1.666,0.869
0.431000,613482,1000.00,12,0,1,1062.819,1.894,2.841,986.361,0.820,0.868
0.432000,613483,1000.00,12,0,1,1062.362,0.480,2.833,985.977,0.511,0.859
0.433000,613484,1000.00,12,0,1,1065.701,1.129,2.711,985.880,0.053,0.856
0.434000,613485,1000.00,12,0,1,1064.668,-0.102,2.432,986.913,0.855,0.865
0.435000,613486,1000.00,12,0,1,1066.830,-1.410,2.338,986.841,0.870,0.873
0.436000,613487,1000.00,12,0,1,1072.115,2.775,2.346,984.415,-1.371,0.875
0.437000,613488,1000.00,12,0,1,1074.469,3.368,2.388,983.430,-2.467,0.935
0.438000,613489,1000.00,12,0,1,1076.222,3.320,2.429,984.583,-1.101,0.939
0.439000,613490,1000.00,12,0,1,1068.728,-2.674,2.452,985.784,0.280,0.930
0.440000,613491,1000.00,12,0,1,1066.494,-6.622,2.624,986.313,0.740,0.933
0.441000,613492,1000.00,12,0,1,1068.103,-2.159,2.639,984.824,-0.429,0.934
0.442000,613493,1000.00,12,0,1,1067.383,-1.653,2.627,983.598,-1.835,0.970
0.443000,613494,1000.00,12,0,1,1065.365,-1.257,2.618,983.406,-1.669,0.987
0.444000,613495,1000.00,12,0,1,1068.992,2.756,2.585,985.232,-0.130,0.985
0.445000,613496,1000.00,12,0,1,1069.496,5.899,2.643,984.199,-0.269,0.986
0.446000,613497,1000.00,12,0,1,1062.554,0.459,2.618,985.304,-0.228,0.977
0.447000,613498,1000.00,12,0,1,1055.012,-5.569,2.727,984.631,0.191,0.974
0.448000,613499,1000.00,12,0,1,1057.990,-2.547,2.736,986.793,0.862,0.976
0.449000,613500,1000.00,12,0,1,1062.434,3.285,2.771,986.193,1.475,0.997
0.450000,613501,1000.00,12,0,1,1064.380,4.307,2.837,984.631,-1.000,1.007
0.451000,613502,1000.00,12,0,1,1063.251,2.408,2.848,984.679,-0.664,1.009
0.452000,613503,1000.00,12,0,1,1064.860,1.526,2.837,986.841,1.056,1.012
0.453000,613504,1000.00,12,0,1,1066.470,1.769,2.828,985.784,0.673,0.991
0.454000,613505,1000.00,12,0,1,1071.610,3.507,2.866,985.040,-0.644,0.995
0.455000,613506,1000.00,12,0,1,1073.796,4.273,2.850,987.466,1.439,1.015
0.456000,613507,1000.00,12,0,1,1069.112,-1.963,2.857,987.274,1.821,1.030
0.457000,613508,1000.00,12,0,1,1070.481,-3.356,2.804,985.904,-0.190,1.009
0.458000,613509,1000.00,12,0,1,1073.196,-0.202,2.771,983.622,-1.688,1.029
0.459000,613510,1000.00,12,0,1,1072.115,-1.724,2.779,983.382,-2.384,1.081
0.460000,613511,1000.00,12,0,1,1072.427,-1.235,2.785,985.376,0.084,1.080
0.461000,613512,1000.00,12,0,1,1070.842,-1.356,2.758,985.472,0.425,1.082
0.462000,613513,1000.00,12,0,1,1068.776,-2.258,2.776,986.481,0.904,1.071
0.463000,613514,1000.00,12,0,1,1066.133,-2.536,2.798,987.346,1.842,1.080
0.464000,613515,1000.00,12,0,1,1064.692,-2.245,2.810,985.256,-0.169,1.075
0.465000,613516,1000.00,12,0,1,1066.542,1.225,2.810,984.800,-1.160,1.083
0.466000,613517,1000.00,12,0,1,1064.692,1.756,2.766,986.001,0.148,1.083
0.467000,613518,1000.00,12,0,1,1063.563,0.776,2.757,985.112,-0.443,1.055
0.468000,613519,1000.00,12,0,1,1058.375,-1.936,2.720,986.145,-0.119,1.051
0.469000,613520,1000.00,12,0,1,1057.510,-3.851,2.774,985.832,0.266,1.050
0.470000,613521,1000.00,12,0,1,1061.690,0.859,2.683,985.592,-0.602,1.053
0.471000,613522,1000.00,12,0,1,1064.644,2.825,2.687,985.400,-0.342,1.020
0.472000,613523,1000.00,12,0,1,1065.077,1.935,2.700,983.911,-1.650,1.041
0.473000,613524,1000.00,12,0,1,1067.262,1.674,2.688,985.712,-0.345,1.042
0.474000,613525,1000.00,12,0,1,1067.455,0.555,2.679,985.448,0.435,1.044
0.475000,613526,1000.00,12,0,1,1066.734,-2.113,2.694,986.913,0.734,1.047
0.476000,613527,1000.00,12,0,1,1078.048,4.981,2.784,987.226,1.911,1.069
0.477000,613528,1000.00,12,0,1,1077.039,5.828,2.873,985.904,0.022,1.065
0.478000,613529,1000.00,12,0,1,1075.790,-0.179,2.816,984.703,-0.841,1.066
0.479000,613530,1000.00,12,0,1,1082.876,6.422,2.945,983.022,-2.186,1.105
0.480000,613531,1000.00,12,0,1,1078.504,3.148,2.967,982.397,-2.571,1.139
0.481000,613532,1000.00,12,0,1,1070.169,-5.421,3.053,984.896,-0.090,1.134
0.482000,613533,1000.00,12,0,1,1065.221,-7.924,3.251,983.767,-0.158,1.132
0.483000,613534,1000.00,12,0,1,1060.729,-9.484,3.514,981.989,-2.210,1.174
0.484000,613535,1000.00,12,0,1,1061.137,-6.478,3.631,983.959,-0.319,1.169
0.485000,613536,1000.00,12,0,1,1063.275,-1.417,3.631,984.343,0.751,1.167
0.486000,613537,1000.00,12,0,1,1062.170,-0.061,3.610,984.439,0.281,1.151
0.487000,613538,1000.00,12,0,1,1063.707,1.808,3.587,986.265,1.950,1.131
0.488000,613539,1000.00,12,0,1,1064.428,3.841,3.598,986.481,2.059,1.158
0.489000,613540,1000.00,12,0,1,1059.840,-0.345,3.578,986.481,1.493,1.176
0.490000,613541,1000.00,12,0,1,1061.714,-0.296,3.454,987.802,2.276,1.215
0.491000,613542,1000.00,12,0,1,1071.562,7.700,3.608,987.874,2.210,1.253
0.492000,613543,1000.00,12,0,1,1062.506,0.554,3.602,985.328,-0.329,1.227
0.493000,613544,1000.00,12,0,1,1055.805,-10.468,3.890,985.232,-1.019,1.212
0.494000,613545,1000.00,12,0,1,1061.017,-5.275,3.942,985.640,-0.077,1.212
0.495000,613546,1000.00,12,0,1,1067.431,-0.184,3.852,984.271,-1.225,1.224
0.496000,613547,1000.00,12,0,1,1070.433,1.884,3.861,983.983,-1.473,1.241
0.497000,613548,1000.00,12,0,1,1068.103,-0.933,3.782,986.145,0.623,1.244
0.498000,613549,1000.00,12,0,1,1067.455,-2.862,3.787,985.977,1.029,1.247
0.499000,613550,1000.00,12,0,1,1070.265,0.309,3.758,986.289,0.672,1.233
0.500000,613551,1000.00,12,0,1,1070.097,0.974,3.711,985.280,0.264,1.225
0.501000,613552,1000.00,12,0,1,1067.311,-0.568,3.696,985.400,-0.304,1.222
0.502000,613553,1000.00,12,0,1,1063.299,-2.696,3.710,986.025,0.617,1.216
0.503000,613554,1000.00,12,0,1,1063.803,-0.875,3.703,985.904,0.277,1.213
0.504000,613555,1000.00,12,0,1,1063.251,1.482,3.676,985.112,-0.487,1.212
0.505000,613556,1000.00,12,0,1,1060.441,0.369,3.626,984.463,-1.161,1.206
0.506000,613557,1000.00,12,0,1,1064.332,4.397,3.669,985.664,-0.312,1.179
0.507000,613558,1000.00,12,0,1,1065.053,7.114,3.775,986.433,0.705,1.183
0.508000,613559,1000.00,12,0,1,1061.882,3.350,3.804,986.001,-0.009,1.158
0.509000,613560,1000.00,12,0,1,1054.267,-2.813,3.817,985.064,-0.807,1.114
0.510000,613561,1000.00,12,0,1,1058.543,-1.601,3.820,986.217,-0.190,1.114
0.511000,613562,1000.00,12,0,1,1067.695,7.613,3.964,985.328,-0.267,1.113
0.512000,613563,1000.00,12,0,1,1071.995,9.077,4.154,986.121,-0.366,1.107
0.513000,613564,1000.00,12,0,1,1072.595,6.892,4.252,985.712,0.171,1.076
0.514000,613565,1000.00,12,0,1,1070.073,1.879,4.249,984.727,-1.179,1.089
0.515000,613566,1000.00,12,0,1,1069.737,-1.417,4.250,987.466,1.199,1.090
0.516000,613567,1000.00,12,0,1,1073.196,0.282,4.243,986.649,1.346,1.106
0.517000,613568,1000.00,12,0,1,1067.383,-4.778,4.295,985.568,-0.590,1.107
0.518000,613569,1000.00,12,0,1,1065.893,-8.189,4.440,986.481,0.643,1.111
0.519000,613570,1000.00,12,0,1,1070.986,-2.146,4.417,986.001,0.235,1.111
0.520000,613571,1000.00,12,0,1,1069.088,-2.024,4.424,985.160,-0.578,1.111
0.521000,613572,1000.00,12,0,1,1066.350,-4.274,4.447,984.944,-0.737,1.114
0.522000,613573,1000.00,12,0,1,1068.488,-0.541,4.440,984.271,-1.101,1.101
0.523000,613574,1000.00,12,0,1,1064.212,-1.569,4.439,985.568,-0.185,1.100
0.524000,613575,1000.00,12,0,1,1059.095,-5.130,4.497,986.457,1.015,1.108
0.525000,613576,1000.00,12,0,1,1056.621,-4.738,4.537,984.872,-0.504,1.105
0.526000,613577,1000.00,12,0,1,1060.224,-0.180,4.482,984.391,-1.302,1.087
0.527000,613578,1000.00,12,0,1,1062.122,3.908,4.440,984.439,-0.901,1.095
0.528000,613579,1000.00,12,0,1,1061.353,3.024,4.460,983.743,-1.460,1.108
0.529000,613580,1000.00,12,0,1,1061.546,2.826,4.385,983.911,-1.222,1.078
0.530000,613581,1000.00,12,0,1,1061.305,2.028,4.372,984.992,-0.074,1.014
0.531000,613582,1000.00,12,0,1,1056.621,-2.819,4.323,984.800,0.068,1.014
0.532000,613583,1000.00,12,0,1,1060.897,-1.583,4.181,985.496,0.371,1.015
0.533000,613584,1000.00,12,0,1,1058.039,-2.498,3.976,984.535,0.079,0.966
0.534000,613585,1000.00,12,0,1,1053.138,-9.592,4.100,983.238,-1.379,0.985
0.535000,613586,1000.00,12,0,1,1049.631,-11.565,4.409,983.791,-0.599,0.983
0.536000,613587,1000.00,12,0,1,1059.023,-4.678,4.459,986.793,2.066,1.024
0.537000,613588,1000.00,12,0,1,1069.833,7.129,4.564,987.033,2.795,1.063
0.538000,613589,1000.00,12,0,1,1065.989,3.812,4.564,985.352,0.710,1.027
0.539000,613590,1000.00,12,0,1,1065.149,0.553,4.564,984.920,0.131,1.005
0.540000,613591,1000.00,12,0,1,1065.869,3.173,4.586,985.088,0.380,0.954
0.541000,613592,1000.00,12,0,1,1065.173,2.197,4.465,985.448,0.590,0.905
0.542000,613593,1000.00,12,0,1,1064.236,3.063,4.486,985.400,0.642,0.908
0.543000,613594,1000.00,12,0,1,1060.320,0.651,4.235,984.271,-0.460,0.899
0.544000,613595,1000.00,12,0,1,1056.693,-1.150,4.172,983.310,-1.339,0.919
0.545000,613596,1000.00,12,0,1,1059.624,2.424,4.186,983.358,-1.234,0.919
0.546000,613597,1000.00,12,0,1,1063.900,7.979,4.328,983.815,-0.584,0.899
0.547000,613598,1000.00,12,0,1,1058.519,4.249,4.367,984.391,-0.041,0.895
0.548000,613599,1000.00,12,0,1,1057.126,1.066,4.351,986.025,1.271,0.901
0.549000,613600,1000.00,12,0,1,1059.696,4.121,4.389,985.472,1.011,0.907
0.550000,613601,1000.00,12,0,1,1059.216,2.720,4.404,985.472,0.288,0.907
0.551000,613602,1000.00,12,0,1,1060.224,1.951,4.412,984.824,0.069,0.906
0.552000,613603,1000.00,12,0,1,1062.530,2.617,4.411,984.319,-0.787,0.909
0.553000,613604,1000.00,12,0,1,1064.740,2.555,4.424,984.800,-0.159,0.908
0.554000,613605,1000.00,12,0,1,1064.452,0.721,4.420,984.151,-0.481,0.908
0.555000,613606,1000.00,12,0,1,1064.812,-1.299,4.424,985.352,0.223,0.894
0.556000,613607,1000.00,12,0,1,1064.500,-2.313,4.392,985.544,1.046,0.905
0.557000,613608,1000.00,12,0,1,1067.551,-1.290,4.279,984.319,-0.387,0.901
0.558000,613609,1000.00,12,0,1,1066.518,-1.296,4.257,985.832,0.784,0.908
0.559000,613610,1000.00,12,0,1,1065.293,-3.487,4.267,985.808,1.272,0.919
0.560000,613611,1000.00,12,0,1,1060.873,-5.417,4.329,985.520,0.439,0.920
0.561000,613612,1000.00,12,0,1,1057.630,-7.752,4.334,985.304,0.465,0.922
0.562000,613613,1000.00,12,0,1,1057.822,-4.965,4.199,985.688,0.439,0.922
0.563000,613614,1000.00,12,0,1,1056.165,-3.651,4.117,986.529,1.215,0.938
0.564000,613615,1000.00,12,0,1,1055.420,-2.606,4.125,982.998,-1.537,0.948
0.565000,613616,1000.00,12,0,1,1057.342,1.342,4.124,984.367,-1.572,0.959
0.566000,613617,1000.00,12,0,1,1056.285,2.106,4.135,985.496,0.842,0.948
0.567000,613618,1000.00,12,0,1,1056.934,2.865,4.099,984.992,-0.394,0.946
0.568000,613619,1000.00,12,0,1,1061.546,7.016,4.055,983.935,-0.932,0.950
0.569000,613620,1000.00,12,0,1,1058.135,4.600,4.096,985.808,0.071,0.950
0.570000,613621,1000.00,12,0,1,1056.525,0.329,4.086,984.103,-0.390,0.948
0.571000,613622,1000.00,12,0,1,1062.651,4.933,4.101,985.064,-0.793,0.949
0.572000,613623,1000.00,12,0,1,1071.947,11.012,4.386,985.952,1.015,0.947
0.573000,613624,1000.00,12,0,1,1061.738,2.051,4.390,985.520,0.114,0.947
0.574000,613625,1000.00,12,0,1,1054.171,-10.142,4.561,984.583,-0.567,0.939
0.575000,613626,1000.00,12,0,1,1055.685,-7.767,4.643,984.463,-0.738,0.942
0.576000,613627,1000.00,12,0,1,1054.219,-8.644,4.802,985.688,0.355,0.925
0.577000,613628,1000.00,12,0,1,1056.381,-6.959,4.870,985.784,0.888,0.925
0.578000,613629,1000.00,12,0,1,1062.218,-0.363,4.852,985.064,-0.115,0.902
0.579000,613630,1000.00,12,0,1,1060.465,-0.657,4.836,983.190,-1.304,0.904
0.580000,613631,1000.00,12,0,1,1057.870,-2.865,4.844,984.271,-0.905,0.913
0.581000,613632,1000.00,12,0,1,1061.065,0.878,4.830,985.928,1.413,0.935
0.582000,613633,1000.00,12,0,1,1063.251,4.852,4.873,984.391,-0.013,0.933
0.583000,613634,1000.00,12,0,1,1059.720,2.640,4.874,984.367,-0.454,0.936
0.584000,613635,1000.00,12,0,1,1055.757,-0.118,4.682,984.872,0.366,0.916
0.585000,613636,1000.00,12,0,1,1056.813,1.539,4.392,985.064,0.306,0.914
0.586000,613637,1000.00,12,0,1,1053.667,1.060,4.345,983.935,-0.455,0.868
0.587000,613638,1000.00,12,0,1,1056.741,2.471,4.241,985.448,0.213,0.773
0.588000,613639,1000.00,12,0,1,1055.925,4.199,4.248,984.920,0.560,0.771
0.589000,613640,1000.00,12,0,1,1053.042,-0.314,4.247,985.664,0.181,0.771
0.590000,613641,1000.00,12,0,1,1057.102,2.701,4.241,984.872,0.265,0.770
0.591000,613642,1000.00,12,0,1,1046.893,-4.652,4.280,985.304,-0.275,0.766
0.592000,613643,1000.00,12,0,1,1048.719,-7.792,4.399,984.343,-0.343,0.763
0.593000,613644,1000.00,12,0,1,1060.777,5.214,4.459,986.121,0.318,0.761
0.594000,613645,1000.00,12,0,1,1060.296,3.832,4.489,984.559,0.113,0.737
0.595000,613646,1000.00,12,0,1,1068.271,6.654,4.574,985.184,-0.560,0.721
0.596000,613647,1000.00,12,0,1,1072.499,10.968,4.696,985.208,0.532,0.720
0.597000,613648,1000.00,12,0,1,1061.401,-1.365,4.661,984.463,-0.600,0.725
0.598000,613649,1000.00,12,0,1,1062.723,-3.439,4.684,983.262,-1.266,0.725
0.599000,613650,1000.00,12,0,1,1069.713,4.541,4.692,985.664,0.515,0.714
0.600000,613651,1000.00,12,0,1,1071.658,5.756,4.746,986.145,1.723,0.754
0.601000,613652,1000.00,12,0,1,1057.510,-4.844,4.788,987.130,1.789,0.795
0.602000,613653,1000.00,12,0,1,1047.085,-15.390,5.246,988.066,2.660,0.872
0.603000,613654,1000.00,12,0,1,1049.559,-9.579,5.406,986.505,1.033,0.884
0.604000,613655,1000.00,12,0,1,1051.793,-3.827,5.432,986.457,0.103,0.882
0.605000,613656,1000.00,12,0,1,1052.009,-1.649,5.434,984.872,-0.653,0.886
0.606000,613657,1000.00,12,0,1,1024.169,-20.016,6.119,985.977,-0.794,0.881
0.607000,613658,1000.00,12,0,1,1020.182,-27.346,7.236,987.130,1.149,0.894
0.608000,613659,1000.00,12,0,1,1045.644,2.894,7.245,985.928,-0.472,0.889
0.609000,613660,1000.00,12,0,1,1058.495,16.837,7.610,983.358,-2.514,0.941
0.610000,613661,1000.00,12,0,1,1062.530,17.579,7.969,984.583,-1.948,0.978
0.611000,613662,1000.00,12,0,1,1076.967,25.583,8.683,984.800,-0.646,0.980
0.612000,613663,1000.00,12,0,1,1068.103,17.139,8.988,986.889,0.449,0.981
0.613000,613664,1000.00,12,0,1,1059.384,0.712,8.974,984.992,-0.059,0.965
0.614000,613665,1000.00,12,0,1,1062.843,2.476,8.973,985.928,-0.633,0.945
0.615000,613666,1000.00,12,0,1,1060.489,-0.580,8.971,986.673,1.166,0.933
0.616000,613667,1000.00,12,0,1,1061.738,-2.455,8.973,986.385,0.270,0.926
0.617000,613668,1000.00,12,0,1,1068.271,3.646,8.979,983.791,-1.526,0.949
0.618000,613669,1000.00,12,0,1,1071.442,5.410,8.956,985.736,-0.611,0.944
0.619000,613670,1000.00,12,0,1,1071.154,4.762,8.958,982.710,-1.553,0.969
0.620000,613671,1000.00,12,0,1,1070.025,2.724,8.966,983.671,-2.194,1.016
0.621000,613672,1000.00,12,0,1,1058.615,-5.351,8.971,983.598,-0.349,1.011
0.622000,613673,1000.00,12,0,1,1059.071,-6.929,8.889,984.031,-0.802,1.007
0.623000,613674,1000.00,12,0,1,1051.697,-6.982,8.939,984.271,0.239,1.008
0.624000,613675,1000.00,12,0,1,1040.864,-16.810,9.138,985.064,0.624,1.009
0.625000,613676,1000.00,12,0,1,1049.199,-6.827,9.123,985.280,0.968,1.012
0.626000,613677,1000.00,12,0,1,1058.375,5.497,9.074,985.712,1.161,1.024
0.627000,613678,1000.00,12,0,1,1060.849,7.339,9.080,986.841,1.766,1.047
0.628000,613679,1000.00,12,0,1,1064.956,9.882,9.187,986.625,1.736,1.075
0.629000,613680,1000.00,12,0,1,1072.379,13.815,9.392,986.001,0.418,1.061
0.630000,613681,1000.00,12,0,1,1073.075,12.668,9.552,983.743,-1.133,1.065
0.631000,613682,1000.00,12,0,1,1067.455,3.447,9.564,985.544,-0.569,1.049
0.632000,613683,1000.00,12,0,1,1061.065,-4.696,9.563,983.622,-0.602,1.053
0.633000,613684,1000.00,12,0,1,1057.294,-9.989,9.659,984.319,-1.509,1.072
0.634000,613685,1000.00,12,0,1,1058.399,-9.523,9.753,983.863,-0.210,1.071
0.635000,613686,1000.00,12,0,1,1065.941,-3.304,9.761,981.869,-2.572,1.131
0.636000,613687,1000.00,12,0,1,1063.948,-3.395,9.772,983.310,-0.960,1.137
0.637000,613688,1000.00,12,0,1,1063.900,-5.637,9.798,986.745,2.447,1.188
0.638000,613689,1000.00,12,0,1,1066.806,-1.298,9.782,986.793,2.701,1.246
0.639000,613690,1000.00,12,0,1,1055.204,-9.292,9.870,984.199,0.077,1.245
0.640000,613691,1000.00,12,0,1,1054.652,-11.145,9.987,982.902,-1.514,1.263
0.641000,613692,1000.00,12,0,1,1068.271,4.811,9.989,983.935,-0.295,1.263
0.642000,613693,1000.00,12,0,1,1072.235,10.602,10.041,985.088,0.815,1.267
0.643000,613694,1000.00,12,0,1,1063.371,3.136,10.023,985.616,1.338,1.281
0.644000,613695,1000.00,12,0,1,1050.856,-7.659,10.067,985.640,1.057,1.289
0.645000,613696,1000.00,12,0,1,1046.533,-10.476,10.132,984.872,0.334,1.288
0.646000,613697,1000.00,12,0,1,1048.190,-6.028,10.049,984.319,-0.474,1.287
0.647000,613698,1000.00,12,0,1,1047.085,-4.685,10.069,984.223,-0.455,1.286
0.648000,613699,1000.00,12,0,1,1050.688,-1.384,10.059,985.952,0.790,1.278
0.649000,613700,1000.00,12,0,1,1056.213,4.515,10.058,983.719,-0.417,1.278
0.650000,613701,1000.00,12,0,1,1061.185,7.511,10.082,984.944,-0.622,1.257
0.651000,613702,1000.00,12,0,1,1066.182,10.051,10.158,984.703,0.531,1.234
0.652000,613703,1000.00,12,0,1,1071.514,11.765,10.061,984.824,-0.393,1.177
0.653000,613704,1000.00,12,0,1,1072.811,10.185,10.073,984.944,0.421,1.169
0.654000,613705,1000.00,12,0,1,1064.812,0.659,10.059,986.241,0.987,1.177
0.655000,613706,1000.00,12,0,1,1055.060,-10.353,10.162,986.793,1.792,1.201
0.656000,613707,1000.00,12,0,1,1057.342,-9.146,9.845,984.031,-0.673,1.199
0.657000,613708,1000.00,12,0,1,1052.610,-9.678,9.157,985.016,-0.713,1.192
0.658000,613709,1000.00,12,0,1,1052.250,-10.865,9.276,985.832,1.075,1.200
0.659000,613710,1000.00,12,0,1,1060.248,-0.487,8.965,984.872,-0.380,1.148
0.660000,613711,1000.00,12,0,1,1075.213,12.985,8.807,984.343,-0.599,1.117
0.661000,613712,1000.00,12,0,1,1058.879,3.746,8.047,984.703,-0.474,1.115
0.662000,613713,1000.00,12,0,1,1047.469,-11.637,7.848,986.145,0.908,1.121
0.663000,613714,1000.00,12,0,1,1060.296,3.297,7.861,984.367,-0.296,1.122
0.664000,613715,1000.00,12,0,1,1064.452,10.348,7.988,984.031,-1.351,1.134
0.665000,613716,1000.00,12,0,1,1055.853,2.063,7.993,984.824,-0.067,1.122
0.666000,613717,1000.00,12,0,1,1051.385,-2.223,7.992,983.911,-0.873,1.129
0.667000,613718,1000.00,12,0,1,1057.342,2.488,7.983,985.184,-0.067,1.108
0.668000,613719,1000.00,12,0,1,1064.981,10.070,8.073,986.217,1.280,1.119
0.669000,613720,1000.00,12,0,1,1063.227,7.016,8.106,985.472,0.330,1.098
0.670000,613721,1000.00,12,0,1,1065.773,5.717,8.137,985.616,0.193,1.054
0.671000,613722,1000.00,12,0,1,1068.824,7.029,8.162,984.872,-0.256,1.053
0.672000,613723,1000.00,12,0,1,1056.117,-5.163,8.136,986.025,0.246,1.048
0.673000,613724,1000.00,12,0,1,1051.073,-13.699,8.305,986.385,1.096,1.059
0.674000,613725,1000.00,12,0,1,1065.893,-0.340,7.958,986.481,0.619,1.059
0.675000,613726,1000.00,12,0,1,1074.637,8.642,7.993,987.274,1.336,1.067
0.676000,613727,1000.00,12,0,1,1050.760,-11.249,8.113,987.802,1.571,1.077
0.677000,613728,1000.00,12,0,1,1050.136,-17.834,8.432,985.520,-0.347,1.049
0.678000,613729,1000.00,12,0,1,1057.534,-3.622,8.331,985.280,-1.235,1.035
0.679000,613730,1000.00,12,0,1,1062.819,0.030,8.099,984.511,-1.148,1.046
0.680000,613731,1000.00,12,0,1,1064.428,4.633,7.925,984.872,-1.225,1.048
0.681000,613732,1000.00,12,0,1,1066.109,5.303,7.946,985.568,-0.043,1.045
0.682000,613733,1000.00,12,0,1,1062.626,3.965,7.938,987.418,1.243,1.056
0.683000,613734,1000.00,12,0,1,1054.027,-3.179,7.824,985.760,0.345,1.035
0.684000,613735,1000.00,12,0,1,1049.896,-6.443,7.761,984.391,-1.681,1.062
0.685000,613736,1000.00,12,0,1,1054.532,-0.388,7.747,985.880,-0.197,0.998
0.686000,613737,1000.00,12,0,1,1057.126,3.370,7.747,986.313,0.520,0.991
0.687000,613738,1000.00,12,0,1,1046.340,-4.400,7.731,987.130,0.686,0.934
0.688000,613739,1000.00,12,0,1,1052.177,-3.036,7.740,986.985,0.866,0.861
0.689000,613740,1000.00,12,0,1,1070.553,15.437,7.934,986.361,-0.288,0.862
0.690000,613741,1000.00,12,0,1,1050.856,0.021,7.776,986.505,-0.087,0.835
0.691000,613742,1000.00,12,0,1,1038.029,-18.624,8.182,986.841,0.050,0.834
0.692000,613743,1000.00,12,0,1,1051.553,-4.346,8.067,988.186,1.091,0.840
0.693000,613744,1000.00,12,0,1,1055.660,1.487,8.057,986.265,-0.210,0.819
0.694000,613745,1000.00,12,0,1,1056.717,0.046,7.984,986.985,-0.573,0.810
0.695000,613746,1000.00,12,0,1,1060.176,3.197,7.859,987.970,1.119,0.824
0.696000,613747,1000.00,12,0,1,1061.834,3.545,7.828,987.154,-0.004,0.821
0.697000,613748,1000.00,12,0,1,1064.020,4.840,7.830,987.322,0.029,0.818
0.698000,613749,1000.00,12,0,1,1062.218,3.240,7.841,989.003,1.408,0.835
0.699000,613750,1000.00,12,0,1,1055.540,-2.551,7.823,988.547,1.171,0.849
0.700000,613751,1000.00,12,0,1,1049.439,-7.164,7.817,987.081,-0.551,0.848
0.701000,613752,1000.00,12,0,1,1039.110,-13.014,7.904,987.562,-0.381,0.846
0.702000,613753,1000.00,12,0,1,1034.234,-15.377,8.027,987.057,-0.401,0.847
0.703000,613754,1000.00,12,0,1,1039.519,-6.552,7.951,989.147,0.656,0.849
0.704000,613755,1000.00,12,0,1,1041.969,-0.282,7.950,988.859,1.239,0.856
0.705000,613756,1000.00,12,0,1,1042.713,1.618,7.818,987.033,-1.291,0.838
0.706000,613757,1000.00,12,0,1,1046.701,6.141,7.759,988.114,-0.416,0.834
0.707000,613758,1000.00,12,0,1,1024.866,-9.071,7.744,987.586,-0.466,0.831
0.708000,613759,1000.00,12,0,1,1011.655,-24.159,8.324,988.499,-0.375,0.819
0.709000,613760,1000.00,12,0,1,1035.988,-0.217,8.323,989.291,0.843,0.826
0.710000,613761,1000.00,12,0,1,1067.214,29.823,9.148,988.283,-0.449,0.824
0.711000,613762,1000.00,12,0,1,1091.331,46.341,11.241,987.490,-1.205,0.838
0.712000,613763,1000.00,12,0,1,1088.809,39.552,12.448,987.802,-0.982,0.840
0.713000,613764,1000.00,12,0,1,1055.132,2.133,12.443,987.298,-1.058,0.852
0.714000,613765,1000.00,12,0,1,1056.693,-6.564,12.391,986.625,-1.665,0.863
0.715000,613766,1000.00,12,0,1,1084.317,19.735,12.698,988.018,-0.379,0.865
0.716000,613767,1000.00,12,0,1,1079.489,15.769,12.889,988.355,0.456,0.859
0.717000,613768,1000.00,12,0,1,1063.900,-4.341,12.898,988.667,0.355,0.860
0.718000,613769,1000.00,12,0,1,1062.458,-6.326,12.851,987.634,-0.126,0.841
0.719000,613770,1000.00,12,0,1,1074.301,3.872,12.824,987.178,-0.963,0.851
0.720000,613771,1000.00,12,0,1,1081.483,12.148,12.913,987.706,-0.136,0.850
0.721000,613772,1000.00,12,0,1,1068.632,0.784,12.875,990.468,1.945,0.893
0.722000,613773,1000.00,12,0,1,1070.001,-1.985,12.858,986.145,-0.726,0.898
0.723000,613774,1000.00,12,0,1,1070.001,2.300,12.715,986.145,-2.598,0.958
0.724000,613775,1000.00,12,0,1,1060.008,-7.796,12.763,987.081,-0.044,0.954
0.725000,613776,1000.00,12,0,1,1053.931,-12.345,12.824,986.937,-0.795,0.942
0.726000,613777,1000.00,12,0,1,1061.978,-5.268,12.746,986.529,-0.660,0.920
0.727000,613778,1000.00,12,0,1,1059.047,-4.204,12.508,988.283,0.507,0.921
0.728000,613779,1000.00,12,0,1,1049.127,-14.768,12.671,989.195,1.679,0.935
0.729000,613780,1000.00,12,0,1,1050.016,-14.027,12.826,989.820,1.751,0.954
0.730000,613781,1000.00,12,0,1,1056.261,-7.115,12.848,990.468,1.999,0.980
0.731000,613782,1000.00,12,0,1,1058.159,-5.359,12.849,989.748,1.247,0.995
0.732000,613783,1000.00,12,0,1,1058.663,-5.615,12.861,989.844,0.571,0.983
0.733000,613784,1000.00,12,0,1,1060.417,-4.992,12.873,987.081,-1.186,0.996
0.734000,613785,1000.00,12,0,1,1062.602,-3.198,12.848,986.673,-2.539,1.032
0.735000,613786,1000.00,12,0,1,1066.638,-0.563,12.848,988.547,0.083,1.031
0.736000,613787,1000.00,12,0,1,1066.374,-0.003,12.840,988.643,0.217,1.029
0.737000,613788,1000.00,12,0,1,1067.719,-0.147,12.824,987.250,-0.848,1.032
0.738000,613789,1000.00,12,0,1,1064.092,-1.186,12.818,986.985,-1.207,1.039
0.739000,613790,1000.00,12,0,1,1058.615,-6.074,12.660,988.138,0.060,1.038
0.740000,613791,1000.00,12,0,1,1047.566,-12.055,12.775,989.484,1.374,1.056
0.741000,613792,1000.00,12,0,1,1048.454,-10.633,12.590,989.748,1.520,1.077
0.742000,613793,1000.00,12,0,1,1053.042,-0.792,12.576,987.898,-0.145,1.066
0.743000,613794,1000.00,12,0,1,1050.352,-0.717,12.574,987.418,-1.110,1.078
0.744000,613795,1000.00,12,0,1,1047.926,-1.330,12.576,989.387,0.779,1.080
0.745000,613796,1000.00,12,0,1,1051.601,3.345,12.576,987.898,-0.107,1.069
0.746000,613797,1000.00,12,0,1,1053.859,6.564,12.601,989.027,-0.137,1.069
0.747000,613798,1000.00,12,0,1,1033.754,-8.500,12.639,987.922,-0.053,1.069
0.748000,613799,1000.00,12,0,1,1035.315,-12.290,12.750,990.156,0.473,1.052
0.749000,613800,1000.00,12,0,1,1041.080,-0.479,12.745,991.645,2.823,1.113
0.750000,613801,1000.00,12,0,1,1047.638,1.854,12.708,987.826,-1.062,1.120
0.751000,613802,1000.00,12,0,1,1052.634,7.831,12.622,988.595,-1.357,1.136
0.752000,613803,1000.00,12,0,1,1064.020,13.227,12.573,988.427,-0.215,1.135
0.753000,613804,1000.00,12,0,1,1078.840,24.316,13.002,988.355,-1.151,1.142
0.754000,613805,1000.00,12,0,1,1080.402,22.262,13.378,989.508,0.569,1.132
0.755000,613806,1000.00,12,0,1,1061.786,1.943,13.379,989.628,0.482,1.119
0.756000,613807,1000.00,12,0,1,1049.391,-12.820,13.473,987.874,-0.780,1.123
0.757000,613808,1000.00,12,0,1,1052.418,-9.302,13.476,988.907,-0.433,1.123
0.758000,613809,1000.00,12,0,1,1057.270,-1.831,13.039,989.844,1.098,1.132
0.759000,613810,1000.00,12,0,1,1058.735,0.634,13.039,989.147,0.222,1.126
0.760000,613811,1000.00,12,0,1,1055.709,0.306,12.338,988.955,-0.092,1.124
0.761000,613812,1000.00,12,0,1,1047.590,-5.435,10.482,987.370,-1.148,1.123
0.762000,613813,1000.00,12,0,1,1043.362,-7.179,8.922,986.817,-1.989,1.150
0.763000,613814,1000.00,12,0,1,1056.045,4.948,8.945,987.370,-0.930,1.147
0.764000,613815,1000.00,12,0,1,1064.092,15.840,9.174,986.985,-1.119,1.134
0.765000,613816,1000.00,12,0,1,1064.164,13.503,8.945,989.243,0.631,1.136
0.766000,613817,1000.00,12,0,1,1057.822,7.236,8.723,989.868,1.743,1.161
0.767000,613818,1000.00,12,0,1,1050.040,-2.186,8.707,988.379,-0.094,1.160
0.768000,613819,1000.00,12,0,1,1058.663,2.710,8.670,988.811,-0.027,1.160
0.769000,613820,1000.00,12,0,1,1067.503,11.053,8.792,989.556,0.798,1.157
0.770000,613821,1000.00,12,0,1,1047.229,-7.422,8.686,989.676,0.680,1.161
0.771000,613822,1000.00,12,0,1,1042.641,-17.950,9.049,990.324,1.060,1.138
0.772000,613823,1000.00,12,0,1,1060.657,-0.044,9.045,990.132,0.866,1.140
0.773000,613824,1000.00,12,0,1,1067.455,6.666,9.088,989.267,-0.112,1.079
0.774000,613825,1000.00,12,0,1,1065.485,1.897,9.025,989.267,-0.238,1.080
0.775000,613826,1000.00,12,0,1,1053.667,-8.332,8.932,990.564,0.896,1.081
0.776000,613827,1000.00,12,0,1,1059.960,-6.799,8.953,990.348,0.931,1.085
0.777000,613828,1000.00,12,0,1,1062.939,1.365,8.935,990.733,0.761,1.088
0.778000,613829,1000.00,12,0,1,1058.903,-4.041,8.707,989.820,0.313,1.063
0.779000,613830,1000.00,12,0,1,1057.342,-3.173,8.489,991.141,0.687,1.038
0.780000,613831,1000.00,12,0,1,1055.564,-3.175,8.442,990.396,0.785,1.005
0.781000,613832,1000.00,12,0,1,1055.396,-1.598,8.411,991.405,0.539,0.992
0.782000,613833,1000.00,12,0,1,1054.964,0.490,8.373,992.438,1.957,1.027
0.783000,613834,1000.00,12,0,1,1052.466,-0.477,8.344,990.060,-0.481,1.016
0.784000,613835,1000.00,12,0,1,1050.328,-0.789,8.332,990.420,-0.972,0.960
0.785000,613836,1000.00,12,0,1,1047.950,-1.956,8.336,989.796,-0.714,0.965
0.786000,613837,1000.00,12,0,1,1051.649,1.463,8.339,989.147,-1.987,1.005
0.787000,613838,1000.00,12,0,1,1050.328,1.704,8.342,990.348,-0.533,1.000
0.788000,613839,1000.00,12,0,1,1043.314,-5.462,8.376,990.829,-0.098,0.986
0.789000,613840,1000.00,12,0,1,1041.248,-8.060,8.410,990.132,-0.678,0.991
0.790000,613841,1000.00,12,0,1,1046.677,-3.271,8.248,991.213,-0.113,0.971
0.791000,613842,1000.00,12,0,1,1054.075,2.931,8.121,992.726,1.422,0.968
0.792000,613843,1000.00,12,0,1,1057.438,4.960,8.150,992.270,0.879,0.976
0.793000,613844,1000.00,12,0,1,1057.798,3.089,8.161,991.597,-0.126,0.964
0.794000,613845,1000.00,12,0,1,1059.288,2.648,8.168,991.549,-0.193,0.958
0.795000,613846,1000.00,12,0,1,1055.300,-1.141,8.155,990.444,-1.041,0.969
0.796000,613847,1000.00,12,0,1,1048.406,-7.876,8.179,990.829,-0.913,0.977
0.797000,613848,1000.00,12,0,1,1043.170,-11.134,8.242,992.438,0.787,0.984
0.798000,613849,1000.00,12,0,1,1045.163,-7.667,8.129,992.510,0.974,0.991
0.799000,613850,1000.00,12,0,1,1050.208,0.037,8.129,992.390,0.508,0.910
0.800000,613851,1000.00,12,0,1,1051.169,3.280,8.138,992.222,0.387,0.899
0.801000,613852,1000.00,12,0,1,1052.298,5.196,8.095,990.444,-1.169,0.894
0.802000,613853,1000.00,12,0,1,1043.530,0.505,7.877,991.237,-0.904,0.902
0.803000,613854,1000.00,12,0,1,1034.258,-7.762,7.171,991.285,-0.164,0.888
0.804000,613855,1000.00,12,0,1,1033.561,-5.688,6.493,989.460,-1.966,0.927
0.805000,613856,1000.00,12,0,1,1034.042,-2.569,6.497,990.949,-0.904,0.933
0.806000,613857,1000.00,12,0,1,1026.283,-6.801,6.313,993.471,1.756,0.959
0.807000,613858,1000.00,12,0,1,1024.241,-8.724,6.296,990.372,-0.673,0.962
0.808000,613859,1000.00,12,0,1,1048.598,11.940,6.513,991.886,-0.738,0.955
0.809000,613860,1000.00,12,0,1,1064.188,28.119,7.631,991.645,0.479,0.957
0.810000,613861,1000.00,12,0,1,1065.317,22.634,8.275,990.084,-1.880,0.993
0.811000,613862,1000.00,12,0,1,1064.260,16.938,8.580,990.060,-1.425,1.000
0.812000,613863,1000.00,12,0,1,1063.731,11.142,8.664,992.006,0.169,0.960
0.813000,613864,1000.00,12,0,1,1060.729,5.303,8.669,991.790,0.565,0.955
0.814000,613865,1000.00,12,0,1,1067.190,6.440,8.424,991.477,-0.167,0.942
0.815000,613866,1000.00,12,0,1,1071.586,9.847,8.322,991.045,-0.278,0.938
0.816000,613867,1000.00,12,0,1,1071.130,6.325,8.307,989.964,-1.118,0.919
0.817000,613868,1000.00,12,0,1,1069.544,3.513,8.316,990.588,-0.676,0.924
0.818000,613869,1000.00,12,0,1,1069.256,2.215,8.313,992.991,1.778,0.957
0.819000,613870,1000.00,12,0,1,1067.238,0.677,8.165,990.661,0.222,0.951
0.820000,613871,1000.00,12,0,1,1060.825,-4.062,8.118,990.709,-0.716,0.952
0.821000,613872,1000.00,12,0,1,1058.327,-6.093,7.759,991.237,0.594,0.944
0.822000,613873,1000.00,12,0,1,1059.504,-2.643,7.768,991.429,0.352,0.937
0.823000,613874,1000.00,12,0,1,1061.065,-0.328,7.710,992.750,1.504,0.961
0.824000,613875,1000.00,12,0,1,1054.195,-4.200,7.729,992.246,1.172,0.974
0.825000,613876,1000.00,12,0,1,1054.988,-5.395,7.676,991.886,0.187,0.966
0.826000,613877,1000.00,12,0,1,1054.820,-2.724,7.626,991.838,0.313,0.958
0.827000,613878,1000.00,12,0,1,1051.649,-6.967,7.686,989.628,-1.674,0.981
0.828000,613879,1000.00,12,0,1,1049.175,-8.835,7.766,987.442,-3.574,1.103
0.829000,613880,1000.00,12,0,1,1051.553,-7.771,7.831,988.403,-2.575,1.157
0.830000,613881,1000.00,12,0,1,1063.467,1.500,7.821,991.069,0.391,1.153
0.831000,613882,1000.00,12,0,1,1057.366,-2.067,7.823,989.748,-0.164,1.151
0.832000,613883,1000.00,12,0,1,1061.546,-5.144,7.857,990.925,-0.003,1.117
0.833000,613884,1000.00,12,0,1,1067.983,3.313,7.870,990.516,0.702,1.120
0.834000,613885,1000.00,12,0,1,1057.414,-7.770,7.946,989.604,-0.834,1.118
0.835000,613886,1000.00,12,0,1,1060.657,-7.738,8.016,990.757,0.490,1.115
0.836000,613887,1000.00,12,0,1,1062.747,-1.910,8.018,991.741,1.463,1.099
0.837000,613888,1000.00,12,0,1,1059.143,-5.862,8.057,993.423,2.579,1.155
0.838000,613889,1000.00,12,0,1,1062.218,-1.477,8.023,991.165,1.075,1.165
0.839000,613890,1000.00,12,0,1,1061.089,0.175,7.941,991.477,-0.007,1.161
0.840000,613891,1000.00,12,0,1,1055.132,-3.575,7.944,991.958,1.364,1.177
0.841000,613892,1000.00,12,0,1,1049.751,-6.030,7.979,991.165,0.024,1.160
0.842000,613893,1000.00,12,0,1,1049.511,-4.028,7.968,989.267,-1.250,1.166
0.843000,613894,1000.00,12,0,1,1052.418,1.350,7.959,991.549,0.035,1.166
0.844000,613895,1000.00,12,0,1,1056.093,5.887,7.993,990.540,0.441,1.168
0.845000,613896,1000.00,12,0,1,1059.528,9.249,8.098,989.171,-1.742,1.184
0.846000,613897,1000.00,12,0,1,1059.912,8.878,8.119,990.108,-0.467,1.179
0.847000,613898,1000.00,12,0,1,1050.448,-0.099,7.965,990.637,0.190,1.174
0.848000,613899,1000.00,12,0,1,1053.234,-1.617,7.894,990.204,-0.256,1.167
0.849000,613900,1000.00,12,0,1,1056.093,2.545,7.902,989.724,-0.594,1.167
0.850000,613901,1000.00,12,0,1,1054.315,-1.924,7.893,990.516,-0.148,1.166
0.851000,613902,1000.00,12,0,1,1052.418,-4.488,7.884,989.508,-0.423,1.156
0.852000,613903,1000.00,12,0,1,1057.462,-2.182,7.890,991.237,0.200,1.149
0.853000,613904,1000.00,12,0,1,1063.131,2.774,7.823,991.165,1.188,1.161
0.854000,613905,1000.00,12,0,1,1065.389,3.369,7.796,989.844,-0.809,1.133
0.855000,613906,1000.00,12,0,1,1060.657,-1.319,7.790,991.429,0.633,1.130
0.856000,613907,1000.00,12,0,1,1053.330,-8.155,7.816,990.925,0.649,1.106
0.857000,613908,1000.00,12,0,1,1048.070,-11.540,7.889,989.484,-1.059,1.112
0.858000,613909,1000.00,12,0,1,1059.720,-0.517,7.706,990.805,0.139,1.107
0.859000,613910,1000.00,12,0,1,1063.059,7.578,6.687,990.012,0.023,1.105
0.860000,613911,1000.00,12,0,1,1066.109,8.321,5.988,991.958,0.950,1.081
0.861000,613912,1000.00,12,0,1,1062.578,8.227,5.610,990.997,1.167,1.075
0.862000,613913,1000.00,12,0,1,1045.980,-6.199,5.455,990.444,-0.429,1.076
0.863000,613914,1000.00,12,0,1,1041.416,-10.586,5.607,990.036,-0.086,1.073
0.864000,613915,1000.00,12,0,1,1043.482,-4.261,5.565,989.123,-1.146,1.085
0.865000,613916,1000.00,12,0,1,1043.746,-2.888,5.404,989.267,-0.865,1.091
0.866000,613917,1000.00,12,0,1,1047.205,1.339,5.332,989.075,-0.656,1.084
0.867000,613918,1000.00,12,0,1,1042.593,-1.534,5.314,989.868,-0.202,1.080
0.868000,613919,1000.00,12,0,1,1034.594,-9.490,5.472,991.645,1.632,1.075
0.869000,613920,1000.00,12,0,1,1025.995,-15.946,5.917,990.300,0.507,1.077
0.870000,613921,1000.00,12,0,1,1046.292,-1.058,5.891,987.274,-2.379,1.124
0.871000,613922,1000.00,12,0,1,1058.447,14.857,6.195,988.955,-1.335,1.137
0.872000,613923,1000.00,12,0,1,1062.242,11.981,6.412,989.267,0.126,1.136
0.873000,613924,1000.00,12,0,1,1064.476,12.551,6.653,990.132,0.101,1.116
0.874000,613925,1000.00,12,0,1,1054.724,1.497,6.630,991.237,1.638,1.127
0.875000,613926,1000.00,12,0,1,1048.622,-6.926,6.658,990.204,0.471,1.129
0.876000,613927,1000.00,12,0,1,1052.394,-2.498,6.656,989.772,-0.192,1.128
0.877000,613928,1000.00,12,0,1,1057.822,3.024,6.597,988.234,-1.109,1.114
0.878000,613929,1000.00,12,0,1,1059.143,5.839,6.530,990.949,0.512,0.996
0.879000,613930,1000.00,12,0,1,1058.135,4.762,6.472,990.925,1.846,0.963
0.880000,613931,1000.00,12,0,1,1058.975,6.430,6.532,989.339,-0.580,0.965
0.881000,613932,1000.00,12,0,1,1057.942,6.377,6.587,988.763,-0.618,0.968
0.882000,613933,1000.00,12,0,1,1059.264,7.501,6.632,989.435,-0.197,0.969
0.883000,613934,1000.00,12,0,1,1054.387,4.759,6.650,989.652,0.427,0.966
0.884000,613935,1000.00,12,0,1,1047.662,-2.018,6.565,989.219,-0.019,0.958
0.885000,613936,1000.00,12,0,1,1042.593,-5.385,6.518,988.931,-0.279,0.957
0.886000,613937,1000.00,12,0,1,1040.287,-6.986,6.587,987.946,-0.866,0.942
0.887000,613938,1000.00,12,0,1,1037.020,-8.435,6.642,989.171,-0.178,0.869
0.888000,613939,1000.00,12,0,1,1044.131,-3.410,6.656,987.922,-0.325,0.857
0.889000,613940,1000.00,12,0,1,1031.328,-10.331,6.815,987.322,-1.642,0.888
0.890000,613941,1000.00,12,0,1,1033.033,-14.789,7.110,985.904,-1.874,0.906
0.891000,613942,1000.00,12,0,1,1065.653,15.193,7.379,986.673,-1.732,0.939
0.892000,613943,1000.00,12,0,1,1048.983,5.916,7.404,988.763,0.930,0.931
0.893000,613944,1000.00,12,0,1,1040.960,-13.575,7.647,989.916,1.821,0.966
0.894000,613945,1000.00,12,0,1,1040.527,-6.859,7.663,991.045,2.531,1.028
0.895000,613946,1000.00,12,0,1,1037.741,-12.441,7.753,990.204,1.785,1.030
0.896000,613947,1000.00,12,0,1,1039.350,-7.180,7.718,989.796,0.634,1.032
0.897000,613948,1000.00,12,0,1,1036.444,-7.613,7.792,989.916,0.935,1.040
0.898000,613949,1000.00,12,0,1,1042.881,-1.276,7.791,987.322,-1.297,1.055
0.899000,613950,1000.00,12,0,1,1053.042,11.552,7.952,988.379,-0.918,1.060
0.900000,613951,1000.00,12,0,1,1053.523,12.579,8.144,988.018,-0.071,1.060
0.901000,613952,1000.00,12,0,1,1066.302,21.727,8.681,986.289,-1.940,1.093
0.902000,613953,1000.00,12,0,1,1075.982,31.004,9.721,987.706,-0.478,1.095
0.903000,613954,1000.00,12,0,1,1073.532,25.359,10.354,987.682,0.283,1.082
0.904000,613955,1000.00,12,0,1,1062.074,12.246,10.487,987.442,-0.273,1.077
0.905000,613956,1000.00,12,0,1,1054.964,2.485,10.491,986.361,-0.614,1.077
0.906000,613957,1000.00,12,0,1,1049.175,-2.809,10.435,985.472,-1.617,1.097
0.907000,613958,1000.00,12,0,1,1048.406,-4.951,10.331,988.042,0.752,1.092
0.908000,613959,1000.00,12,0,1,1047.109,-5.461,10.359,988.042,1.438,1.111
0.909000,613960,1000.00,12,0,1,1047.517,-6.417,10.343,988.667,1.068,1.121
0.910000,613961,1000.00,12,0,1,1055.733,-0.493,10.277,989.604,2.178,1.155
0.911000,613962,1000.00,12,0,1,1062.338,4.802,10.233,989.387,1.433,1.161
0.912000,613963,1000.00,12,0,1,1058.615,-0.689,10.196,992.366,3.273,1.248
0.913000,613964,1000.00,12,0,1,1052.298,-8.633,10.159,991.549,2.980,1.317
0.914000,613965,1000.00,12,0,1,1051.169,-10.874,10.257,990.084,0.222,1.308
0.915000,613966,1000.00,12,0,1,1044.995,-14.359,10.448,988.307,-0.946,1.309
0.916000,613967,1000.00,12,0,1,1042.113,-17.116,10.723,988.739,-1.287,1.318
0.917000,613968,1000.00,12,0,1,1044.010,-11.987,10.854,989.219,-0.090,1.318
0.918000,613969,1000.00,12,0,1,1047.133,-7.006,10.816,989.676,-0.002,1.297
0.919000,613970,1000.00,12,0,1,1058.447,4.412,10.597,988.859,-0.292,1.296
0.920000,613971,1000.00,12,0,1,1068.223,15.196,10.812,987.706,-1.433,1.268
0.921000,613972,1000.00,12,0,1,1063.419,11.218,10.724,988.307,-0.812,1.259
0.922000,613973,1000.00,12,0,1,1048.118,-2.693,10.596,988.138,-0.359,1.260
0.923000,613974,1000.00,12,0,1,1047.013,-5.002,10.470,989.916,0.694,1.264
0.924000,613975,1000.00,12,0,1,1047.878,-0.056,10.468,988.571,0.494,1.244
0.925000,613976,1000.00,12,0,1,1045.211,-2.263,10.427,988.643,-0.639,1.246
0.926000,613977,1000.00,12,0,1,1044.827,-1.462,10.423,988.475,0.126,1.246
0.927000,613978,1000.00,12,0,1,1044.755,-0.940,10.415,989.628,0.271,1.236
0.928000,613979,1000.00,12,0,1,1044.443,-1.270,10.384,991.381,2.149,1.271
0.929000,613980,1000.00,12,0,1,1047.253,0.588,10.362,988.907,-0.096,1.244
0.930000,613981,1000.00,12,0,1,1047.133,0.287,10.322,989.003,-1.115,1.251
0.931000,613982,1000.00,12,0,1,1049.655,0.406,10.283,989.484,0.081,1.248
0.932000,613983,1000.00,12,0,1,1050.808,1.065,10.229,988.258,-1.431,1.264
0.933000,613984,1000.00,12,0,1,1058.543,4.846,10.230,989.868,-0.160,1.263
0.934000,613985,1000.00,12,0,1,1058.375,5.376,10.254,989.147,-0.154,1.263
0.935000,613986,1000.00,12,0,1,1052.922,-2.483,10.232,988.619,-1.221,1.274
0.936000,613987,1000.00,12,0,1,1055.372,-1.334,10.186,987.826,-1.252,1.281
0.937000,613988,1000.00,12,0,1,1054.339,-0.687,10.116,989.844,0.028,1.281
0.938000,613989,1000.00,12,0,1,1053.739,-2.176,10.109,988.475,0.070,1.280
0.939000,613990,1000.00,12,0,1,1047.517,-4.612,10.025,989.628,-0.109,1.259
0.940000,613991,1000.00,12,0,1,1038.221,-12.160,9.954,989.363,0.954,1.238
0.941000,613992,1000.00,12,0,1,1042.833,-6.077,9.757,988.523,-0.557,1.216
0.942000,613993,1000.00,12,0,1,1041.608,-1.827,9.724,986.937,-1.286,1.222
0.943000,613994,1000.00,12,0,1,1046.821,1.918,9.537,988.403,-0.463,1.197
0.944000,613995,1000.00,12,0,1,1055.204,12.531,9.651,987.394,-0.258,1.142
0.945000,613996,1000.00,12,0,1,1041.128,1.597,9.492,987.202,-1.098,1.125
0.946000,613997,1000.00,12,0,1,1034.931,-7.444,9.496,986.481,-0.975,1.130
0.947000,613998,1000.00,12,0,1,1042.665,1.734,9.438,986.553,-1.156,1.134
0.948000,613999,1000.00,12,0,1,1050.088,7.944,9.503,987.033,-0.364,1.120
0.949000,614000,1000.00,12,0,1,1050.328,7.601,9.423,986.265,-0.773,1.118
0.950000,614001,1000.00,12,0,1,1051.865,5.468,9.286,988.162,0.338,1.119
0.951000,614002,1000.00,12,0,1,1049.920,2.895,8.773,987.130,0.502,1.087
0.952000,614003,1000.00,12,0,1,1053.379,2.131,7.604,987.658,-0.313,1.086
0.953000,614004,1000.00,12,0,1,1057.366,5.227,6.746,986.745,0.088,1.085
0.954000,614005,1000.00,12,0,1,1059.984,4.852,6.556,985.832,-1.553,1.107
0.955000,614006,1000.00,12,0,1,1060.609,4.070,6.572,986.721,-0.152,1.103
0.956000,614007,1000.00,12,0,1,1060.369,2.247,6.568,987.274,0.482,1.082
0.957000,614008,1000.00,12,0,1,1059.216,0.543,6.531,987.562,0.802,1.082
0.958000,614009,1000.00,12,0,1,1055.324,-2.503,6.495,988.979,1.990,1.100
0.959000,614010,1000.00,12,0,1,1051.505,-5.581,6.479,987.610,1.115,1.101
0.960000,614011,1000.00,12,0,1,1048.574,-6.086,6.536,988.715,1.257,1.071
0.961000,614012,1000.00,12,0,1,1045.476,-6.895,6.573,988.835,2.046,1.091
0.962000,614013,1000.00,12,0,1,1043.722,-5.976,6.626,988.499,1.071,1.000
0.963000,614014,1000.00,12,0,1,1050.616,1.182,6.515,988.258,0.970,0.917
0.964000,614015,1000.00,12,0,1,1057.726,9.759,6.480,986.553,-0.534,0.919
0.965000,614016,1000.00,12,0,1,1052.562,5.476,6.202,988.042,0.159,0.910
0.966000,614017,1000.00,12,0,1,1045.932,-2.167,5.718,987.754,0.833,0.899
0.967000,614018,1000.00,12,0,1,1046.364,-2.195,5.470,986.673,-0.949,0.909
0.968000,614019,1000.00,12,0,1,1049.223,0.233,5.379,986.505,-0.720,0.915
0.969000,614020,1000.00,12,0,1,1046.004,-2.636,5.356,987.178,-0.385,0.916
0.970000,614021,1000.00,12,0,1,1047.830,-3.510,4.931,986.409,-0.627,0.897
0.971000,614022,1000.00,12,0,1,1049.775,-1.245,4.672,987.586,-0.205,0.890
0.972000,614023,1000.00,12,0,1,1055.805,1.391,4.661,989.123,1.551,0.916
0.973000,614024,1000.00,12,0,1,1064.092,8.040,4.745,987.202,-0.178,0.911
0.974000,614025,1000.00,12,0,1,1043.794,-8.354,4.890,987.033,-1.047,0.920
0.975000,614026,1000.00,12,0,1,1046.461,-13.297,5.229,986.625,-0.682,0.921
0.976000,614027,1000.00,12,0,1,1055.925,2.107,5.234,987.730,-0.288,0.921
0.977000,614028,1000.00,12,0,1,1059.143,2.594,5.245,987.274,0.213,0.921
0.978000,614029,1000.00,12,0,1,1060.152,5.268,5.295,986.697,-0.862,0.878
0.979000,614030,1000.00,12,0,1,1056.886,2.068,5.302,986.505,-0.476,0.880
0.980000,614031,1000.00,12,0,1,1056.285,1.501,5.306,987.490,0.233,0.867
0.981000,614032,1000.00,12,0,1,1052.153,0.244,5.306,985.808,-0.489,0.869
0.982000,614033,1000.00,12,0,1,1047.974,-3.623,5.328,986.049,-0.893,0.855
0.983000,614034,1000.00,12,0,1,1044.803,-3.604,5.309,985.760,-0.202,0.855
0.984000,614035,1000.00,12,0,1,1045.572,-2.603,5.267,985.424,-0.765,0.862
0.985000,614036,1000.00,12,0,1,1049.583,2.976,5.272,986.625,0.514,0.847
0.986000,614037,1000.00,12,0,1,1045.067,-0.008,5.269,986.697,0.892,0.838
0.987000,614038,1000.00,12,0,1,1041.584,-4.251,5.302,987.658,1.161,0.854
0.988000,614039,1000.00,12,0,1,1042.305,-3.088,5.311,986.961,1.018,0.866
0.989000,614040,1000.00,12,0,1,1043.842,-2.009,5.278,986.793,-0.018,0.866
0.990000,614041,1000.00,12,0,1,1048.622,1.264,4.994,986.817,0.393,0.857
0.991000,614042,1000.00,12,0,1,1057.846,7.856,5.043,987.370,0.336,0.855
0.992000,614043,1000.00,12,0,1,1061.137,9.516,5.213,989.628,2.223,0.892
0.993000,614044,1000.00,12,0,1,1074.949,16.061,5.680,987.466,0.643,0.895
0.994000,614045,1000.00,12,0,1,1063.900,8.453,5.527,986.985,-0.994,0.905
0.995000,614046,1000.00,12,0,1,1044.875,-15.114,5.922,986.625,-0.456,0.894
0.996000,614047,1000.00,12,0,1,1046.773,-12.873,6.105,985.784,-1.593,0.911
0.997000,614048,1000.00,12,0,1,1053.499,-3.901,6.125,986.457,-0.648,0.901
0.998000,614049,1000.00,12,0,1,1074.228,12.903,6.292,987.226,0.273,0.901
0.999000,614050,1000.00,12,0,1,1050.856,0.808,6.200,986.985,0.220,0.895
1.000000,614051,1000.00,12,0,1,1038.197,-19.973,6.769,985.064,-1.214,0.910
1.001000,614052,1000.00,12,0,1,1039.206,-9.191,6.881,986.025,-0.755,0.913
1.002000,614053,1000.00,12,0,1,1035.891,-11.328,7.058,987.682,1.469,0.935
1.003000,614054,1000.00,12,0,1,1051.121,4.074,7.043,987.826,1.369,0.955
1.004000,614055,1000.00,12,0,1,1053.066,11.232,7.187,984.944,-0.872,0.938
1.005000,614056,1000.00,12,0,1,1051.121,5.233,7.202,985.784,-1.021,0.948
1.006000,614057,1000.00,12,0,1,1051.337,7.166,7.266,985.664,0.035,0.946
1.007000,614058,1000.00,12,0,1,1049.847,3.031,7.279,986.145,-0.332,0.940
1.008000,614059,1000.00,12,0,1,1043.362,-2.084,7.276,984.968,-0.557,0.901
1.009000,614060,1000.00,12,0,1,1046.172,-3.188,7.247,985.208,-1.072,0.900
1.010000,614061,1000.00,12,0,1,1052.153,3.255,7.211,985.280,-0.324,0.883
1.011000,614062,1000.00,12,0,1,1055.444,3.756,7.164,985.688,-0.291,0.835
1.012000,614063,1000.00,12,0,1,1052.994,0.655,7.115,986.217,0.371,0.823
1.013000,614064,1000.00,12,0,1,1049.703,-4.418,7.140,985.592,-0.089,0.812
1.014000,614065,1000.00,12,0,1,1052.754,-2.815,7.017,986.889,0.546,0.812
1.015000,614066,1000.00,12,0,1,1052.370,-1.871,6.979,984.559,-0.493,0.815
1.016000,614067,1000.00,12,0,1,1050.400,-4.511,7.001,987.033,0.131,0.806
1.017000,614068,1000.00,12,0,1,1052.202,-1.740,6.999,988.835,3.297,0.922
1.018000,614069,1000.00,12,0,1,1057.462,3.384,7.015,988.475,1.816,0.951
1.019000,614070,1000.00,12,0,1,1058.255,5.888,7.054,986.001,0.085,0.950
1.020000,614071,1000.00,12,0,1,1051.625,0.404,7.037,985.544,-1.127,0.959
1.021000,614072,1000.00,12,0,1,1048.142,-2.383,7.043,986.433,0.273,0.959
1.022000,614073,1000.00,12,0,1,1047.253,-1.109,7.042,985.880,-0.038,0.934
1.023000,614074,1000.00,12,0,1,1046.581,-0.442,6.950,986.265,0.015,0.934
1.024000,614075,1000.00,12,0,1,1043.602,-1.392,6.852,986.433,0.633,0.926
1.025000,614076,1000.00,12,0,1,1043.194,-1.648,6.593,988.427,1.673,0.951
1.026000,614077,1000.00,12,0,1,1044.179,0.335,6.586,986.841,1.112,0.963
1.027000,614078,1000.00,12,0,1,1043.194,-0.560,6.576,988.715,1.007,0.973
1.028000,614079,1000.00,12,0,1,1040.696,-3.052,6.548,987.394,1.226,0.981
1.029000,614080,1000.00,12,0,1,1041.632,-3.141,6.557,987.658,-0.415,0.980
1.030000,614081,1000.00,12,0,1,1048.887,2.340,6.562,986.793,-0.060,0.980
1.031000,614082,1000.00,12,0,1,1061.305,11.657,6.765,987.586,-0.592,0.981
1.032000,614083,1000.00,12,0,1,1062.867,11.912,6.953,987.009,-0.241,0.973
1.033000,614084,1000.00,12,0,1,1066.374,9.551,7.065,986.985,-1.006,0.983
1.034000,614085,1000.00,12,0,1,1067.935,9.774,7.189,988.379,0.409,0.979
1.035000,614086,1000.00,12,0,1,1062.939,2.351,7.185,987.394,-0.124,0.976
1.036000,614087,1000.00,12,0,1,1062.506,-0.158,7.185,986.169,-1.750,0.999
1.037000,614088,1000.00,12,0,1,1063.491,1.113,7.161,985.880,-1.447,1.007
1.038000,614089,1000.00,12,0,1,1060.897,-1.178,7.150,986.601,-0.940,1.005
1.039000,614090,1000.00,12,0,1,1057.846,-3.132,7.158,986.745,-0.110,1.005
1.040000,614091,1000.00,12,0,1,1052.946,-5.896,7.204,986.001,-0.893,1.012
1.041000,614092,1000.00,12,0,1,1046.244,-9.683,7.248,984.199,-1.944,1.047
1.042000,614093,1000.00,12,0,1,1043.242,-10.285,7.269,985.040,-1.453,1.020
1.043000,614094,1000.00,12,0,1,1040.023,-9.464,7.034,986.145,0.411,1.018
1.044000,614095,1000.00,12,0,1,1041.128,-6.982,7.002,984.583,-0.830,1.015
1.045000,614096,1000.00,12,0,1,1042.257,-2.953,6.680,985.472,-0.407,1.014
1.046000,614097,1000.00,12,0,1,1043.290,-1.734,6.432,986.265,0.962,0.998
1.047000,614098,1000.00,12,0,1,1043.602,-0.677,6.409,986.745,0.909,1.002
1.048000,614099,1000.00,12,0,1,1043.914,-1.123,6.146,985.232,-0.028,1.002
1.049000,614100,1000.00,12,0,1,1051.313,3.766,6.168,984.511,-1.300,1.018
1.050000,614101,1000.00,12,0,1,1052.730,5.185,5.532,986.241,0.451,1.005
1.051000,614102,1000.00,12,0,1,1054.604,2.872,5.393,986.001,0.561,1.003
1.052000,614103,1000.00,12,0,1,1051.673,0.307,5.149,984.631,-0.961,0.990
1.053000,614104,1000.00,12,0,1,1046.917,-6.569,5.201,987.346,1.082,0.983
1.054000,614105,1000.00,12,0,1,1041.969,-10.055,5.152,986.913,1.545,1.000
1.055000,614106,1000.00,12,0,1,1034.402,-15.519,5.551,986.313,0.029,0.989
1.056000,614107,1000.00,12,0,1,1045.812,-5.680,5.517,985.928,0.183,0.990
1.057000,614108,1000.00,12,0,1,1054.387,7.444,5.600,987.130,0.747,0.994
1.058000,614109,1000.00,12,0,1,1042.641,-2.092,5.600,986.985,1.185,1.005
1.059000,614110,1000.00,12,0,1,1043.794,-2.324,5.591,986.121,0.016,0.993
1.060000,614111,1000.00,12,0,1,1055.564,11.471,5.804,984.271,-1.276,1.009
1.061000,614112,1000.00,12,0,1,1067.214,21.602,6.537,983.959,-1.665,1.035
1.062000,614113,1000.00,12,0,1,1067.887,22.361,7.261,983.863,-1.108,1.045
1.063000,614114,1000.00,12,0,1,1056.357,9.677,7.363,985.400,0.206,1.046
1.064000,614115,1000.00,12,0,1,1047.253,-0.576,7.352,983.911,-0.291,1.044
1.065000,614116,1000.00,12,0,1,1047.205,-0.980,7.349,984.992,-0.197,1.042
1.066000,614117,1000.00,12,0,1,1046.172,-1.047,7.323,985.112,0.858,1.049
1.067000,614118,1000.00,12,0,1,1052.970,2.897,7.330,986.361,1.070,0.951
1.068000,614119,1000.00,12,0,1,1052.250,3.576,7.332,986.265,1.488,0.940
1.069000,614120,1000.00,12,0,1,1044.803,-5.966,7.333,986.433,0.803,0.947
1.070000,614121,1000.00,12,0,1,1045.836,-6.673,7.393,984.631,-0.447,0.935
1.071000,614122,1000.00,12,0,1,1042.881,-8.053,7.473,984.223,-1.461,0.957
1.072000,614123,1000.00,12,0,1,1042.569,-10.362,7.614,984.751,-0.576,0.961
1.073000,614124,1000.00,12,0,1,1042.089,-8.723,7.713,985.112,-0.196,0.961
1.074000,614125,1000.00,12,0,1,1052.754,-1.514,7.713,986.769,1.048,0.968
1.075000,614126,1000.00,12,0,1,1058.087,6.357,7.762,985.784,0.777,0.945
1.076000,614127,1000.00,12,0,1,1040.744,-8.963,7.864,983.863,-1.541,0.957
1.077000,614128,1000.00,12,0,1,1038.101,-13.774,8.102,987.009,1.134,0.960
1.078000,614129,1000.00,12,0,1,1037.357,-8.089,8.171,986.385,1.575,0.970
1.079000,614130,1000.00,12,0,1,1036.660,-8.214,8.241,986.217,0.327,0.970
1.080000,614131,1000.00,12,0,1,1041.008,-0.328,8.234,987.706,2.067,1.013
1.081000,614132,1000.00,12,0,1,1046.581,6.152,8.114,987.033,1.351,1.027
1.082000,614133,1000.00,12,0,1,1048.070,9.342,8.047,987.081,0.848,1.034
1.083000,614134,1000.00,12,0,1,1049.992,10.374,8.067,987.946,1.646,1.050
1.084000,614135,1000.00,12,0,1,1048.887,9.755,8.067,985.952,-0.128,1.048
1.085000,614136,1000.00,12,0,1,1050.016,8.901,8.158,987.874,0.590,1.052
1.086000,614137,1000.00,12,0,1,1052.081,9.965,8.278,986.001,0.086,1.022
1.087000,614138,1000.00,12,0,1,1050.016,6.701,8.331,985.064,-2.113,1.045
1.088000,614139,1000.00,12,0,1,1048.094,2.510,8.337,986.433,-0.223,1.037
1.089000,614140,1000.00,12,0,1,1049.079,1.954,8.330,986.553,-0.190,1.037
1.090000,614141,1000.00,12,0,1,1046.076,-1.732,8.291,984.992,-1.539,1.052
1.091000,614142,1000.00,12,0,1,1048.046,-2.383,8.184,984.199,-2.327,1.068
1.092000,614143,1000.00,12,0,1,1048.622,-1.549,8.057,985.904,-0.829,1.054
1.093000,614144,1000.00,12,0,1,1049.319,-2.751,7.955,987.202,0.845,1.059
1.094000,614145,1000.00,12,0,1,1053.715,0.637,7.894,987.130,0.468,1.055
1.095000,614146,1000.00,12,0,1,1050.592,-1.460,7.885,985.712,-0.608,1.057
1.096000,614147,1000.00,12,0,1,1046.340,-6.512,7.935,986.937,-0.151,1.048
1.097000,614148,1000.00,12,0,1,1053.739,0.163,7.935,987.202,0.873,1.048
1.098000,614149,1000.00,12,0,1,1052.538,2.018,7.938,985.640,-0.881,1.055
1.099000,614150,1000.00,12,0,1,1054.724,1.809,7.924,987.009,0.154,1.039
1.100000,614151,1000.00,12,0,1,1070.217,15.876,8.204,984.992,-0.663,1.041
1.101000,614152,1000.00,12,0,1,1058.279,8.614,8.284,986.385,-0.582,1.042
1.102000,614153,1000.00,12,0,1,1036.036,-14.992,8.551,987.130,1.445,1.053
1.103000,614154,1000.00,12,0,1,1037.837,-12.542,8.683,986.433,0.056,1.042
1.104000,614155,1000.00,12,0,1,1054.628,5.062,8.596,984.151,-1.356,1.036
1.105000,614156,1000.00,12,0,1,1050.640,5.211,8.343,985.664,-0.794,1.042
1.106000,614157,1000.00,12,0,1,1037.477,-9.130,8.404,986.241,0.805,1.048
1.107000,614158,1000.00,12,0,1,1042.689,-5.382,8.373,987.298,0.941,1.051
1.108000,614159,1000.00,12,0,1,1042.209,-2.305,8.374,985.520,0.027,1.038
1.109000,614160,1000.00,12,0,1,1038.726,-7.646,8.437,985.376,-1.060,1.049
1.110000,614161,1000.00,12,0,1,1040.744,-4.963,8.309,984.583,-0.995,1.043
1.111000,614162,1000.00,12,0,1,1045.788,-1.166,7.729,984.199,-1.690,1.043
1.112000,614163,1000.00,12,0,1,1052.129,4.124,7.077,986.145,0.150,1.032
1.113000,614164,1000.00,12,0,1,1053.859,4.812,6.976,986.577,1.030,1.042
1.114000,614165,1000.00,12,0,1,1050.160,0.145,6.976,984.367,-1.192,1.054
1.115000,614166,1000.00,12,0,1,1040.984,-7.999,7.066,985.568,-0.441,1.056
1.116000,614167,1000.00,12,0,1,1039.134,-10.356,7.214,986.361,0.866,1.056
1.117000,614168,1000.00,12,0,1,1043.122,-4.061,7.226,987.202,1.225,1.059
1.118000,614169,1000.00,12,0,1,1040.936,-3.668,7.227,984.944,-0.233,1.039
1.119000,614170,1000.00,12,0,1,1038.077,-5.008,7.212,983.647,-1.980,1.070
1.120000,614171,1000.00,12,0,1,1037.477,-3.138,7.164,985.736,0.237,1.069
1.121000,614172,1000.00,12,0,1,1033.970,-3.612,7.091,985.856,0.991,1.058
1.122000,614173,1000.00,12,0,1,1038.726,1.217,6.940,985.184,-0.007,1.055
1.123000,614174,1000.00,12,0,1,1044.611,9.226,6.953,986.145,0.961,1.063
1.124000,614175,1000.00,12,0,1,1043.338,8.239,7.047,984.751,0.037,1.053
1.125000,614176,1000.00,12,0,1,1046.533,9.401,7.115,987.081,1.217,1.061
1.126000,614177,1000.00,12,0,1,1047.133,10.274,7.150,986.433,1.714,1.066
1.127000,614178,1000.00,12,0,1,1041.344,3.228,6.895,986.145,0.136,1.054
1.128000,614179,1000.00,12,0,1,1041.632,1.389,6.802,983.671,-1.121,1.042
1.129000,614180,1000.00,12,0,1,1042.065,1.761,6.707,984.319,-1.677,1.068
1.130000,614181,1000.00,12,0,1,1043.602,1.101,6.708,985.280,0.260,1.028
1.131000,614182,1000.00,12,0,1,1047.133,3.374,6.669,986.697,0.884,1.018
1.132000,614183,1000.00,12,0,1,1044.059,-0.011,6.536,986.985,1.440,1.031
1.133000,614184,1000.00,12,0,1,1039.783,-5.520,6.417,987.274,1.110,1.017
1.134000,614185,1000.00,12,0,1,1042.161,-3.815,6.290,985.832,-0.075,1.017
1.135000,614186,1000.00,12,0,1,1044.443,-0.905,6.165,985.328,-0.960,1.022
1.136000,614187,1000.00,12,0,1,1045.524,-0.052,6.001,985.784,-0.386,1.024
1.137000,614188,1000.00,12,0,1,1032.216,-9.191,6.067,984.343,-1.210,0.994
1.138000,614189,1000.00,12,0,1,1042.137,-4.195,6.086,985.064,-1.082,1.005
1.139000,614190,1000.00,12,0,1,1051.961,11.131,6.280,983.767,-0.996,1.014
1.140000,614191,1000.00,12,0,1,1047.662,5.564,6.324,984.559,-1.152,1.004
1.141000,614192,1000.00,12,0,1,1037.837,-2.188,6.323,984.583,0.184,0.949
1.142000,614193,1000.00,12,0,1,1030.823,-8.237,6.425,985.112,-0.039,0.942
1.143000,614194,1000.00,12,0,1,1033.513,-4.562,6.446,985.208,0.763,0.940
1.144000,614195,1000.00,12,0,1,1036.468,1.052,6.447,984.511,-0.151,0.938
1.145000,614196,1000.00,12,0,1,1044.683,7.002,6.519,985.136,0.345,0.936
1.146000,614197,1000.00,12,0,1,1046.076,10.252,6.615,985.184,0.666,0.940
1.147000,614198,1000.00,12,0,1,1041.416,2.945,6.628,985.280,0.341,0.933
1.148000,614199,1000.00,12,0,1,1037.717,-0.828,6.623,985.928,1.015,0.936
1.149000,614200,1000.00,12,0,1,1042.833,1.282,6.620,984.944,0.044,0.936
1.150000,614201,1000.00,12,0,1,1044.010,3.329,6.246,984.151,-0.884,0.939
1.151000,614202,1000.00,12,0,1,1043.770,0.281,6.126,983.911,-1.003,0.946
1.152000,614203,1000.00,12,0,1,1043.290,-0.465,5.748,986.241,0.819,0.931
1.153000,614204,1000.00,12,0,1,1045.956,0.128,5.467,985.760,1.053,0.943
1.154000,614205,1000.00,12,0,1,1050.904,4.021,5.450,983.887,-1.222,0.939
1.155000,614206,1000.00,12,0,1,1049.223,2.486,5.411,983.647,-1.286,0.950
1.156000,614207,1000.00,12,0,1,1045.788,-2.160,5.264,985.760,0.584,0.947
1.157000,614208,1000.00,12,0,1,1039.398,-6.386,5.286,985.448,0.915,0.947
1.158000,614209,1000.00,12,0,1,1033.225,-11.496,5.521,985.952,0.675,0.951
1.159000,614210,1000.00,12,0,1,1033.081,-9.200,5.568,986.841,1.775,0.972
1.160000,614211,1000.00,12,0,1,1034.859,-4.935,5.568,986.553,1.272,0.979
1.161000,614212,1000.00,12,0,1,1049.055,7.823,5.674,985.832,0.433,0.951
1.162000,614213,1000.00,12,0,1,1062.602,21.742,6.427,984.439,-0.720,0.956
1.163000,614214,1000.00,12,0,1,1052.634,12.470,6.630,984.487,-0.953,0.955
1.164000,614215,1000.00,12,0,1,1038.005,-4.226,6.657,984.559,-0.350,0.941
1.165000,614216,1000.00,12,0,1,1035.267,-6.949,6.633,985.712,0.309,0.940
1.166000,614217,1000.00,12,0,1,1041.248,-1.117,6.472,986.841,1.629,0.960
1.167000,614218,1000.00,12,0,1,1047.205,4.728,6.481,985.016,-0.081,0.944
1.168000,614219,1000.00,12,0,1,1054.844,9.522,6.599,984.559,-1.049,0.955
1.169000,614220,1000.00,12,0,1,1048.310,3.989,6.585,985.688,0.191,0.914
1.170000,614221,1000.00,12,0,1,1037.189,-9.469,6.705,987.226,1.329,0.932
1.171000,614222,1000.00,12,0,1,1032.336,-13.562,6.955,984.824,-0.374,0.923
1.172000,614223,1000.00,12,0,1,1042.329,-5.412,6.995,986.313,-0.372,0.925
1.173000,614224,1000.00,12,0,1,1045.476,0.617,6.873,986.265,0.814,0.922
1.174000,614225,1000.00,12,0,1,1042.449,-3.745,6.794,984.559,-1.541,0.947
1.175000,614226,1000.00,12,0,1,1043.674,-2.562,6.672,982.518,-2.770,1.011
1.176000,614227,1000.00,12,0,1,1041.368,-3.145,6.527,983.743,-1.964,1.020
1.177000,614228,1000.00,12,0,1,1037.333,-6.659,6.579,985.184,0.239,1.020
1.178000,614229,1000.00,12,0,1,1042.353,-1.347,6.579,986.481,1.212,1.022
1.179000,614230,1000.00,12,0,1,1042.689,1.611,6.578,986.913,1.716,1.023
1.180000,614231,1000.00,12,0,1,1042.545,1.108,6.578,985.544,0.444,1.025
1.181000,614232,1000.00,12,0,1,1043.914,3.555,6.580,985.136,-0.376,1.018
1.182000,614233,1000.00,12,0,1,1040.119,1.162,6.582,985.352,0.191,0.998
1.183000,614234,1000.00,12,0,1,1041.632,1.501,6.539,985.472,0.101,0.986
1.184000,614235,1000.00,12,0,1,1040.840,2.904,6.530,985.280,0.164,0.986
1.185000,614236,1000.00,12,0,1,1029.358,-7.039,6.604,984.872,-0.364,0.978
1.186000,614237,1000.00,12,0,1,1022.296,-13.312,6.867,986.193,0.692,0.981
1.187000,614238,1000.00,12,0,1,1029.550,-5.746,6.792,986.841,1.431,0.987
1.188000,614239,1000.00,12,0,1,1040.167,5.597,6.812,984.607,-0.606,0.979
1.189000,614240,1000.00,12,0,1,1053.691,15.790,6.994,983.502,-2.014,1.010
1.190000,614241,1000.00,12,0,1,1052.634,14.851,7.260,986.121,0.341,0.998
1.191000,614242,1000.00,12,0,1,1052.682,8.786,7.359,988.787,2.929,1.080
1.192000,614243,1000.00,12,0,1,1042.449,0.706,7.267,987.610,1.760,1.108
1.193000,614244,1000.00,12,0,1,1037.789,-8.197,7.330,986.889,0.226,1.104
1.194000,614245,1000.00,12,0,1,1045.836,0.131,7.329,986.961,0.355,1.105
1.195000,614246,1000.00,12,0,1,1044.443,0.415,7.262,983.863,-2.170,1.145
1.196000,614247,1000.00,12,0,1,1043.266,-2.634,7.125,983.622,-2.937,1.215
1.197000,614248,1000.00,12,0,1,1041.969,-1.614,7.117,985.184,-0.634,1.217
1.198000,614249,1000.00,12,0,1,1039.134,-4.459,7.144,986.721,0.680,1.212
1.199000,614250,1000.00,12,0,1,1036.636,-4.572,7.171,986.937,1.195,1.224
1.200000,614251,1000.00,12,0,1,1029.670,-8.945,7.266,985.424,-0.313,1.219
1.201000,614252,1000.00,12,0,1,1025.707,-10.781,7.424,986.433,0.158,1.210
1.202000,614253,1000.00,12,0,1,1025.635,-7.887,7.507,987.274,1.386,1.221
1.203000,614254,1000.00,12,0,1,1027.580,-3.922,7.528,985.832,-0.118,1.212
1.204000,614255,1000.00,12,0,1,1036.084,4.542,7.534,985.544,-0.636,1.203
1.205000,614256,1000.00,12,0,1,1034.835,5.818,7.570,985.304,-0.569,1.192
1.206000,614257,1000.00,12,0,1,1034.907,3.067,7.577,985.640,-0.440,1.190
1.207000,614258,1000.00,12,0,1,1056.045,19.498,8.012,984.848,-0.730,1.188
1.208000,614259,1000.00,12,0,1,1054.772,20.444,8.361,986.505,0.148,1.184
1.209000,614260,1000.00,12,0,1,1026.091,-9.770,8.374,985.904,0.470,1.159
1.210000,614261,1000.00,12,0,1,1025.394,-15.152,8.616,986.721,0.147,1.145
1.211000,614262,1000.00,12,0,1,1034.546,-2.317,8.551,987.033,1.081,1.154
1.212000,614263,1000.00,12,0,1,1036.660,-1.091,7.980,985.472,-0.735,1.154
1.213000,614264,1000.00,12,0,1,1037.861,0.282,7.783,984.103,-1.926,1.178
1.214000,614265,1000.00,12,0,1,1038.366,0.455,7.760,986.673,0.110,1.177
1.215000,614266,1000.00,12,0,1,1039.807,1.516,7.701,985.544,0.153,1.176
1.216000,614267,1000.00,12,0,1,1042.449,4.018,7.720,984.223,-1.788,1.181
1.217000,614268,1000.00,12,0,1,1039.471,1.972,7.696,985.904,0.022,1.181
1.218000,614269,1000.00,12,0,1,1035.363,-1.890,7.582,986.265,0.807,1.177
1.219000,614270,1000.00,12,0,1,1034.354,-1.990,7.566,984.415,-0.933,1.184
1.220000,614271,1000.00,12,0,1,1034.402,-0.557,7.447,984.631,-0.848,1.175
1.221000,614272,1000.00,12,0,1,1033.730,-0.155,7.196,985.256,0.108,1.174
1.222000,614273,1000.00,12,0,1,1032.793,-0.032,7.155,984.896,-0.056,1.173
1.223000,614274,1000.00,12,0,1,1030.607,-1.179,7.157,984.223,-0.645,1.171
1.224000,614275,1000.00,12,0,1,1028.277,-2.628,7.147,983.695,-0.899,1.158
1.225000,614276,1000.00,12,0,1,1027.316,-2.955,7.150,985.904,0.786,1.095
1.226000,614277,1000.00,12,0,1,1025.827,-3.402,7.152,985.664,1.356,1.076
1.227000,614278,1000.00,12,0,1,1027.124,-2.445,7.098,984.439,-0.467,1.078
1.228000,614279,1000.00,12,0,1,1029.310,0.105,7.096,985.832,0.750,1.069
1.229000,614280,1000.00,12,0,1,1028.157,-1.037,7.093,986.937,1.819,1.073
1.230000,614281,1000.00,12,0,1,1032.625,1.418,7.095,984.824,-0.055,1.071
1.231000,614282,1000.00,12,0,1,1038.438,6.729,7.140,985.880,0.019,1.070
1.232000,614283,1000.00,12,0,1,1040.503,7.038,7.208,987.706,2.145,1.112
1.233000,614284,1000.00,12,0,1,1038.438,4.065,7.227,986.361,0.756,1.117
1.234000,614285,1000.00,12,0,1,1033.033,-1.714,7.220,985.544,-0.501,1.119
1.235000,614286,1000.00,12,0,1,1029.190,-5.435,7.192,983.959,-1.439,1.136
1.236000,614287,1000.00,12,0,1,1031.592,-2.755,6.952,984.559,-1.372,1.148
1.237000,614288,1000.00,12,0,1,1036.636,2.995,6.917,985.208,0.070,1.130
1.238000,614289,1000.00,12,0,1,1038.846,5.753,6.920,986.385,0.691,1.131
1.239000,614290,1000.00,12,0,1,1034.618,2.526,6.560,984.655,-0.078,1.095
1.240000,614291,1000.00,12,0,1,1029.766,-1.905,6.220,984.463,-1.085,1.104
1.241000,614292,1000.00,12,0,1,1026.355,-3.701,6.117,986.313,1.095,1.035
1.242000,614293,1000.00,12,0,1,1025.827,-3.183,6.133,985.592,0.643,1.009
1.243000,614294,1000.00,12,0,1,1030.943,2.154,6.030,984.007,-1.090,1.020
1.244000,614295,1000.00,12,0,1,1032.408,4.855,6.069,983.959,-1.023,1.029
1.245000,614296,1000.00,12,0,1,1031.448,2.852,6.082,986.001,0.679,0.987
1.246000,614297,1000.00,12,0,1,1030.343,1.613,6.075,987.346,2.189,0.948
1.247000,614298,1000.00,12,0,1,1025.995,-2.674,6.082,987.057,1.460,0.966
1.248000,614299,1000.00,12,0,1,1031.640,0.240,6.050,986.841,0.930,0.970
1.249000,614300,1000.00,12,0,1,1034.859,4.482,6.048,986.049,0.050,0.955
1.250000,614301,1000.00,12,0,1,1035.459,2.326,5.924,985.880,-0.407,0.956
1.251000,614302,1000.00,12,0,1,1038.486,4.035,5.752,986.145,-0.106,0.956
1.252000,614303,1000.00,12,0,1,1040.768,4.599,5.681,986.433,0.056,0.935
1.253000,614304,1000.00,12,0,1,1041.272,3.660,5.677,986.241,-0.059,0.935
1.254000,614305,1000.00,12,0,1,1042.353,3.249,5.659,986.073,-0.324,0.932
1.255000,614306,1000.00,12,0,1,1043.770,3.575,5.622,986.721,0.218,0.929
1.256000,614307,1000.00,12,0,1,1043.074,2.616,5.618,985.040,-0.851,0.935
1.257000,614308,1000.00,12,0,1,1035.123,-4.090,4.928,986.601,-0.244,0.930
1.258000,614309,1000.00,12,0,1,1020.951,-15.487,4.553,986.193,0.543,0.933
1.259000,614310,1000.00,12,0,1,1024.217,-12.666,4.693,984.559,-1.590,0.957
1.260000,614311,1000.00,12,0,1,1032.384,-0.197,4.175,984.655,-1.146,0.970
1.261000,614312,1000.00,12,0,1,1040.119,6.624,4.267,985.472,-0.263,0.959
1.262000,614313,1000.00,12,0,1,1027.989,-0.388,4.264,987.009,1.092,0.966
1.263000,614314,1000.00,12,0,1,1025.274,-7.147,4.382,987.033,1.333,0.946
1.264000,614315,1000.00,12,0,1,1025.947,-2.002,4.391,986.793,0.534,0.948
1.265000,614316,1000.00,12,0,1,1023.593,-4.898,4.440,984.535,-1.067,0.960
1.266000,614317,1000.00,12,0,1,1032.360,2.449,4.417,983.911,-2.284,0.981
1.267000,614318,1000.00,12,0,1,1035.627,7.101,4.521,984.319,-1.175,0.995
1.268000,614319,1000.00,12,0,1,1024.530,-4.386,4.556,984.343,-1.153,1.002
1.269000,614320,1000.00,12,0,1,1032.937,-0.552,4.548,985.232,-0.210,0.993
1.270000,614321,1000.00,12,0,1,1037.213,6.197,4.631,986.985,1.358,1.005
1.271000,614322,1000.00,12,0,1,1038.966,3.817,4.662,985.544,0.408,1.006
1.272000,614323,1000.00,12,0,1,1037.957,3.234,4.684,984.848,-0.865,1.014
1.273000,614324,1000.00,12,0,1,1031.952,-3.588,4.709,983.839,-1.158,1.023
1.274000,614325,1000.00,12,0,1,1029.550,-6.294,4.778,984.223,-1.091,1.026
1.275000,614326,1000.00,12,0,1,1027.196,-6.426,4.845,984.559,-0.135,1.020
1.276000,614327,1000.00,12,0,1,1029.238,-4.606,4.865,984.607,-0.127,1.002
1.277000,614328,1000.00,12,0,1,1026.860,-3.048,4.872,985.088,0.437,1.002
1.278000,614329,1000.00,12,0,1,1025.491,-4.560,4.915,985.544,0.960,1.006
1.279000,614330,1000.00,12,0,1,1028.589,0.831,4.914,985.784,1.056,0.984
1.280000,614331,1000.00,12,0,1,1035.627,7.327,5.018,984.367,0.038,0.984
1.281000,614332,1000.00,12,0,1,1042.930,14.459,5.334,985.040,0.023,0.984
1.282000,614333,1000.00,12,0,1,1034.330,7.392,5.344,985.304,0.924,0.945
1.283000,614334,1000.00,12,0,1,1022.536,-5.619,5.372,984.199,-0.406,0.940
1.284000,614335,1000.00,12,0,1,1015.498,-10.544,5.570,984.655,-0.062,0.938
1.285000,614336,1000.00,12,0,1,1015.858,-9.709,5.685,985.016,0.468,0.918
1.286000,614337,1000.00,12,0,1,1026.571,0.972,5.673,985.040,0.310,0.898
1.287000,614338,1000.00,12,0,1,1034.450,8.958,5.797,985.904,0.959,0.908
1.288000,614339,1000.00,12,0,1,1039.591,11.076,5.950,985.712,0.823,0.911
1.289000,614340,1000.00,12,0,1,1045.211,13.673,6.246,987.081,1.423,0.932
1.290000,614341,1000.00,12,0,1,1035.603,4.048,6.266,985.880,0.826,0.927
1.291000,614342,1000.00,12,0,1,1032.865,-3.514,6.264,985.400,-0.537,0.917
1.292000,614343,1000.00,12,0,1,1049.920,10.509,6.422,984.079,-1.038,0.924
1.293000,614344,1000.00,12,0,1,1054.892,15.616,6.785,984.703,-1.095,0.925
1.294000,614345,1000.00,12,0,1,1037.597,-2.164,6.757,985.232,0.143,0.913
1.295000,614346,1000.00,12,0,1,1039.591,-5.132,6.784,985.160,-0.151,0.909
1.296000,614347,1000.00,12,0,1,1036.348,-2.823,6.792,984.055,-0.813,0.862
1.297000,614348,1000.00,12,0,1,1039.014,-4.036,6.805,982.758,-1.905,0.879
1.298000,614349,1000.00,12,0,1,1046.196,5.858,6.855,982.662,-1.787,0.905
1.299000,614350,1000.00,12,0,1,1040.407,1.111,6.828,985.160,0.643,0.910
1.300000,614351,1000.00,12,0,1,1027.460,-10.227,6.971,984.583,0.807,0.915
1.301000,614352,1000.00,12,0,1,1023.857,-12.723,7.177,983.118,-0.950,0.925
1.302000,614353,1000.00,12,0,1,1031.736,-3.865,7.169,983.622,-0.420,0.927
1.303000,614354,1000.00,12,0,1,1031.063,-0.778,7.151,984.992,0.961,0.937
1.304000,614355,1000.00,12,0,1,1009.733,-18.313,7.591,984.920,0.964,0.945
1.305000,614356,1000.00,12,0,1,1012.255,-18.331,8.006,983.118,-0.664,0.949
1.306000,614357,1000.00,12,0,1,1021.551,-3.764,8.015,984.751,0.142,0.942
1.307000,614358,1000.00,12,0,1,1025.827,-0.512,7.994,985.208,1.367,0.961
1.308000,614359,1000.00,12,0,1,1029.022,2.777,7.699,984.487,0.039,0.958
1.309000,614360,1000.00,12,0,1,1029.958,2.633,7.497,985.304,0.763,0.937
1.310000,614361,1000.00,12,0,1,1025.755,-1.744,7.501,986.145,1.420,0.945
1.311000,614362,1000.00,12,0,1,1022.944,-5.154,7.477,985.856,1.037,0.955
1.312000,614363,1000.00,12,0,1,1024.890,-3.472,7.493,985.160,0.197,0.943
1.313000,614364,1000.00,12,0,1,1028.613,0.771,7.426,984.343,-0.580,0.928
1.314000,614365,1000.00,12,0,1,1031.159,3.108,7.433,985.712,0.409,0.927
1.315000,614366,1000.00,12,0,1,1027.821,1.324,7.403,985.832,0.976,0.925
1.316000,614367,1000.00,12,0,1,1031.688,3.212,7.409,982.830,-1.693,0.899
1.317000,614368,1000.00,12,0,1,1039.086,11.653,7.523,982.590,-2.272,0.940
1.318000,614369,1000.00,12,0,1,1029.478,4.431,7.524,983.598,-0.555,0.929
1.319000,614370,1000.00,12,0,1,1020.302,-5.317,7.561,984.583,0.271,0.929
1.320000,614371,1000.00,12,0,1,1020.831,-2.764,7.520,984.463,0.540,0.913
1.321000,614372,1000.00,12,0,1,1025.755,3.107,7.514,983.598,-0.441,0.913
1.322000,614373,1000.00,12,0,1,1031.496,9.225,7.612,984.079,-0.091,0.905
1.323000,614374,1000.00,12,0,1,1034.162,11.344,7.763,984.271,0.304,0.891
1.324000,614375,1000.00,12,0,1,1033.153,9.093,7.818,984.175,0.011,0.877
1.325000,614376,1000.00,12,0,1,1030.799,5.305,7.802,985.664,1.136,0.892
1.326000,614377,1000.00,12,0,1,1028.373,1.580,7.777,985.232,0.974,0.902
1.327000,614378,1000.00,12,0,1,1028.349,0.049,7.766,983.310,-1.120,0.914
1.328000,614379,1000.00,12,0,1,1023.953,-3.986,7.759,983.286,-1.293,0.922
1.329000,614380,1000.00,12,0,1,1024.386,-5.743,7.801,983.238,-0.888,0.918
1.330000,614381,1000.00,12,0,1,1030.271,-0.302,7.732,985.784,0.928,0.928
1.331000,614382,1000.00,12,0,1,1034.162,2.507,7.465,984.583,0.876,0.936
1.332000,614383,1000.00,12,0,1,1035.723,2.654,7.401,986.793,1.261,0.944
1.333000,614384,1000.00,12,0,1,1038.270,3.529,7.375,985.880,1.887,0.979
1.334000,614385,1000.00,12,0,1,1037.597,2.469,7.231,985.016,-0.387,0.981
1.335000,614386,1000.00,12,0,1,1036.156,0.140,7.100,985.040,0.336,0.980
1.336000,614387,1000.00,12,0,1,1031.183,-3.490,7.115,986.505,1.065,0.990
1.337000,614388,1000.00,12,0,1,1028.037,-6.242,7.057,986.121,1.198,0.995
1.338000,614389,1000.00,12,0,1,1029.454,-3.327,6.897,985.376,0.010,0.988
1.339000,614390,1000.00,12,0,1,1028.565,-1.946,6.626,985.304,-0.082,0.968
1.340000,614391,1000.00,12,0,1,1029.262,-0.811,6.602,986.145,0.622,0.965
1.341000,614392,1000.00,12,0,1,1030.751,2.200,6.591,985.977,0.446,0.964
1.342000,614393,1000.00,12,0,1,1032.384,3.653,6.442,986.289,0.451,0.955
1.343000,614394,1000.00,12,0,1,1030.487,2.730,6.064,985.208,-0.430,0.944
1.344000,614395,1000.00,12,0,1,1025.106,-2.559,6.067,984.631,-1.258,0.960
1.345000,614396,1000.00,12,0,1,1020.158,-6.854,6.101,983.911,-1.638,0.988
1.346000,614397,1000.00,12,0,1,1023.305,-4.529,6.121,985.304,-0.653,0.985
1.347000,614398,1000.00,12,0,1,1026.475,-0.448,6.095,984.607,-0.577,0.951
1.348000,614399,1000.00,12,0,1,1026.115,-1.552,6.043,984.487,-1.252,0.934
1.349000,614400,1000.00,12,0,1,1021.359,-5.801,6.096,983.791,-1.247,0.946
1.350000,614401,1000.00,12,0,1,1027.532,-2.558,5.933,984.824,-0.737,0.945
1.351000,614402,1000.00,12,0,1,1033.081,4.049,5.682,983.983,-0.644,0.940
1.352000,614403,1000.00,12,0,1,1034.955,3.688,5.680,983.142,-1.764,0.971
1.353000,614404,1000.00,12,0,1,1033.201,1.888,5.685,984.535,-0.250,0.962
1.354000,614405,1000.00,12,0,1,1033.489,0.598,5.062,986.337,1.617,0.979
1.355000,614406,1000.00,12,0,1,1030.751,-0.841,4.349,983.935,-0.154,0.975
1.356000,614407,1000.00,12,0,1,1029.358,-2.502,4.331,984.199,-0.716,0.980
1.357000,614408,1000.00,12,0,1,1033.826,2.210,4.342,985.040,0.805,0.967
1.358000,614409,1000.00,12,0,1,1028.421,0.201,4.324,984.631,0.281,0.968
1.359000,614410,1000.00,12,0,1,1020.662,-7.280,4.429,985.712,1.030,0.973
1.360000,614411,1000.00,12,0,1,1023.281,-3.132,4.444,986.769,2.150,1.000
1.361000,614412,1000.00,12,0,1,1021.119,-1.834,4.392,987.105,1.981,1.028
1.362000,614413,1000.00,12,0,1,1018.789,-3.615,4.394,984.079,-0.410,1.029
1.363000,614414,1000.00,12,0,1,1018.188,-2.128,4.403,983.406,-1.982,1.063
1.364000,614415,1000.00,12,0,1,1023.064,2.041,4.391,985.400,0.431,1.063
1.365000,614416,1000.00,12,0,1,1027.797,7.215,4.504,984.848,0.124,1.055
1.366000,614417,1000.00,12,0,1,1027.869,6.097,4.563,985.184,-0.060,1.027
1.367000,614418,1000.00,12,0,1,1025.971,2.825,4.274,985.280,0.387,0.977
1.368000,614419,1000.00,12,0,1,1026.211,1.353,4.232,982.878,-1.773,1.006
1.369000,614420,1000.00,12,0,1,1028.397,1.966,4.174,984.439,-0.915,1.013
1.370000,614421,1000.00,12,0,1,1034.138,5.317,4.223,983.598,-0.452,1.012
1.371000,614422,1000.00,12,0,1,1035.843,5.929,4.283,983.262,-1.567,1.034
1.372000,614423,1000.00,12,0,1,1026.980,-2.969,4.101,985.856,1.190,1.048
1.373000,614424,1000.00,12,0,1,1026.187,-6.294,3.878,986.553,1.993,1.084
1.374000,614425,1000.00,12,0,1,1032.120,0.588,3.659,984.271,-0.208,1.085
1.375000,614426,1000.00,12,0,1,1037.381,5.029,3.651,985.040,-0.134,1.073
1.376000,614427,1000.00,12,0,1,1030.463,0.580,3.646,983.190,-0.808,1.070
1.377000,614428,1000.00,12,0,1,1028.445,-3.386,3.677,986.121,0.505,1.061
1.378000,614429,1000.00,12,0,1,1023.857,-3.743,3.672,985.184,1.422,1.064
1.379000,614430,1000.00,12,0,1,1017.251,-9.270,3.813,984.079,-1.038,1.067
1.380000,614431,1000.00,12,0,1,1015.258,-8.372,3.993,985.592,0.887,1.066
1.381000,614432,1000.00,12,0,1,1018.933,-3.018,4.000,985.952,1.207,1.073
1.382000,614433,1000.00,12,0,1,1020.590,0.877,3.984,985.160,0.264,1.058
1.383000,614434,1000.00,12,0,1,1019.221,0.466,3.953,982.590,-1.693,1.052
1.384000,614435,1000.00,12,0,1,1014.081,-3.383,3.967,984.583,-0.827,1.057
1.385000,614436,1000.00,12,0,1,1012.615,-4.815,4.025,986.409,2.017,1.094
1.386000,614437,1000.00,12,0,1,1015.642,-1.576,4.000,985.832,0.762,1.089
1.387000,614438,1000.00,12,0,1,1024.626,5.746,3.985,985.664,0.585,1.078
1.388000,614439,1000.00,12,0,1,1021.863,4.210,4.002,984.824,-0.311,1.079
1.389000,614440,1000.00,12,0,1,1022.824,0.907,3.995,983.310,-1.641,1.104
1.390000,614441,1000.00,12,0,1,1024.362,2.983,4.015,983.142,-1.811,1.130
1.391000,614442,1000.00,12,0,1,1020.927,-1.674,4.010,983.911,-0.800,1.134
1.392000,614443,1000.00,12,0,1,1027.821,2.351,3.991,985.400,0.596,1.135
1.393000,614444,1000.00,12,0,1,1025.971,3.191,3.998,983.310,-0.691,1.138
1.394000,614445,1000.00,12,0,1,1021.623,-3.465,4.011,984.439,-0.625,1.127
1.395000,614446,1000.00,12,0,1,1019.750,-3.063,3.916,983.719,0.006,1.103
1.396000,614447,1000.00,12,0,1,1019.293,-3.184,3.890,984.968,0.032,1.099
1.397000,614448,1000.00,12,0,1,1019.942,-0.457,3.890,986.073,1.903,1.129
1.398000,614449,1000.00,12,0,1,1016.891,-1.355,3.888,985.112,0.592,1.118
1.399000,614450,1000.00,12,0,1,1013.937,-2.801,3.821,982.902,-1.282,1.119
1.400000,614451,1000.00,12,0,1,1012.447,-1.977,3.814,983.647,-0.945,1.122
1.401000,614452,1000.00,12,0,1,1012.615,-0.523,3.772,984.415,0.350,1.119
1.402000,614453,1000.00,12,0,1,1012.327,1.013,3.738,982.397,-1.189,1.104
1.403000,614454,1000.00,12,0,1,1010.766,0.187,3.729,983.550,-0.763,1.109
1.404000,614455,1000.00,12,0,1,1013.408,2.458,3.744,984.703,1.219,1.098
1.405000,614456,1000.00,12,0,1,1014.273,3.816,3.781,983.358,-0.296,1.099
1.406000,614457,1000.00,12,0,1,1016.939,4.387,3.815,984.800,0.677,1.098
1.407000,614458,1000.00,12,0,1,1016.387,3.800,3.840,985.568,1.739,1.120
1.408000,614459,1000.00,12,0,1,1015.978,0.974,3.843,984.751,0.623,1.123
1.409000,614460,1000.00,12,0,1,1020.855,3.934,3.744,985.544,0.947,1.121
1.410000,614461,1000.00,12,0,1,1025.202,6.651,3.834,985.160,0.827,1.085
1.411000,614462,1000.00,12,0,1,1029.718,8.182,3.997,984.223,-0.447,1.051
1.412000,614463,1000.00,12,0,1,1026.980,5.102,4.029,984.103,-0.494,1.051
1.413000,614464,1000.00,12,0,1,1026.115,1.141,4.021,984.079,-0.461,1.015
1.414000,614465,1000.00,12,0,1,1024.338,0.421,4.011,984.343,-0.195,1.014
1.415000,614466,1000.00,12,0,1,1021.383,-3.017,3.903,984.800,0.284,1.015
1.416000,614467,1000.00,12,0,1,1022.896,-0.987,3.809,983.719,-0.476,1.017
1.417000,614468,1000.00,12,0,1,1024.362,1.692,3.795,983.310,-1.053,1.026
1.418000,614469,1000.00,12,0,1,1023.112,1.340,3.795,984.151,-0.062,0.995
1.419000,614470,1000.00,12,0,1,1025.106,3.328,3.814,984.920,0.727,0.992
1.420000,614471,1000.00,12,0,1,1034.955,11.676,4.088,986.025,1.535,1.013
1.421000,614472,1000.00,12,0,1,1049.775,23.704,5.219,985.280,1.020,0.999
1.422000,614473,1000.00,12,0,1,1031.352,8.983,5.355,985.568,0.567,0.988
1.423000,614474,1000.00,12,0,1,1003.536,-21.206,6.073,985.952,1.151,0.961
1.424000,614475,1000.00,12,0,1,1007.739,-17.934,6.581,984.679,-0.222,0.961
1.425000,614476,1000.00,12,0,1,1011.126,-8.953,6.664,984.872,-0.401,0.963
1.426000,614477,1000.00,12,0,1,1009.108,-11.567,6.861,986.169,0.865,0.964
1.427000,614478,1000.00,12,0,1,1017.420,-3.519,6.862,985.760,0.515,0.964
1.428000,614479,1000.00,12,0,1,1014.177,-4.177,6.867,984.271,-0.997,0.953
1.429000,614480,1000.00,12,0,1,1008.772,-11.174,6.924,983.959,-1.411,0.963
1.430000,614481,1000.00,12,0,1,1008.268,-10.293,6.975,983.911,-1.113,0.967
1.431000,614482,1000.00,12,0,1,1015.810,-3.998,6.985,983.671,-1.232,0.968
1.432000,614483,1000.00,12,0,1,1024.914,5.401,7.026,982.421,-1.925,1.005
1.433000,614484,1000.00,12,0,1,1029.118,8.379,7.125,983.190,-1.399,0.996
1.434000,614485,1000.00,12,0,1,1024.338,3.770,7.129,984.896,0.674,0.993
1.435000,614486,1000.00,12,0,1,1020.230,-1.337,7.099,981.581,-1.650,0.980
1.436000,614487,1000.00,12,0,1,1021.191,0.130,7.095,983.310,-1.256,0.990
1.437000,614488,1000.00,12,0,1,1015.618,-2.455,7.057,984.295,1.239,1.002
1.438000,614489,1000.00,12,0,1,1011.054,-6.343,7.089,981.365,-1.809,1.033
1.439000,614490,1000.00,12,0,1,1017.251,1.087,7.089,983.478,-0.312,1.008
1.440000,614491,1000.00,12,0,1,1013.264,1.351,7.079,984.271,1.493,0.997
1.441000,614492,1000.00,12,0,1,1007.259,-4.436,7.103,985.280,1.429,1.011
1.442000,614493,1000.00,12,0,1,1002.335,-5.915,7.144,984.391,1.355,1.026
1.443000,614494,1000.00,12,0,1,999.524,-7.264,7.204,985.208,0.890,1.029
1.444000,614495,1000.00,12,0,1,1002.166,-3.095,7.200,984.583,1.148,1.038
1.445000,614496,1000.00,12,0,1,1005.409,1.262,7.190,983.406,-0.683,1.042
1.446000,614497,1000.00,12,0,1,1004.424,0.736,7.176,982.542,-1.055,1.053
1.447000,614498,1000.00,12,0,1,1004.617,0.094,7.176,984.079,0.009,1.018
1.448000,614499,1000.00,12,0,1,1012.519,5.704,7.219,986.265,2.268,1.064
1.449000,614500,1000.00,12,0,1,1022.776,13.814,7.468,983.622,0.276,1.049
1.450000,614501,1000.00,12,0,1,1029.430,16.802,7.832,983.719,-0.843,1.047
1.451000,614502,1000.00,12,0,1,1036.492,18.929,8.276,986.313,2.165,1.090
1.452000,614503,1000.00,12,0,1,1031.760,12.526,8.463,986.121,1.767,1.106
1.453000,614504,1000.00,12,0,1,1024.698,1.545,8.465,983.743,-0.482,1.102
1.454000,614505,1000.00,12,0,1,1011.871,-9.063,8.555,983.935,-0.900,1.096
1.455000,614506,1000.00,12,0,1,1008.340,-13.882,8.761,984.631,0.250,1.096
1.456000,614507,1000.00,12,0,1,1021.743,0.390,8.739,986.361,1.312,1.108
1.457000,614508,1000.00,12,0,1,1029.190,9.981,8.836,984.992,0.644,1.084
1.458000,614509,1000.00,12,0,1,1025.058,5.953,8.875,984.992,-0.389,1.082
1.459000,614510,1000.00,12,0,1,1018.885,0.444,8.857,983.839,-0.644,1.077
1.460000,614511,1000.00,12,0,1,1023.905,3.823,8.824,984.271,-1.012,1.080
1.461000,614512,1000.00,12,0,1,1015.234,0.312,8.748,984.703,0.039,1.078
1.462000,614513,1000.00,12,0,1,1007.355,-9.592,8.823,983.622,-1.031,1.086
1.463000,614514,1000.00,12,0,1,1009.012,-5.395,8.854,983.767,-1.050,1.094
1.464000,614515,1000.00,12,0,1,1007.523,-5.387,8.887,985.424,0.649,1.098
1.465000,614516,1000.00,12,0,1,1006.250,-6.383,8.922,985.136,0.529,1.099
1.466000,614517,1000.00,12,0,1,1008.604,-3.845,8.938,985.952,0.776,1.103
1.467000,614518,1000.00,12,0,1,1015.618,1.437,8.937,985.472,0.643,1.097
1.468000,614519,1000.00,12,0,1,1026.932,10.257,9.052,985.736,0.272,1.097
1.469000,614520,1000.00,12,0,1,1033.682,13.928,9.252,982.157,-2.084,1.131
1.470000,614521,1000.00,12,0,1,1031.664,8.962,9.191,982.878,-2.558,1.168
1.471000,614522,1000.00,12,0,1,1028.949,2.500,8.565,984.992,0.641,1.162
1.472000,614523,1000.00,12,0,1,1021.815,-4.593,8.495,985.688,0.951,1.167
1.473000,614524,1000.00,12,0,1,1014.945,-12.186,8.133,983.671,-0.474,1.158
1.474000,614525,1000.00,12,0,1,1015.258,-10.795,7.877,984.727,-0.303,1.158
1.475000,614526,1000.00,12,0,1,1018.428,-5.892,7.819,984.992,0.734,1.162
1.476000,614527,1000.00,12,0,1,1017.804,-4.090,7.668,983.839,-0.628,1.159
1.477000,614528,1000.00,12,0,1,1018.260,-2.527,7.660,984.199,-0.423,1.158
1.478000,614529,1000.00,12,0,1,1018.645,0.117,7.637,984.703,0.368,1.150
1.479000,614530,1000.00,12,0,1,1019.870,2.269,7.479,986.433,1.401,1.150
1.480000,614531,1000.00,12,0,1,1019.581,3.617,7.354,986.625,1.999,1.174
1.481000,614532,1000.00,12,0,1,1014.945,0.447,7.332,985.232,0.073,1.161
1.482000,614533,1000.00,12,0,1,1016.002,0.855,7.293,984.343,-0.707,1.133
1.483000,614534,1000.00,12,0,1,1021.551,6.663,7.258,984.367,-0.834,1.122
1.484000,614535,1000.00,12,0,1,1017.612,3.484,7.255,983.671,-1.059,1.128
1.485000,614536,1000.00,12,0,1,1011.727,-3.698,7.271,984.679,-0.476,1.105
1.486000,614537,1000.00,12,0,1,1001.494,-11.773,7.459,986.385,1.405,1.109
1.487000,614538,1000.00,12,0,1,1006.202,-10.089,7.587,986.241,1.209,1.108
1.488000,614539,1000.00,12,0,1,1022.944,6.431,7.588,985.712,0.382,1.080
1.489000,614540,1000.00,12,0,1,1018.549,3.692,7.604,985.977,0.490,1.081
1.490000,614541,1000.00,12,0,1,1021.023,-0.143,7.602,983.478,-1.389,1.078
1.491000,614542,1000.00,12,0,1,1029.766,8.747,7.677,985.040,-0.857,1.066
1.492000,614543,1000.00,12,0,1,1028.757,5.634,7.672,986.145,1.204,1.062
1.493000,614544,1000.00,12,0,1,1027.268,2.243,7.610,985.472,0.054,1.055
1.494000,614545,1000.00,12,0,1,1022.512,-1.861,7.602,985.952,0.410,1.044
1.495000,614546,1000.00,12,0,1,1016.122,-7.750,7.678,986.073,0.588,1.043
1.496000,614547,1000.00,12,0,1,1012.183,-9.345,7.791,983.190,-1.826,1.064
1.497000,614548,1000.00,12,0,1,1017.468,-3.442,7.806,984.103,-1.628,1.089
1.498000,614549,1000.00,12,0,1,1025.995,7.074,7.828,983.286,-1.118,1.052
1.499000,614550,1000.00,12,0,1,1024.434,7.244,7.649,982.782,-2.113,1.093
1.500000,614551,1000.00,12,0,1,1019.365,2.268,7.278,983.647,-0.695,1.091
1.501000,614552,1000.00,12,0,1,1014.993,-0.742,6.769,983.647,-0.463,1.049
1.502000,614553,1000.00,12,0,1,1012.976,-2.149,6.540,985.424,0.823,1.026
1.503000,614554,1000.00,12,0,1,1010.670,-2.842,6.548,987.706,3.104,1.113
1.504000,614555,1000.00,12,0,1,1011.438,-2.366,6.430,984.872,0.624,1.110
1.505000,614556,1000.00,12,0,1,1016.891,2.572,6.134,984.727,-0.609,1.112
1.506000,614557,1000.00,12,0,1,1021.431,5.976,6.192,983.983,-0.377,1.098
1.507000,614558,1000.00,12,0,1,1021.623,4.462,6.062,984.872,-0.354,1.096
1.508000,614559,1000.00,12,0,1,1025.923,5.116,6.047,985.232,0.734,1.099
1.509000,614560,1000.00,12,0,1,1018.020,-1.575,6.050,986.049,0.860,1.102
1.510000,614561,1000.00,12,0,1,1005.289,-15.807,6.427,984.848,0.299,1.093
1.511000,614562,1000.00,12,0,1,1008.844,-13.090,6.689,984.079,-0.930,1.101
1.512000,614563,1000.00,12,0,1,1010.790,-7.727,6.640,985.784,0.655,1.096
1.513000,614564,1000.00,12,0,1,1017.780,-2.784,6.608,986.793,1.831,1.116
1.514000,614565,1000.00,12,0,1,1032.553,11.852,6.774,986.001,0.794,1.118
1.515000,614566,1000.00,12,0,1,1015.378,0.142,6.714,985.424,0.119,1.115
1.516000,614567,1000.00,12,0,1,997.410,-19.568,7.242,984.872,-0.468,1.112
1.517000,614568,1000.00,12,0,1,1016.843,-0.788,7.240,984.535,-0.698,1.113
1.518000,614569,1000.00,12,0,1,1017.155,7.856,7.179,985.232,-0.186,1.112
1.519000,614570,1000.00,12,0,1,1012.279,-0.348,6.904,985.160,0.078,1.073
1.520000,614571,1000.00,12,0,1,1015.594,5.849,6.837,985.112,-0.273,1.010
1.521000,614572,1000.00,12,0,1,1013.600,4.570,6.858,983.550,-1.224,1.021
1.522000,614573,1000.00,12,0,1,1006.178,-1.235,6.830,983.839,-1.456,1.033
1.523000,614574,1000.00,12,0,1,998.996,-7.095,6.684,984.415,-0.255,1.031
1.524000,614575,1000.00,12,0,1,997.843,-7.446,6.592,986.313,0.976,1.040
1.525000,614576,1000.00,12,0,1,994.480,-7.659,6.629,984.415,0.101,1.035
1.526000,614577,1000.00,12,0,1,996.113,-6.927,6.675,982.950,-2.093,1.073
1.527000,614578,1000.00,12,0,1,1004.472,1.955,6.672,985.376,0.329,1.072
1.528000,614579,1000.00,12,0,1,1002.887,1.208,6.674,986.241,1.571,1.093
1.529000,614580,1000.00,12,0,1,1009.349,3.479,6.684,984.607,-0.174,1.076
1.530000,614581,1000.00,12,0,1,1021.959,14.547,6.975,985.232,0.057,1.038
1.531000,614582,1000.00,12,0,1,1029.838,18.630,7.456,985.856,0.899,1.046
1.532000,614583,1000.00,12,0,1,1031.255,16.728,7.821,983.118,-1.283,1.056
1.533000,614584,1000.00,12,0,1,1033.706,14.555,8.032,984.415,-0.948,1.058
1.534000,614585,1000.00,12,0,1,1039.975,17.027,8.371,985.977,1.513,1.069
1.535000,614586,1000.00,12,0,1,1021.431,1.646,8.358,985.520,0.647,1.071
1.536000,614587,1000.00,12,0,1,1012.375,-12.196,8.370,984.920,0.172,1.053
1.537000,614588,1000.00,12,0,1,1014.201,-5.698,8.287,986.433,1.080,1.050
1.538000,614589,1000.00,12,0,1,1018.669,-1.403,8.239,985.544,0.827,1.055
1.539000,614590,1000.00,12,0,1,1016.555,0.410,8.223,984.367,-0.881,1.060
1.540000,614591,1000.00,12,0,1,1013.576,-2.519,8.230,985.016,-0.193,1.042
1.541000,614592,1000.00,12,0,1,1008.556,-4.531,8.162,984.463,-0.378,1.036
1.542000,614593,1000.00,12,0,1,1008.292,-4.602,8.149,983.767,-1.233,1.037
1.543000,614594,1000.00,12,0,1,1011.751,-0.052,8.143,984.247,-0.583,1.040
1.544000,614595,1000.00,12,0,1,1015.018,3.094,8.150,984.631,-0.152,1.039
1.545000,614596,1000.00,12,0,1,1013.168,0.916,8.077,985.736,0.758,1.041
1.546000,614597,1000.00,12,0,1,1005.457,-6.520,8.022,985.592,0.776,1.015
1.547000,614598,1000.00,12,0,1,1008.460,-6.659,8.062,985.712,0.452,0.990
1.548000,614599,1000.00,12,0,1,1011.655,-1.993,8.005,986.217,0.915,0.986
1.549000,614600,1000.00,12,0,1,1011.607,-4.280,7.962,986.433,0.903,0.948
1.550000,614601,1000.00,12,0,1,1016.747,-0.637,7.956,985.760,0.241,0.944
1.551000,614602,1000.00,12,0,1,1018.428,0.590,7.956,986.121,0.211,0.942
1.552000,614603,1000.00,12,0,1,1021.215,1.003,7.951,985.448,-0.081,0.935
1.553000,614604,1000.00,12,0,1,1020.470,0.900,7.942,984.920,-0.857,0.834
1.554000,614605,1000.00,12,0,1,1013.168,-5.973,7.980,983.478,-1.659,0.862
1.555000,614606,1000.00,12,0,1,1011.727,-7.094,8.035,984.343,-1.209,0.875
1.556000,614607,1000.00,12,0,1,1014.729,-2.024,7.995,985.088,0.209,0.874
1.557000,614608,1000.00,12,0,1,1004.641,-7.228,8.035,987.105,1.506,0.898
1.558000,614609,1000.00,12,0,1,998.900,-11.984,8.180,985.904,1.104,0.905
1.559000,614610,1000.00,12,0,1,999.356,-6.712,8.232,985.832,-0.031,0.897
1.560000,614611,1000.00,12,0,1,1002.551,-1.443,7.925,985.136,-0.005,0.896
1.561000,614612,1000.00,12,0,1,1005.481,4.060,7.728,984.992,-0.708,0.892
1.562000,614613,1000.00,12,0,1,1006.226,5.676,7.692,985.664,0.145,0.888
1.563000,614614,1000.00,12,0,1,1007.571,6.717,7.740,985.400,-0.029,0.849
1.564000,614615,1000.00,12,0,1,1010.141,8.487,7.651,984.079,-1.280,0.861
1.565000,614616,1000.00,12,0,1,1016.459,11.844,7.833,986.889,0.769,0.867
1.566000,614617,1000.00,12,0,1,1021.263,14.403,7.605,986.793,1.509,0.891
1.567000,614618,1000.00,12,0,1,1004.088,-1.757,7.609,986.529,0.266,0.886
1.568000,614619,1000.00,12,0,1,1008.436,-5.391,7.566,984.391,-1.012,0.897
1.569000,614620,1000.00,12,0,1,1012.880,2.864,7.576,985.880,-0.680,0.902
1.570000,614621,1000.00,12,0,1,1015.018,-0.087,7.531,986.169,0.697,0.907
1.571000,614622,1000.00,12,0,1,1017.996,3.085,7.516,986.961,0.539,0.893
1.572000,614623,1000.00,12,0,1,1020.662,3.146,7.527,985.928,0.275,0.870
1.573000,614624,1000.00,12,0,1,1023.112,4.524,7.487,986.361,-0.121,0.870
1.574000,614625,1000.00,12,0,1,1019.581,1.473,7.416,986.193,0.296,0.860
1.575000,614626,1000.00,12,0,1,1014.057,-4.399,7.362,987.394,0.795,0.867
1.576000,614627,1000.00,12,0,1,1012.111,-4.568,7.326,985.232,-0.414,0.817
1.577000,614628,1000.00,12,0,1,1009.781,-4.940,7.354,984.343,-1.979,0.862
1.578000,614629,1000.00,12,0,1,1007.139,-4.824,7.383,983.839,-1.654,0.865
1.579000,614630,1000.00,12,0,1,1006.082,-3.951,7.388,984.079,-1.473,0.890
1.580000,614631,1000.00,12,0,1,1006.010,-1.511,7.099,984.199,-0.902,0.899
1.581000,614632,1000.00,12,0,1,1002.863,-2.451,6.601,984.343,-0.624,0.894
1.582000,614633,1000.00,12,0,1,1000.365,-3.628,6.184,985.304,0.179,0.876
1.583000,614634,1000.00,12,0,1,1002.118,-1.260,5.834,984.079,-0.338,0.867
1.584000,614635,1000.00,12,0,1,1002.046,-0.164,5.314,983.598,-1.371,0.862
1.585000,614636,1000.00,12,0,1,1005.169,1.286,5.312,985.112,0.419,0.859
1.586000,614637,1000.00,12,0,1,1005.601,2.080,5.033,984.896,0.364,0.860
1.587000,614638,1000.00,12,0,1,1006.610,0.482,4.968,983.622,-0.817,0.855
1.588000,614639,1000.00,12,0,1,1010.766,3.035,4.983,984.199,-0.474,0.849
1.589000,614640,1000.00,12,0,1,1015.618,5.373,5.040,983.430,-0.524,0.843
1.590000,614641,1000.00,12,0,1,1014.921,3.434,5.051,982.878,-1.276,0.862
1.591000,614642,1000.00,12,0,1,1018.789,3.605,5.036,984.992,0.788,0.867
1.592000,614643,1000.00,12,0,1,1019.678,4.492,5.034,984.631,1.073,0.863
1.593000,614644,1000.00,12,0,1,1015.474,-0.830,5.035,984.824,0.572,0.863
1.594000,614645,1000.00,12,0,1,1008.124,-6.853,5.109,986.265,2.130,0.914
1.595000,614646,1000.00,12,0,1,1005.962,-8.325,5.241,984.872,0.945,0.917
1.596000,614647,1000.00,12,0,1,1008.724,-3.331,5.181,985.928,1.076,0.923
1.597000,614648,1000.00,12,0,1,1007.355,-1.572,5.100,985.832,1.648,0.950
1.598000,614649,1000.00,12,0,1,1006.034,-1.624,5.097,985.136,0.289,0.942
1.599000,614650,1000.00,12,0,1,1006.562,1.266,5.064,985.904,1.011,0.944
1.600000,614651,1000.00,12,0,1,1006.298,2.313,5.074,987.370,2.043,0.987
1.601000,614652,1000.00,12,0,1,1007.427,4.155,5.107,984.631,-0.035,0.987
1.602000,614653,1000.00,12,0,1,1009.829,6.432,5.186,985.280,-0.701,0.992
1.603000,614654,1000.00,12,0,1,1002.959,1.226,5.187,985.977,0.845,0.991
1.604000,614655,1000.00,12,0,1,1005.481,0.133,5.118,987.081,0.981,0.973
1.605000,614656,1000.00,12,0,1,1009.517,5.192,5.072,987.490,1.600,0.984
1.606000,614657,1000.00,12,0,1,1006.850,0.639,5.065,984.872,-0.946,0.993
1.607000,614658,1000.00,12,0,1,1005.001,-2.757,4.976,984.968,-1.589,0.995
1.608000,614659,1000.00,12,0,1,1020.734,7.626,4.801,983.935,-1.485,1.005
1.609000,614660,1000.00,12,0,1,1013.264,4.129,4.742,985.112,-1.307,1.022
1.610000,614661,1000.00,12,0,1,1001.566,-12.707,5.067,985.160,-0.046,1.022
1.611000,614662,1000.00,12,0,1,1006.394,-7.724,5.152,984.295,-1.431,1.037
1.612000,614663,1000.00,12,0,1,1007.379,-4.774,5.133,984.223,-1.018,1.047
1.613000,614664,1000.00,12,0,1,1007.091,-5.569,5.106,984.319,-0.869,1.054
1.614000,614665,1000.00,12,0,1,1009.445,-1.505,4.967,984.679,-0.359,1.040
1.615000,614666,1000.00,12,0,1,1007.883,-1.724,4.683,982.662,-1.593,1.058
1.616000,614667,1000.00,12,0,1,1006.466,-1.531,4.222,983.911,-1.123,1.049
1.617000,614668,1000.00,12,0,1,1000.869,-4.099,4.254,983.791,0.088,1.048
1.618000,614669,1000.00,12,0,1,1004.208,-0.709,4.186,984.079,-0.434,1.040
1.619000,614670,1000.00,12,0,1,1012.663,9.528,4.379,985.256,1.231,1.050
1.620000,614671,1000.00,12,0,1,1006.418,6.058,4.462,986.961,2.261,1.093
1.621000,614672,1000.00,12,0,1,1004.448,1.757,4.448,987.874,3.072,1.174
1.622000,614673,1000.00,12,0,1,1006.466,5.442,4.492,986.697,1.609,1.195
1.623000,614674,1000.00,12,0,1,994.600,-4.380,4.489,983.598,-1.398,1.211
1.624000,614675,1000.00,12,0,1,992.078,-8.963,4.660,984.007,-1.531,1.230
1.625000,614676,1000.00,12,0,1,991.165,-6.553,4.710,984.055,-0.669,1.228
1.626000,614677,1000.00,12,0,1,988.667,-9.482,4.855,986.553,0.908,1.234
1.627000,614678,1000.00,12,0,1,989.772,-7.473,4.919,986.433,1.677,1.225
1.628000,614679,1000.00,12,0,1,989.652,-6.844,4.967,985.736,0.122,1.202
1.629000,614680,1000.00,12,0,1,1012.135,9.612,5.119,985.760,0.341,1.185
1.630000,614681,1000.00,12,0,1,1020.374,20.670,5.891,985.328,-0.135,1.178
