Frame_Index,System_Time_s,Human_Readable
0,1775225813.773112,16:16:53.773
1,1775225813.7971482,16:16:53.797
2,1775225813.8092153,16:16:53.809
3,1775225813.8238642,16:16:53.823
4,1775225813.8278863,16:16:53.827
5,1775225813.8405645,16:16:53.840
6,1775225813.8435695,16:16:53.843
7,1775225813.8568802,16:16:53.856
8,1775225813.860912,16:16:53.860
9,1775225813.873262,16:16:53.873
10,1775225813.879282,16:16:53.879
11,1775225813.903614,16:16:53.903
12,1775225813.9133189,16:16:53.913
13,1775225813.92136,16:16:53.921
14,1775225813.9244041,16:16:53.924
15,1775225813.9376132,16:16:53.937
16,1775225813.9416075,16:16:53.941
17,1775225813.9536507,16:16:53.953
18,1775225813.9571316,16:16:53.957
19,1775225813.969502,16:16:53.969
20,1775225813.9735096,16:16:53.973
21,1775225813.9845605,16:16:53.984
22,1775225813.9901168,16:16:53.990
23,1775225814.017124,16:16:54.017
24,1775225814.022125,16:16:54.022
25,1775225814.0326533,16:16:54.032
26,1775225814.0366528,16:16:54.036
27,1775225814.0496051,16:16:54.049
28,1775225814.0535603,16:16:54.053
29,1775225814.0653493,16:16:54.065
30,1775225814.0683584,16:16:54.068
31,1775225814.0803852,16:16:54.080
32,1775225814.0834248,16:16:54.083
33,1775225814.0970938,16:16:54.097
34,1775225814.102089,16:16:54.102
35,1775225814.1144712,16:16:54.114
36,1775225814.1304915,16:16:54.130
37,1775225814.1354861,16:16:54.135
38,1775225814.1458766,16:16:54.145
39,1775225814.1619399,16:16:54.161
40,1775225814.1649318,16:16:54.164
41,1775225814.1777291,16:16:54.177
42,1775225814.181164,16:16:54.181
43,1775225814.1931853,16:16:54.193
44,1775225814.1962306,16:16:54.196
45,1775225814.2094889,16:16:54.209
46,1775225814.2134657,16:16:54.213
47,1775225814.233463,16:16:54.233
48,1775225814.244466,16:16:54.244
49,1775225814.25572,16:16:54.255
50,1775225814.2587125,16:16:54.258
51,1775225814.272946,16:16:54.272
52,1775225814.2759936,16:16:54.275
53,1775225814.28946,16:16:54.289
54,1775225814.3061864,16:16:54.306
55,1775225814.3092372,16:16:54.309
56,1775225814.3303332,16:16:54.330
57,1775225814.3491764,16:16:54.349
58,1775225814.354193,16:16:54.354
59,1775225814.3571858,16:16:54.357
60,1775225814.369386,16:16:54.369
61,1775225814.3723736,16:16:54.372
62,1775225814.384622,16:16:54.384
63,1775225814.3885684,16:16:54.388
64,1775225814.400565,16:16:54.400
65,1775225814.4046154,16:16:54.404
66,1775225814.417242,16:16:54.417
67,1775225814.4405365,16:16:54.440
68,1775225814.4612434,16:16:54.461
69,1775225814.4662447,16:16:54.466
70,1775225814.4704669,16:16:54.470
71,1775225814.4811943,16:16:54.481
72,1775225814.484193,16:16:54.484
73,1775225814.497345,16:16:54.497
74,1775225814.5013883,16:16:54.501
75,1775225814.5136504,16:16:54.513
76,1775225814.5166473,16:16:54.516
77,1775225814.5296495,16:16:54.529
78,1775225814.5325956,16:16:54.532
79,1775225814.556251,16:16:54.556
80,1775225814.566704,16:16:54.566
81,1775225814.5767267,16:16:54.576
82,1775225814.580722,16:16:54.580
83,1775225814.5932002,16:16:54.593
84,1775225814.5964692,16:16:54.596
85,1775225814.6084914,16:16:54.608
86,1775225814.6124918,16:16:54.612
87,1775225814.6246781,16:16:54.624
88,1775225814.62865,16:16:54.628
89,1775225814.6408105,16:16:54.640
90,1775225814.6457603,16:16:54.645
91,1775225814.6637855,16:16:54.663
92,1775225814.6749504,16:16:54.674
93,1775225814.6893156,16:16:54.689
94,1775225814.7042198,16:16:54.704
95,1775225814.7072356,16:16:54.707
96,1775225814.721864,16:16:54.721
97,1775225814.7249043,16:16:54.724
98,1775225814.7376182,16:16:54.737
99,1775225814.7406638,16:16:54.740
100,1775225814.7546358,16:16:54.754
101,1775225814.7586153,16:16:54.758
102,1775225814.7826276,16:16:54.782
103,1775225814.7890916,16:16:54.789
104,1775225814.7995608,16:16:54.799
105,1775225814.802672,16:16:54.802
106,1775225814.815338,16:16:54.815
107,1775225814.8329885,16:16:54.832
108,1775225814.8359928,16:16:54.835
109,1775225814.8498485,16:16:54.849
110,1775225814.8527868,16:16:54.852
111,1775225814.8654509,16:16:54.865
112,1775225814.870984,16:16:54.870
113,1775225814.8996048,16:16:54.899
114,1775225814.9056022,16:16:54.905
115,1775225814.9248416,16:16:54.924
116,1775225814.9342523,16:16:54.934
117,1775225814.943971,16:16:54.943
118,1775225814.9469876,16:16:54.946
119,1775225814.960973,16:16:54.960
120,1775225814.9785929,16:16:54.978
121,1775225815.0015426,16:16:55.001
122,1775225815.0055099,16:16:55.005
123,1775225815.0094993,16:16:55.009
124,1775225815.0125,16:16:55.012
125,1775225815.0256004,16:16:55.025
126,1775225815.0286405,16:16:55.028
127,1775225815.0411403,16:16:55.041
128,1775225815.0441296,16:16:55.044
129,1775225815.0570211,16:16:55.057
130,1775225815.0610137,16:16:55.061
131,1775225815.0730708,16:16:55.073
132,1775225815.0760095,16:16:55.076
133,1775225815.0897417,16:16:55.089
134,1775225815.1172528,16:16:55.117
135,1775225815.1222486,16:16:55.122
136,1775225815.1252503,16:16:55.125
137,1775225815.1375806,16:16:55.137
138,1775225815.1406121,16:16:55.140
139,1775225815.1528444,16:16:55.152
140,1775225815.1558797,16:16:55.155
141,1775225815.1690795,16:16:55.169
142,1775225815.173118,16:16:55.173
143,1775225815.1847303,16:16:55.184
144,1775225815.1886804,16:16:55.188
145,1775225815.2012892,16:16:55.201
146,1775225815.226474,16:16:55.226
147,1775225815.2331126,16:16:55.233
148,1775225815.2492807,16:16:55.249
149,1775225815.2532465,16:16:55.253
150,1775225815.279867,16:16:55.279
151,1775225815.284914,16:16:55.284
152,1775225815.2978213,16:16:55.297
153,1775225815.303278,16:16:55.303
154,1775225815.3312638,16:16:55.331
155,1775225815.3440232,16:16:55.344
156,1775225815.3470376,16:16:55.347
157,1775225815.3608813,16:16:55.360
158,1775225815.3768647,16:16:55.376
159,1775225815.379908,16:16:55.379
160,1775225815.392587,16:16:55.392
161,1775225815.3968554,16:16:55.396
162,1775225815.408767,16:16:55.408
163,1775225815.433774,16:16:55.433
164,1775225815.4407692,16:16:55.440
165,1775225815.4450238,16:16:55.445
166,1775225815.457014,16:16:55.457
167,1775225815.4600303,16:16:55.460
168,1775225815.4838226,16:16:55.483
169,1775225815.4959903,16:16:55.495
170,1775225815.5049756,16:16:55.504
171,1775225815.5079362,16:16:55.507
172,1775225815.5359294,16:16:55.535
173,1775225815.548931,16:16:55.548
174,1775225815.5529354,16:16:55.552
175,1775225815.5569768,16:16:55.556
176,1775225815.5689247,16:16:55.568
177,1775225815.571973,16:16:55.571
178,1775225815.585331,16:16:55.585
179,1775225815.5893254,16:16:55.589
180,1775225815.6011674,16:16:55.601
181,1775225815.6041186,16:16:55.604
182,1775225815.6170204,16:16:55.617
183,1775225815.619975,16:16:55.619
184,1775225815.632793,16:16:55.632
185,1775225815.6507745,16:16:55.650
186,1775225815.662741,16:16:55.662
187,1775225815.666725,16:16:55.666
188,1775225815.681058,16:16:55.681
189,1775225815.6840036,16:16:55.684
190,1775225815.6972694,16:16:55.697
191,1775225815.7003107,16:16:55.700
192,1775225815.7136528,16:16:55.713
193,1775225815.7166455,16:16:55.716
194,1775225815.7296538,16:16:55.729
195,1775225815.7326508,16:16:55.732
196,1775225815.765758,16:16:55.765
197,1775225815.7697284,16:16:55.769
198,1775225815.776775,16:16:55.776
199,1775225815.7797258,16:16:55.779
200,1775225815.7933097,16:16:55.793
201,1775225815.796891,16:16:55.796
202,1775225815.8084524,16:16:55.808
203,1775225815.8114579,16:16:55.811
204,1775225815.8256574,16:16:55.825
205,1775225815.8286455,16:16:55.828
206,1775225815.840458,16:16:55.840
207,1775225815.8444529,16:16:55.844
208,1775225815.8664825,16:16:55.866
209,1775225815.8804986,16:16:55.880
210,1775225815.8895311,16:16:55.889
211,1775225815.892507,16:16:55.892
212,1775225815.9050221,16:16:55.905
213,1775225815.921995,16:16:55.921
214,1775225815.9250064,16:16:55.925
215,1775225815.9375076,16:16:55.937
216,1775225815.9405556,16:16:55.940
217,1775225815.9535844,16:16:55.953
218,1775225815.958824,16:16:55.958
219,1775225815.972869,16:16:55.972
220,1775225815.9912941,16:16:55.991
221,1775225816.0008,16:16:56.000
222,1775225816.0048018,16:16:56.004
223,1775225816.0171053,16:16:56.017
224,1775225816.0211003,16:16:56.021
225,1775225816.0333152,16:16:56.033
226,1775225816.0491583,16:16:56.049
227,1775225816.0524085,16:16:56.052
228,1775225816.0648692,16:16:56.064
229,1775225816.0714169,16:16:56.071
230,1775225816.0904584,16:16:56.090
231,1775225816.1021743,16:16:56.102
232,1775225816.113907,16:16:56.113
233,1775225816.1168735,16:16:56.116
234,1775225816.1296742,16:16:56.129
235,1775225816.132669,16:16:56.132
236,1775225816.1462061,16:16:56.146
237,1775225816.1492767,16:16:56.149
238,1775225816.162553,16:16:56.162
239,1775225816.1790159,16:16:56.179
240,1775225816.1832478,16:16:56.183
241,1775225816.2027843,16:16:56.202
242,1775225816.2119513,16:16:56.211
243,1775225816.224546,16:16:56.224
244,1775225816.227556,16:16:56.227
245,1775225816.240743,16:16:56.240
246,1775225816.2447095,16:16:56.244
247,1775225816.257493,16:16:56.257
248,1775225816.260537,16:16:56.260
249,1775225816.2728217,16:16:56.272
250,1775225816.2758167,16:16:56.275
251,1775225816.2893457,16:16:56.289
252,1775225816.3019629,16:16:56.301
253,1775225816.3233373,16:16:56.323
254,1775225816.3377414,16:16:56.337
255,1775225816.340726,16:16:56.340
256,1775225816.3537118,16:16:56.353
257,1775225816.3577387,16:16:56.357
258,1775225816.3687117,16:16:56.368
259,1775225816.372662,16:16:56.372
260,1775225816.3848326,16:16:56.384
261,1775225816.3878286,16:16:56.387
262,1775225816.4085338,16:16:56.408
263,1775225816.433543,16:16:56.433
264,1775225816.448002,16:16:56.448
265,1775225816.4520707,16:16:56.452
266,1775225816.464614,16:16:56.464
267,1775225816.4671764,16:16:56.467
268,1775225816.4806201,16:16:56.480
269,1775225816.4847353,16:16:56.484
270,1775225816.4978507,16:16:56.497
271,1775225816.5008924,16:16:56.500
272,1775225816.5198505,16:16:56.519
273,1775225816.5378888,16:16:56.537
274,1775225816.545749,16:16:56.545
275,1775225816.5487905,16:16:56.548
276,1775225816.561506,16:16:56.561
277,1775225816.5774019,16:16:56.577
278,1775225816.5814195,16:16:56.581
279,1775225816.5931244,16:16:56.593
280,1775225816.596117,16:16:56.596
281,1775225816.6093538,16:16:56.609
282,1775225816.6490922,16:16:56.649
283,1775225816.6570613,16:16:56.657
284,1775225816.6601105,16:16:56.660
285,1775225816.6723287,16:16:56.672
286,1775225816.676322,16:16:56.676
287,1775225816.689462,16:16:56.689
288,1775225816.692458,16:16:56.692
289,1775225816.7061858,16:16:56.706
290,1775225816.7242985,16:16:56.724
291,1775225816.755212,16:16:56.755
292,1775225816.7602117,16:16:56.760
293,1775225816.7682161,16:16:56.768
294,1775225816.7712061,16:16:56.771
295,1775225816.7855961,16:16:56.785
296,1775225816.7886093,16:16:56.788
297,1775225816.8004537,16:16:56.800
298,1775225816.8040118,16:16:56.804
299,1775225816.8166027,16:16:56.816
300,1775225816.820655,16:16:56.820
301,1775225816.8335946,16:16:56.833
302,1775225816.8587625,16:16:56.858
303,1775225816.862724,16:16:56.862
304,1775225816.8657227,16:16:56.865
305,1775225816.8804605,16:16:56.880
306,1775225816.8834724,16:16:56.883
307,1775225816.8975008,16:16:56.897
308,1775225816.8995779,16:16:56.899
309,1775225816.9130301,16:16:56.913
310,1775225816.9160295,16:16:56.916
311,1775225816.9276605,16:16:56.927
312,1775225816.930685,16:16:56.930
313,1775225816.9509487,16:16:56.950
314,1775225816.9646842,16:16:56.964
315,1775225816.9759653,16:16:56.975
316,1775225816.9915597,16:16:56.991
317,1775225816.9945674,16:16:56.994
318,1775225817.0073152,16:16:57.007
319,1775225817.010324,16:16:57.010
320,1775225817.0242655,16:16:57.024
321,1775225817.0262406,16:16:57.026
322,1775225817.040881,16:16:57.040
323,1775225817.04485,16:16:57.044
324,1775225817.0578275,16:16:57.057
325,1775225817.0897093,16:16:57.089
326,1775225817.0927386,16:16:57.092
327,1775225817.1055317,16:16:57.105
328,1775225817.1220345,16:16:57.122
329,1775225817.125095,16:16:57.125
330,1775225817.1380196,16:16:57.138
331,1775225817.14103,16:16:57.141
332,1775225817.1530497,16:16:57.153
333,1775225817.157035,16:16:57.157
334,1775225817.1800113,16:16:57.180
335,1775225817.197275,16:16:57.197
336,1775225817.2032447,16:16:57.203
337,1775225817.205843,16:16:57.205
338,1775225817.2171183,16:16:57.217
339,1775225817.221146,16:16:57.221
340,1775225817.233252,16:16:57.233
341,1775225817.2486632,16:16:57.248
342,1775225817.2526622,16:16:57.252
343,1775225817.2651994,16:16:57.265
344,1775225817.268256,16:16:57.268
345,1775225817.2962155,16:16:57.296
346,1775225817.311742,16:16:57.311
347,1775225817.3327255,16:16:57.332
348,1775225817.3357325,16:16:57.335
349,1775225817.3438282,16:16:57.343
350,1775225817.346875,16:16:57.346
351,1775225817.361787,16:16:57.361
352,1775225817.364854,16:16:57.364
353,1775225817.3771472,16:16:57.377
354,1775225817.3951101,16:16:57.395
355,1775225817.4106529,16:16:57.410
356,1775225817.4244354,16:16:57.424
357,1775225817.4274802,16:16:57.427
358,1775225817.4411845,16:16:57.441
359,1775225817.4441903,16:16:57.444
360,1775225817.4564502,16:16:57.456
361,1775225817.4584427,16:16:57.458
362,1775225817.4725623,16:16:57.472
363,1775225817.476609,16:16:57.476
364,1775225817.490241,16:16:57.490
365,1775225817.4952407,16:16:57.495
366,1775225817.5202527,16:16:57.520
367,1775225817.5263503,16:16:57.526
368,1775225817.5375574,16:16:57.537
369,1775225817.5405893,16:16:57.540
370,1775225817.5531204,16:16:57.553
371,1775225817.556142,16:16:57.556
372,1775225817.5694587,16:16:57.569
373,1775225817.5724504,16:16:57.572
374,1775225817.5838706,16:16:57.583
375,1775225817.5879354,16:16:57.587
376,1775225817.6010134,16:16:57.601
377,1775225817.6225958,16:16:57.622
378,1775225817.632556,16:16:57.632
379,1775225817.6355555,16:16:57.635
380,1775225817.6485546,16:16:57.648
381,1775225817.6645224,16:16:57.664
382,1775225817.6685045,16:16:57.668
383,1775225817.681247,16:16:57.681
384,1775225817.6842437,16:16:57.684
385,1775225817.6973238,16:16:57.697
386,1775225817.701317,16:16:57.701
387,1775225817.7217045,16:16:57.721
388,1775225817.7376888,16:16:57.737
389,1775225817.7416513,16:16:57.741
390,1775225817.7466545,16:16:57.746
391,1775225817.7497518,16:16:57.749
392,1775225817.7604983,16:16:57.760
393,1775225817.7645483,16:16:57.764
394,1775225817.7777555,16:16:57.777
395,1775225817.7919402,16:16:57.791
396,1775225817.79697,16:16:57.796
397,1775225817.8087323,16:16:57.808
398,1775225817.812731,16:16:57.812
399,1775225817.8267016,16:16:57.826
400,1775225817.8437257,16:16:57.843
401,1775225817.8526828,16:16:57.852
402,1775225817.8576968,16:16:57.857
403,1775225817.8607237,16:16:57.860
404,1775225817.8726594,16:16:57.872
405,1775225817.8756073,16:16:57.875
406,1775225817.888806,16:16:57.888
407,1775225817.8918629,16:16:57.891
408,1775225817.9058414,16:16:57.905
409,1775225817.9219964,16:16:57.921
410,1775225817.9250062,16:16:57.925
411,1775225817.9420054,16:16:57.942
412,1775225817.9593978,16:16:57.959
413,1775225817.9686017,16:16:57.968
414,1775225817.9715772,16:16:57.971
415,1775225817.997842,16:16:57.997
416,1775225818.002877,16:16:58.002
417,1775225818.017596,16:16:58.017
418,1775225818.0215893,16:16:58.021
419,1775225818.0336475,16:16:58.033
420,1775225818.0386207,16:16:58.038
421,1775225818.067593,16:16:58.067
422,1775225818.0726054,16:16:58.072
423,1775225818.0810199,16:16:58.081
424,1775225818.0830135,16:16:58.083
425,1775225818.0983157,16:16:58.098
426,1775225818.1002986,16:16:58.100
427,1775225818.1142242,16:16:58.114
428,1775225818.1172633,16:16:58.117
429,1775225818.1300066,16:16:58.130
430,1775225818.133016,16:16:58.133
431,1775225818.1464703,16:16:58.146
432,1775225818.151911,16:16:58.151
433,1775225818.1805525,16:16:58.180
434,1775225818.1914577,16:16:58.191
435,1775225818.1944776,16:16:58.194
436,1775225818.2076595,16:16:58.207
437,1775225818.2106717,16:16:58.210
438,1775225818.2237704,16:16:58.223
439,1775225818.2269344,16:16:58.226
440,1775225818.2402954,16:16:58.240
441,1775225818.2423074,16:16:58.242
442,1775225818.2560747,16:16:58.256
443,1775225818.266818,16:16:58.266
444,1775225818.2788815,16:16:58.278
445,1775225818.28888,16:16:58.288
446,1775225818.291919,16:16:58.291
447,1775225818.3044453,16:16:58.304
448,1775225818.3074777,16:16:58.307
449,1775225818.3219106,16:16:58.321
450,1775225818.3367722,16:16:58.336
451,1775225818.339809,16:16:58.339
452,1775225818.3537476,16:16:58.353
453,1775225818.356733,16:16:58.356
454,1775225818.3767328,16:16:58.376
455,1775225818.3937364,16:16:58.393
456,1775225818.4007745,16:16:58.400
457,1775225818.403821,16:16:58.403
458,1775225818.4175987,16:16:58.417
459,1775225818.4206376,16:16:58.420
460,1775225818.4325566,16:16:58.432
461,1775225818.4365537,16:16:58.436
462,1775225818.4491763,16:16:58.449
463,1775225818.4654708,16:16:58.465
464,1775225818.469415,16:16:58.469
465,1775225818.4894457,16:16:58.489
466,1775225818.5056345,16:16:58.505
467,1775225818.513589,16:16:58.513
468,1775225818.5165987,16:16:58.516
469,1775225818.5295908,16:16:58.529
470,1775225818.5326335,16:16:58.532
471,1775225818.5459566,16:16:58.545
472,1775225818.548897,16:16:58.548
473,1775225818.5615468,16:16:58.561
474,1775225818.5645225,16:16:58.564
475,1775225818.5770319,16:16:58.577
476,1775225818.5970397,16:16:58.597
477,1775225818.6155422,16:16:58.615
478,1775225818.6248207,16:16:58.624
479,1775225818.6288397,16:16:58.628
480,1775225818.6415122,16:16:58.641
481,1775225818.6446261,16:16:58.644
482,1775225818.6564083,16:16:58.656
483,1775225818.6604028,16:16:58.660
484,1775225818.673319,16:16:58.673
485,1775225818.6763678,16:16:58.676
486,1775225818.6886454,16:16:58.688
487,1775225818.6936984,16:16:58.693
488,1775225818.7132928,16:16:58.713
489,1775225818.7221916,16:16:58.722
490,1775225818.7377234,16:16:58.737
491,1775225818.7407262,16:16:58.740
492,1775225818.7537363,16:16:58.753
493,1775225818.7567146,16:16:58.756
494,1775225818.768363,16:16:58.768
495,1775225818.7723112,16:16:58.772
496,1775225818.7849808,16:16:58.784
497,1775225818.7889974,16:16:58.788
498,1775225818.8017821,16:16:58.801
499,1775225818.816744,16:16:58.816
500,1775225818.8377929,16:16:58.837
501,1775225818.8687594,16:16:58.868
502,1775225818.8717804,16:16:58.871
503,1775225818.8807385,16:16:58.880
504,1775225818.88373,16:16:58.883
505,1775225818.8979259,16:16:58.897
506,1775225818.9009209,16:16:58.900
507,1775225818.9141488,16:16:58.914
508,1775225818.9427154,16:16:58.942
509,1775225818.9487169,16:16:58.948
510,1775225818.9607959,16:16:58.960
511,1775225818.9648519,16:16:58.964
512,1775225818.9776788,16:16:58.977
513,1775225818.980664,16:16:58.980
514,1775225818.9928672,16:16:58.992
515,1775225819.0097497,16:16:59.009
516,1775225819.0132725,16:16:59.013
517,1775225819.0344267,16:16:59.034
518,1775225819.0513952,16:16:59.051
519,1775225819.0577376,16:16:59.057
520,1775225819.0608022,16:16:59.060
521,1775225819.0721345,16:16:59.072
522,1775225819.0751514,16:16:59.075
523,1775225819.089203,16:16:59.089
524,1775225819.092147,16:16:59.092
525,1775225819.105637,16:16:59.105
526,1775225819.1086318,16:16:59.108
527,1775225819.1217825,16:16:59.121
528,1775225819.145764,16:16:59.145
529,1775225819.162219,16:16:59.162
530,1775225819.1692219,16:16:59.169
531,1775225819.173213,16:16:59.173
532,1775225819.1844935,16:16:59.184
533,1775225819.1884851,16:16:59.188
534,1775225819.20056,16:16:59.200
535,1775225819.2039711,16:16:59.203
536,1775225819.2172859,16:16:59.217
537,1775225819.2232296,16:16:59.223
538,1775225819.233889,16:16:59.233
539,1775225819.2399268,16:16:59.239
540,1775225819.2596347,16:16:59.259
541,1775225819.2696545,16:16:59.269
542,1775225819.280848,16:16:59.280
543,1775225819.2847965,16:16:59.284
544,1775225819.2975216,16:16:59.297
545,1775225819.3015697,16:16:59.301
546,1775225819.3136098,16:16:59.313
547,1775225819.3175528,16:16:59.317
548,1775225819.3298445,16:16:59.329
549,1775225819.33289,16:16:59.332
550,1775225819.3456042,16:16:59.345
551,1775225819.38495,16:16:59.384
552,1775225819.401922,16:16:59.401
553,1775225819.419495,16:16:59.419
554,1775225819.4244964,16:16:59.424
555,1775225819.4277623,16:16:59.427
556,1775225819.4402487,16:16:59.440
557,1775225819.4433036,16:16:59.443
558,1775225819.458004,16:16:59.458
559,1775225819.462005,16:16:59.462
560,1775225819.4800432,16:16:59.480
561,1775225819.4912946,16:16:59.491
562,1775225819.5056121,16:16:59.505
563,1775225819.508594,16:16:59.508
564,1775225819.5221238,16:16:59.522
565,1775225819.537134,16:16:59.537
566,1775225819.5411758,16:16:59.541
567,1775225819.5527258,16:16:59.552
568,1775225819.556719,16:16:59.556
569,1775225819.568774,16:16:59.568
570,1775225819.59664,16:16:59.596
571,1775225819.6006594,16:16:59.600
572,1775225819.6051822,16:16:59.605
573,1775225819.6170158,16:16:59.617
574,1775225819.6199708,16:16:59.619
575,1775225819.6332703,16:16:59.633
576,1775225819.6362646,16:16:59.636
577,1775225819.6487525,16:16:59.648
578,1775225819.6649163,16:16:59.664
579,1775225819.6689625,16:16:59.668
580,1775225819.6889482,16:16:59.688
581,1775225819.7059553,16:16:59.705
582,1775225819.7134387,16:16:59.713
583,1775225819.717018,16:16:59.717
584,1775225819.7294014,16:16:59.729
585,1775225819.7324367,16:16:59.732
586,1775225819.746001,16:16:59.746
587,1775225819.7490168,16:16:59.749
588,1775225819.7616704,16:16:59.761
589,1775225819.764677,16:16:59.764
590,1775225819.7773216,16:16:59.777
591,1775225819.7813563,16:16:59.781
592,1775225819.8003123,16:16:59.800
593,1775225819.8161697,16:16:59.816
594,1775225819.8247006,16:16:59.824
595,1775225819.8286586,16:16:59.828
596,1775225819.8412573,16:16:59.841
597,1775225819.8453097,16:16:59.845
598,1775225819.8564463,16:16:59.856
599,1775225819.8604372,16:16:59.860
600,1775225819.8728898,16:16:59.872
601,1775225819.8759286,16:16:59.875
602,1775225819.8891208,16:16:59.889
603,1775225819.8956344,16:16:59.895
604,1775225819.9218273,16:16:59.921
605,1775225819.9360073,16:16:59.936
606,1775225819.939317,16:16:59.939
607,1775225819.9533353,16:16:59.953
608,1775225819.956314,16:16:59.956
609,1775225819.9705927,16:16:59.970
610,1775225819.9739017,16:16:59.973
611,1775225819.9847364,16:16:59.984
612,1775225819.988683,16:16:59.988
613,1775225820.0052965,16:17:00.005
614,1775225820.0321598,16:17:00.032
615,1775225820.03717,16:17:00.037
616,1775225820.047409,16:17:00.047
617,1775225820.0501306,16:17:00.050
618,1775225820.0640752,16:17:00.064
619,1775225820.0804114,16:17:00.080
620,1775225820.0844643,16:17:00.084
621,1775225820.0977273,16:17:00.097
622,1775225820.100713,16:17:00.100
623,1775225820.1147683,16:17:00.114
624,1775225820.12736,16:17:00.127
625,1775225820.1452847,16:17:00.145
626,1775225820.1483016,16:17:00.148
627,1775225820.1601617,16:17:00.160
628,1775225820.1635315,16:17:00.163
629,1775225820.1765985,16:17:00.176
630,1775225820.1805484,16:17:00.180
631,1775225820.1927023,16:17:00.192
632,1775225820.2085977,16:17:00.208
633,1775225820.212601,16:17:00.212
634,1775225820.2268505,16:17:00.226
635,1775225820.251882,16:17:00.251
636,1775225820.2588487,16:17:00.258
637,1775225820.2726245,16:17:00.272
638,1775225820.2756214,16:17:00.275
639,1775225820.2891543,16:17:00.289
640,1775225820.2920918,16:17:00.292
641,1775225820.3044295,16:17:00.304
642,1775225820.3084702,16:17:00.308
643,1775225820.3214488,16:17:00.321
644,1775225820.3429213,16:17:00.342
645,1775225820.3609219,16:17:00.360
646,1775225820.3651443,16:17:00.365
647,1775225820.3691418,16:17:00.369
648,1775225820.3721912,16:17:00.372
649,1775225820.38661,16:17:00.386
650,1775225820.3906064,16:17:00.390
651,1775225820.401661,16:17:00.401
652,1775225820.4056704,16:17:00.405
653,1775225820.417193,16:17:00.417
654,1775225820.42022,16:17:00.420
655,1775225820.4332376,16:17:00.433
656,1775225820.4372847,16:17:00.437
657,1775225820.4552314,16:17:00.455
658,1775225820.4722733,16:17:00.472
659,1775225820.4806225,16:17:00.480
660,1775225820.4846203,16:17:00.484
661,1775225820.4983022,16:17:00.498
662,1775225820.501342,16:17:00.501
663,1775225820.513856,16:17:00.513
664,1775225820.5173311,16:17:00.517
665,1775225820.529707,16:17:00.529
666,1775225820.5337,16:17:00.533
667,1775225820.5451264,16:17:00.545
668,1775225820.550142,16:17:00.550
669,1775225820.5787983,16:17:00.578
670,1775225820.587346,16:17:00.587
671,1775225820.592423,16:17:00.592
672,1775225820.6091933,16:17:00.609
673,1775225820.6122682,16:17:00.612
674,1775225820.6249976,16:17:00.624
675,1775225820.6279438,16:17:00.627
676,1775225820.6409771,16:17:00.640
677,1775225820.6456044,16:17:00.645
678,1775225820.6593053,16:17:00.659
679,1775225820.6846216,16:17:00.684
680,1775225820.6915834,16:17:00.691
681,1775225820.6945832,16:17:00.694
682,1775225820.706472,16:17:00.706
683,1775225820.7114718,16:17:00.711
684,1775225820.7387586,16:17:00.738
685,1775225820.753426,16:17:00.753
686,1775225820.761428,16:17:00.761
687,1775225820.7759833,16:17:00.775
688,1775225820.7899902,16:17:00.789
689,1775225820.7929485,16:17:00.792
690,1775225820.7999392,16:17:00.799
691,1775225820.8029444,16:17:00.802
692,1775225820.816082,16:17:00.816
693,1775225820.8186007,16:17:00.818
694,1775225820.8327541,16:17:00.832
695,1775225820.834742,16:17:00.834
696,1775225820.8492446,16:17:00.849
697,1775225820.852292,16:17:00.852
698,1775225820.8649237,16:17:00.864
699,1775225820.8865287,16:17:00.886
700,1775225820.904689,16:17:00.904
701,1775225820.9128745,16:17:00.912
702,1775225820.9159164,16:17:00.915
703,1775225820.9291823,16:17:00.929
704,1775225820.9322143,16:17:00.932
705,1775225820.9463463,16:17:00.946
706,1775225820.949327,16:17:00.949
707,1775225820.9617355,16:17:00.961
708,1775225820.964716,16:17:00.964
709,1775225820.9791162,16:17:00.979
710,1775225820.9924257,16:17:00.992
711,1775225821.0092583,16:17:01.009
712,1775225821.0244079,16:17:01.024
713,1775225821.026405,16:17:01.026
714,1775225821.041469,16:17:01.041
715,1775225821.0464675,16:17:01.046
716,1775225821.0565593,16:17:01.056
717,1775225821.0595512,16:17:01.059
718,1775225821.0731082,16:17:01.073
719,1775225821.076342,16:17:01.076
720,1775225821.0893304,16:17:01.089
721,1775225821.092392,16:17:01.092
722,1775225821.110379,16:17:01.110
723,1775225821.1279144,16:17:01.127
724,1775225821.1376424,16:17:01.137
725,1775225821.1542847,16:17:01.154
726,1775225821.1575239,16:17:01.157
727,1775225821.1694994,16:17:01.169
728,1775225821.173486,16:17:01.173
729,1775225821.184718,16:17:01.184
730,1775225821.1887138,16:17:01.188
731,1775225821.2005832,16:17:01.200
732,1775225821.2087584,16:17:01.208
733,1775225821.2353845,16:17:01.235
734,1775225821.2474098,16:17:01.247
735,1775225821.2784023,16:17:01.278
736,1775225821.282399,16:17:01.282
737,1775225821.285762,16:17:01.285
738,1775225821.2967741,16:17:01.296
739,1775225821.2998285,16:17:01.299
740,1775225821.3143187,16:17:01.314
741,1775225821.3449216,16:17:01.344
742,1775225821.347926,16:17:01.347
743,1775225821.3606129,16:17:01.360
744,1775225821.3645673,16:17:01.364
745,1775225821.3764439,16:17:01.376
746,1775225821.3804412,16:17:01.380
747,1775225821.3925595,16:17:01.392
748,1775225821.3968256,16:17:01.396
749,1775225821.4092984,16:17:01.409
750,1775225821.4259546,16:17:01.425
751,1775225821.4572399,16:17:01.457
752,1775225821.462239,16:17:01.462
753,1775225821.4722633,16:17:01.472
754,1775225821.4752536,16:17:01.475
755,1775225821.4891336,16:17:01.489
756,1775225821.4930851,16:17:01.493
757,1775225821.5054924,16:17:01.505
758,1775225821.5094838,16:17:01.509
759,1775225821.520893,16:17:01.520
760,1775225821.5249393,16:17:01.524
761,1775225821.5442214,16:17:01.544
762,1775225821.562241,16:17:01.562
763,1775225821.5692344,16:17:01.569
764,1775225821.573192,16:17:01.573
765,1775225821.5862274,16:17:01.586
766,1775225821.590217,16:17:01.590
767,1775225821.601224,16:17:01.601
768,1775225821.604219,16:17:01.604
769,1775225821.617046,16:17:01.617
770,1775225821.620056,16:17:01.620
771,1775225821.632901,16:17:01.632
772,1775225821.6368594,16:17:01.636
773,1775225821.6549659,16:17:01.654
774,1775225821.6732163,16:17:01.673
775,1775225821.6803424,16:17:01.680
776,1775225821.6823351,16:17:01.682
777,1775225821.6977267,16:17:01.697
778,1775225821.7017229,16:17:01.701
779,1775225821.712476,16:17:01.712
780,1775225821.7154725,16:17:01.715
781,1775225821.7295825,16:17:01.729
782,1775225821.7335777,16:17:01.733
783,1775225821.7455053,16:17:01.745
784,1775225821.750531,16:17:01.750
785,1775225821.7655337,16:17:01.765
786,1775225821.7827795,16:17:01.782
787,1775225821.7927861,16:17:01.792
788,1775225821.8091002,16:17:01.809
789,1775225821.8252401,16:17:01.825
790,1775225821.8286238,16:17:01.828
791,1775225821.844716,16:17:01.844
792,1775225821.848027,16:17:01.848
793,1775225821.855578,16:17:01.855
794,1775225821.859573,16:17:01.859
795,1775225821.8810303,16:17:01.881
796,1775225821.8879907,16:17:01.887
797,1775225821.8900468,16:17:01.890
798,1775225821.9039924,16:17:01.903
