# FW/GUI: v9.6.1-multi17-dual (PyQt5)
# StartTime: 2026-04-03 16:16:50
# Slot: 13
# DeviceID: 13
# Label: EMG13
# IP: 192.168.137.206
# TCP: 3333
# DeviceFW: EMG_FW_v9.6_MULTI17_DUALCH_RUNTIMECFG_CHEN
# EMG column notes: EMG_t_s=seconds since this Start; sample_idx=device sample index (ADS frame index); fs=sample rate (SPS); gain=gain; flags=0x01(TEST) 0x02(SHORT) 0x04(RLD); emg_valid=1 valid / 0 invalid (spike-guard decision); ch1_raw_uV=raw uV (after spike guard); ch1_filt_uV=filtered uV; ch1_env_uV=envelope (RMS) uV
EMG_t_s,sample_idx,fs,gain,flags,emg_valid,ch1_raw_uV,ch1_filt_uV,ch1_env_uV,ch2_raw_uV,ch2_filt_uV,ch2_env_uV
0.000000,467251,1000.00,12,0,1,654.948,-3.668,3.296,931.113,-0.888,0.950
0.001000,467252,1000.00,12,0,1,654.659,-5.125,3.341,930.297,-1.265,0.965
0.002000,467253,1000.00,12,0,1,655.860,-2.500,3.310,930.008,-1.589,0.976
0.003000,467254,1000.00,12,0,1,654.659,-2.604,3.288,931.185,-0.235,0.968
0.004000,467255,1000.00,12,0,1,654.059,-1.976,3.272,932.314,0.870,0.972
0.005000,467256,1000.00,12,0,1,654.227,-0.081,3.271,931.834,0.572,0.975
0.006000,467257,1000.00,12,0,1,651.345,-0.815,3.210,932.122,0.355,0.935
0.007000,467258,1000.00,12,0,1,647.597,-2.720,3.199,932.314,0.740,0.934
0.008000,467259,1000.00,12,0,1,648.966,-0.483,3.189,931.378,-0.273,0.932
0.009000,467260,1000.00,12,0,1,646.612,-0.019,3.181,931.426,-0.400,0.932
0.010000,467261,1000.00,12,0,1,645.243,-1.738,3.174,930.801,-0.613,0.900
0.011000,467262,1000.00,12,0,1,645.508,-0.262,3.167,930.705,-0.903,0.909
0.012000,467263,1000.00,12,0,1,646.468,0.002,3.158,930.945,-0.304,0.909
0.013000,467264,1000.00,12,0,1,648.991,1.715,3.164,930.897,-0.313,0.910
0.014000,467265,1000.00,12,0,1,651.897,3.019,3.181,929.168,-1.418,0.932
0.015000,467266,1000.00,12,0,1,654.107,3.202,3.128,930.537,-0.641,0.919
0.016000,467267,1000.00,12,0,1,658.118,4.383,3.107,932.434,1.804,0.952
0.017000,467268,1000.00,12,0,1,658.022,2.826,3.087,931.426,0.849,0.954
0.018000,467269,1000.00,12,0,1,659.440,1.105,3.091,930.225,-0.492,0.943
0.019000,467270,1000.00,12,0,1,658.959,0.177,3.014,932.386,1.175,0.942
0.020000,467271,1000.00,12,0,1,659.127,-1.415,2.941,931.498,1.076,0.942
0.021000,467272,1000.00,12,0,1,656.701,-2.831,2.955,929.576,-1.290,0.953
0.022000,467273,1000.00,12,0,1,656.533,-3.448,2.994,929.576,-1.106,0.964
0.023000,467274,1000.00,12,0,1,655.957,-2.004,3.002,932.170,1.117,0.971
0.024000,467275,1000.00,12,0,1,655.764,-1.315,2.950,931.546,1.186,0.976
0.025000,467276,1000.00,12,0,1,657.374,1.664,2.940,933.059,1.383,0.995
0.026000,467277,1000.00,12,0,1,652.594,-0.187,2.937,931.546,0.954,0.994
0.027000,467278,1000.00,12,0,1,649.591,-2.843,2.956,931.858,-0.152,0.992
0.028000,467279,1000.00,12,0,1,651.993,1.325,2.961,931.378,0.335,0.956
0.029000,467280,1000.00,12,0,1,652.498,2.874,2.968,931.185,-0.578,0.955
0.030000,467281,1000.00,12,0,1,650.984,1.762,2.961,929.480,-1.412,0.976
0.031000,467282,1000.00,12,0,1,651.176,1.354,2.959,931.546,-0.323,0.977
0.032000,467283,1000.00,12,0,1,648.054,-1.189,2.947,932.218,1.303,0.970
0.033000,467284,1000.00,12,0,1,651.537,-0.485,2.941,930.056,-0.943,0.972
0.034000,467285,1000.00,12,0,1,656.197,3.816,2.988,930.969,-0.559,0.971
0.035000,467286,1000.00,12,0,1,655.620,1.278,2.969,931.065,0.412,0.962
0.036000,467287,1000.00,12,0,1,660.689,2.720,2.965,932.434,0.756,0.950
0.037000,467288,1000.00,12,0,1,661.818,3.328,2.931,930.633,0.268,0.935
0.038000,467289,1000.00,12,0,1,665.781,2.858,2.792,931.305,-0.564,0.925
0.039000,467290,1000.00,12,0,1,668.111,4.824,2.832,932.098,1.270,0.902
0.040000,467291,1000.00,12,0,1,665.781,0.468,2.775,931.354,-0.048,0.902
0.041000,467292,1000.00,12,0,1,661.697,-3.441,2.780,931.522,0.135,0.894
0.042000,467293,1000.00,12,0,1,660.304,-4.890,2.815,933.684,1.742,0.926
0.043000,467294,1000.00,12,0,1,658.983,-4.314,2.776,931.402,0.266,0.917
0.044000,467295,1000.00,12,0,1,657.638,-4.075,2.823,930.753,-1.403,0.907
0.045000,467296,1000.00,12,0,1,652.089,-6.314,2.930,931.594,-0.068,0.900
0.046000,467297,1000.00,12,0,1,650.744,-6.263,3.014,930.753,-0.748,0.906
0.047000,467298,1000.00,12,0,1,650.984,-2.785,2.974,931.450,-0.477,0.907
0.048000,467299,1000.00,12,0,1,651.897,-0.517,2.841,932.026,0.556,0.908
0.049000,467300,1000.00,12,0,1,650.023,-0.264,2.823,929.672,-1.552,0.924
0.050000,467301,1000.00,12,0,1,650.648,0.139,2.775,930.201,-1.418,0.937
0.051000,467302,1000.00,12,0,1,657.806,6.258,2.821,932.747,1.266,0.937
0.052000,467303,1000.00,12,0,1,657.230,6.275,2.936,933.828,2.285,0.966
0.053000,467304,1000.00,12,0,1,653.578,-0.060,2.913,929.744,-1.113,0.978
0.054000,467305,1000.00,12,0,1,658.190,2.150,2.915,930.993,-1.285,0.987
0.055000,467306,1000.00,12,0,1,661.313,3.928,2.968,932.266,1.225,0.999
0.056000,467307,1000.00,12,0,1,662.394,2.227,2.982,931.161,-0.318,0.998
0.057000,467308,1000.00,12,0,1,663.691,1.480,2.965,932.194,0.451,0.995
0.058000,467309,1000.00,12,0,1,660.929,-2.174,2.980,931.714,0.477,0.997
0.059000,467310,1000.00,12,0,1,658.719,-5.598,3.083,930.633,-0.970,1.004
0.060000,467311,1000.00,12,0,1,660.352,-4.034,3.126,932.507,0.678,1.005
0.061000,467312,1000.00,12,0,1,661.025,-2.488,3.145,931.522,0.322,0.998
0.062000,467313,1000.00,12,0,1,659.584,-2.885,3.172,932.074,-0.029,0.997
0.063000,467314,1000.00,12,0,1,658.070,-2.965,3.190,931.089,-0.117,0.996
0.064000,467315,1000.00,12,0,1,656.029,-2.904,3.188,929.600,-1.968,1.015
0.065000,467316,1000.00,12,0,1,654.924,-2.156,3.170,929.672,-1.544,1.034
0.066000,467317,1000.00,12,0,1,654.876,-0.156,3.109,928.111,-2.319,1.054
0.067000,467318,1000.00,12,0,1,655.116,1.635,3.092,929.696,-1.318,1.064
0.068000,467319,1000.00,12,0,1,656.341,3.683,3.132,931.786,1.520,1.083
0.069000,467320,1000.00,12,0,1,655.860,4.030,3.183,931.426,0.950,1.079
0.070000,467321,1000.00,12,0,1,654.275,2.264,3.193,931.738,0.992,1.077
0.071000,467322,1000.00,12,0,1,651.513,-0.324,3.168,932.627,1.659,1.087
0.072000,467323,1000.00,12,0,1,650.264,-2.347,3.148,931.450,0.668,1.080
0.073000,467324,1000.00,12,0,1,652.065,-1.332,3.141,929.624,-1.259,1.083
0.074000,467325,1000.00,12,0,1,657.182,1.988,3.148,929.744,-1.166,1.083
0.075000,467326,1000.00,12,0,1,659.680,3.294,3.173,929.888,-0.573,1.068
0.076000,467327,1000.00,12,0,1,660.713,1.835,3.184,929.648,-0.728,1.065
0.077000,467328,1000.00,12,0,1,660.857,0.487,3.159,930.465,0.100,1.064
0.078000,467329,1000.00,12,0,1,667.919,4.061,3.205,931.978,1.503,1.084
0.079000,467330,1000.00,12,0,1,671.330,7.157,3.337,932.338,1.858,1.113
0.080000,467331,1000.00,12,0,1,663.739,-0.951,3.330,932.170,1.322,1.111
0.081000,467332,1000.00,12,0,1,659.199,-6.432,3.447,932.002,0.993,1.118
0.082000,467333,1000.00,12,0,1,659.872,-4.300,3.496,932.026,0.756,1.108
0.083000,467334,1000.00,12,0,1,661.313,-1.663,3.503,932.675,1.112,1.111
0.084000,467335,1000.00,12,0,1,659.824,-0.837,3.463,933.275,1.488,1.128
0.085000,467336,1000.00,12,0,1,657.254,-1.985,3.470,931.498,-0.089,1.127
0.086000,467337,1000.00,12,0,1,654.563,-2.317,3.464,930.969,-1.136,1.133
0.087000,467338,1000.00,12,0,1,651.897,-3.064,3.459,932.579,0.456,1.135
0.088000,467339,1000.00,12,0,1,653.098,-0.749,3.437,930.321,-0.997,1.141
0.089000,467340,1000.00,12,0,1,653.843,1.586,3.376,932.050,-0.606,1.130
0.090000,467341,1000.00,12,0,1,653.266,1.099,3.379,932.386,1.013,1.139
0.091000,467342,1000.00,12,0,1,651.585,-0.263,3.344,933.563,0.805,1.144
0.092000,467343,1000.00,12,0,1,654.371,0.823,3.274,933.227,1.293,1.132
0.093000,467344,1000.00,12,0,1,657.230,3.169,3.248,931.305,-1.141,1.143
0.094000,467345,1000.00,12,0,1,656.221,0.624,3.198,930.441,-1.815,1.154
0.095000,467346,1000.00,12,0,1,656.053,-1.462,3.077,931.810,-0.591,1.157
0.096000,467347,1000.00,12,0,1,657.374,-1.474,2.954,933.275,0.940,1.160
0.097000,467348,1000.00,12,0,1,659.704,-0.753,2.930,932.098,0.115,1.158
0.098000,467349,1000.00,12,0,1,664.556,2.373,2.948,933.035,0.103,1.156
0.099000,467350,1000.00,12,0,1,665.445,2.810,2.975,932.819,0.684,1.139
0.100000,467351,1000.00,12,0,1,667.030,2.489,2.995,930.993,-1.517,1.141
0.101000,467352,1000.00,12,0,1,667.823,3.445,2.903,931.474,-1.032,1.137
0.102000,467353,1000.00,12,0,1,664.892,0.747,2.766,932.386,0.036,1.090
0.103000,467354,1000.00,12,0,1,661.025,-2.165,2.783,932.002,-0.195,1.079
0.104000,467355,1000.00,12,0,1,659.031,-2.710,2.792,930.681,-1.319,1.080
0.105000,467356,1000.00,12,0,1,656.941,-2.566,2.761,931.233,-1.001,1.075
0.106000,467357,1000.00,12,0,1,656.269,-1.576,2.752,931.113,-0.485,1.076
0.107000,467358,1000.00,12,0,1,650.023,-4.297,2.810,931.882,-0.179,1.075
0.108000,467359,1000.00,12,0,1,649.135,-4.962,2.880,932.074,0.507,1.075
0.109000,467360,1000.00,12,0,1,652.377,0.460,2.770,932.579,0.508,1.069
0.110000,467361,1000.00,12,0,1,656.101,3.894,2.766,933.347,1.321,1.081
0.111000,467362,1000.00,12,0,1,657.278,4.983,2.832,933.539,1.244,1.094
0.112000,467363,1000.00,12,0,1,659.175,4.765,2.883,932.146,-0.025,1.094
0.113000,467364,1000.00,12,0,1,660.713,4.672,2.928,931.714,-0.779,1.099
0.114000,467365,1000.00,12,0,1,663.547,4.591,2.970,931.666,-0.557,1.066
0.115000,467366,1000.00,12,0,1,663.595,2.868,2.983,932.362,-0.040,1.044
0.116000,467367,1000.00,12,0,1,660.040,-2.469,3.003,933.059,0.726,0.996
0.117000,467368,1000.00,12,0,1,661.986,-3.157,3.027,931.786,-0.269,0.979
0.118000,467369,1000.00,12,0,1,663.931,-1.182,2.987,930.585,-1.592,0.982
0.119000,467370,1000.00,12,0,1,664.340,-2.084,2.946,931.498,-0.626,0.976
0.120000,467371,1000.00,12,0,1,666.670,-0.084,2.929,931.666,-0.084,0.966
0.121000,467372,1000.00,12,0,1,666.982,0.583,2.930,931.906,-0.022,0.937
0.122000,467373,1000.00,12,0,1,663.859,-1.620,2.920,931.017,-0.465,0.935
0.123000,467374,1000.00,12,0,1,661.601,-2.903,2.943,931.113,-0.695,0.923
0.124000,467375,1000.00,12,0,1,662.826,-0.420,2.930,931.714,0.202,0.909
0.125000,467376,1000.00,12,0,1,662.346,1.247,2.898,933.371,1.383,0.926
0.126000,467377,1000.00,12,0,1,656.749,-2.166,2.902,932.098,0.717,0.926
0.127000,467378,1000.00,12,0,1,653.554,-4.133,2.960,933.083,0.537,0.929
0.128000,467379,1000.00,12,0,1,654.419,-1.592,2.912,934.116,2.009,0.948
0.129000,467380,1000.00,12,0,1,652.954,-1.258,2.737,933.035,0.588,0.914
0.130000,467381,1000.00,12,0,1,652.570,-1.618,2.743,930.777,-1.461,0.919
0.131000,467382,1000.00,12,0,1,654.323,0.307,2.588,930.297,-2.056,0.953
0.132000,467383,1000.00,12,0,1,654.299,-0.016,2.516,931.546,-0.631,0.951
0.133000,467384,1000.00,12,0,1,658.431,1.831,2.518,930.897,-0.620,0.942
0.134000,467385,1000.00,12,0,1,660.592,3.323,2.559,931.474,-0.564,0.922
0.135000,467386,1000.00,12,0,1,661.938,1.789,2.556,931.786,0.410,0.924
0.136000,467387,1000.00,12,0,1,664.508,2.485,2.559,933.635,1.383,0.930
0.137000,467388,1000.00,12,0,1,666.045,2.040,2.538,931.257,0.272,0.929
0.138000,467389,1000.00,12,0,1,666.430,0.869,2.539,929.216,-2.609,0.990
0.139000,467390,1000.00,12,0,1,665.757,-0.622,2.531,929.624,-1.501,1.008
0.140000,467391,1000.00,12,0,1,663.907,-2.586,2.552,930.489,-0.563,1.001
0.141000,467392,1000.00,12,0,1,661.866,-3.877,2.610,930.657,-0.066,0.995
0.142000,467393,1000.00,12,0,1,660.833,-3.750,2.661,931.666,0.704,0.983
0.143000,467394,1000.00,12,0,1,660.833,-2.009,2.638,931.834,1.037,0.981
0.144000,467395,1000.00,12,0,1,661.649,0.351,2.637,931.570,0.576,0.950
0.145000,467396,1000.00,12,0,1,663.691,3.643,2.679,932.434,1.064,0.958
0.146000,467397,1000.00,12,0,1,656.605,-0.144,2.671,931.089,0.257,0.950
0.147000,467398,1000.00,12,0,1,648.702,-7.053,2.849,930.753,-0.771,0.956
0.148000,467399,1000.00,12,0,1,647.982,-5.693,2.942,930.585,-0.291,0.957
0.149000,467400,1000.00,12,0,1,653.194,0.376,2.915,931.882,0.350,0.953
0.150000,467401,1000.00,12,0,1,653.915,2.730,2.920,930.345,-0.124,0.929
0.151000,467402,1000.00,12,0,1,655.404,2.569,2.902,930.969,-0.566,0.921
0.152000,467403,1000.00,12,0,1,655.668,2.752,2.926,930.945,0.439,0.923
0.153000,467404,1000.00,12,0,1,653.362,-0.927,2.913,932.386,0.892,0.931
0.154000,467405,1000.00,12,0,1,656.533,-0.160,2.887,932.074,1.363,0.932
0.155000,467406,1000.00,12,0,1,661.025,3.153,2.899,932.386,0.777,0.928
0.156000,467407,1000.00,12,0,1,665.997,5.036,2.977,931.017,0.111,0.925
0.157000,467408,1000.00,12,0,1,666.141,4.223,2.975,931.594,-0.146,0.925
0.158000,467409,1000.00,12,0,1,661.721,-1.939,2.904,932.579,1.189,0.938
0.159000,467410,1000.00,12,0,1,660.953,-3.664,2.949,931.546,0.202,0.935
0.160000,467411,1000.00,12,0,1,658.311,-4.890,2.978,929.744,-1.594,0.944
0.161000,467412,1000.00,12,0,1,661.145,-2.807,2.921,932.194,0.282,0.928
0.162000,467413,1000.00,12,0,1,663.091,1.655,2.852,932.050,0.968,0.938
0.163000,467414,1000.00,12,0,1,665.108,3.373,2.815,930.345,-1.116,0.945
0.164000,467415,1000.00,12,0,1,660.592,1.970,2.753,930.465,-1.011,0.953
0.165000,467416,1000.00,12,0,1,656.629,-1.842,2.736,932.194,0.631,0.957
0.166000,467417,1000.00,12,0,1,653.795,-1.795,2.725,932.699,1.188,0.966
0.167000,467418,1000.00,12,0,1,649.903,-3.755,2.740,930.513,-0.695,0.970
0.168000,467419,1000.00,12,0,1,648.366,-3.693,2.784,933.179,0.621,0.948
0.169000,467420,1000.00,12,0,1,648.654,-1.758,2.780,932.098,1.114,0.957
0.170000,467421,1000.00,12,0,1,648.174,-1.470,2.788,930.225,-1.898,0.994
0.171000,467422,1000.00,12,0,1,647.381,-1.784,2.798,929.960,-1.363,1.012
0.172000,467423,1000.00,12,0,1,649.327,-0.831,2.791,928.711,-2.323,1.062
0.173000,467424,1000.00,12,0,1,654.275,2.970,2.792,930.056,-1.131,1.070
0.174000,467425,1000.00,12,0,1,655.836,3.291,2.830,931.594,0.961,1.078
0.175000,467426,1000.00,12,0,1,658.142,2.826,2.853,931.185,0.489,1.062
0.176000,467427,1000.00,12,0,1,661.577,4.232,2.899,932.507,1.374,1.075
0.177000,467428,1000.00,12,0,1,663.907,4.329,2.905,931.714,1.040,1.082
0.178000,467429,1000.00,12,0,1,669.048,6.524,3.039,931.594,0.213,1.045
0.179000,467430,1000.00,12,0,1,670.249,6.872,3.186,930.777,-0.052,1.042
0.180000,467431,1000.00,12,0,1,668.784,3.479,3.215,930.609,-0.655,1.025
0.181000,467432,1000.00,12,0,1,663.379,-1.007,3.218,933.924,2.147,1.029
0.182000,467433,1000.00,12,0,1,660.064,-4.423,3.279,932.050,1.300,1.041
0.183000,467434,1000.00,12,0,1,658.623,-3.514,3.306,931.257,-0.885,1.045
0.184000,467435,1000.00,12,0,1,658.527,-2.099,3.286,931.618,0.243,1.043
0.185000,467436,1000.00,12,0,1,658.431,0.032,3.276,932.386,0.315,1.042
0.186000,467437,1000.00,12,0,1,658.791,1.703,3.266,931.450,0.034,1.023
0.187000,467438,1000.00,12,0,1,657.422,1.935,3.265,932.122,-0.130,1.023
0.188000,467439,1000.00,12,0,1,656.101,1.179,3.267,930.537,-0.687,0.959
0.189000,467440,1000.00,12,0,1,653.651,-0.345,3.266,931.666,-0.648,0.940
0.190000,467441,1000.00,12,0,1,652.474,-1.681,3.254,931.834,0.524,0.939
0.191000,467442,1000.00,12,0,1,651.032,-2.797,3.232,929.960,-1.492,0.963
0.192000,467443,1000.00,12,0,1,653.122,-2.076,3.201,931.185,-0.625,0.961
0.193000,467444,1000.00,12,0,1,657.109,0.892,3.191,931.017,0.104,0.950
0.194000,467445,1000.00,12,0,1,657.158,-0.147,3.191,932.434,0.471,0.949
0.195000,467446,1000.00,12,0,1,660.016,-0.280,3.149,934.452,2.858,1.021
0.196000,467447,1000.00,12,0,1,665.156,3.165,3.181,933.107,1.246,1.035
0.197000,467448,1000.00,12,0,1,663.979,0.798,3.023,933.780,1.080,1.041
0.198000,467449,1000.00,12,0,1,663.547,-1.813,2.925,933.539,1.163,1.053
0.199000,467450,1000.00,12,0,1,668.159,1.541,2.932,933.155,0.115,1.052
0.200000,467451,1000.00,12,0,1,668.447,2.246,2.924,932.891,0.025,1.051
0.201000,467452,1000.00,12,0,1,667.126,0.253,2.902,933.059,-0.169,1.049
0.202000,467453,1000.00,12,0,1,664.604,-0.853,2.878,931.498,-1.173,1.060
0.203000,467454,1000.00,12,0,1,661.577,-2.734,2.901,931.137,-1.908,1.086
0.204000,467455,1000.00,12,0,1,662.106,-0.807,2.903,931.546,-1.008,1.079
0.205000,467456,1000.00,12,0,1,659.464,-0.535,2.870,931.257,-1.115,1.085
0.206000,467457,1000.00,12,0,1,658.719,-0.635,2.781,932.723,0.040,1.084
0.207000,467458,1000.00,12,0,1,656.581,0.030,2.716,931.185,-0.511,1.087
0.208000,467459,1000.00,12,0,1,655.884,-0.540,2.704,931.546,-1.123,1.085
0.209000,467460,1000.00,12,0,1,655.596,0.622,2.655,933.659,1.448,1.104
0.210000,467461,1000.00,12,0,1,655.404,0.092,2.563,935.053,2.277,1.128
0.211000,467462,1000.00,12,0,1,656.101,0.420,2.533,933.395,0.948,1.135
0.212000,467463,1000.00,12,0,1,659.271,1.961,2.537,930.032,-2.481,1.180
0.213000,467464,1000.00,12,0,1,660.761,2.213,2.512,932.098,-1.156,1.181
0.214000,467465,1000.00,12,0,1,662.754,1.562,2.506,931.017,-0.619,1.175
0.215000,467466,1000.00,12,0,1,663.907,0.931,2.496,934.740,0.969,1.180
0.216000,467467,1000.00,12,0,1,666.261,0.630,2.485,934.837,2.945,1.240
0.217000,467468,1000.00,12,0,1,669.528,1.948,2.443,931.570,-1.472,1.254
0.218000,467469,1000.00,12,0,1,671.114,1.982,2.403,930.080,-2.398,1.296
0.219000,467470,1000.00,12,0,1,670.777,0.437,2.391,931.354,-1.334,1.300
0.220000,467471,1000.00,12,0,1,669.552,-1.061,2.386,931.786,-0.245,1.272
0.221000,467472,1000.00,12,0,1,671.450,0.219,2.373,933.299,0.803,1.263
0.222000,467473,1000.00,12,0,1,673.035,2.833,2.404,932.723,0.758,1.224
0.223000,467474,1000.00,12,0,1,667.174,-1.147,2.372,931.305,-0.850,1.219
0.224000,467475,1000.00,12,0,1,663.523,-4.093,2.397,931.738,-0.564,1.214
0.225000,467476,1000.00,12,0,1,662.874,-2.205,2.384,932.218,0.285,1.213
0.226000,467477,1000.00,12,0,1,661.265,-1.780,2.321,932.507,0.279,1.198
0.227000,467478,1000.00,12,0,1,657.013,-3.555,2.295,931.786,-0.011,1.189
0.228000,467479,1000.00,12,0,1,658.743,-1.675,2.115,930.176,-1.634,1.211
0.229000,467480,1000.00,12,0,1,659.031,0.808,1.882,930.633,-1.153,1.222
0.230000,467481,1000.00,12,0,1,655.068,-2.934,1.863,933.299,1.303,1.232
0.231000,467482,1000.00,12,0,1,656.029,-2.829,1.900,931.137,0.177,1.194
0.232000,467483,1000.00,12,0,1,658.142,-0.683,1.797,933.467,0.675,1.184
0.233000,467484,1000.00,12,0,1,661.097,0.250,1.727,932.675,1.605,1.199
0.234000,467485,1000.00,12,0,1,664.748,2.338,1.733,933.828,0.752,1.203
0.235000,467486,1000.00,12,0,1,668.904,3.617,1.807,933.059,1.361,1.218
0.236000,467487,1000.00,12,0,1,671.234,3.923,1.875,932.074,-0.723,1.222
0.237000,467488,1000.00,12,0,1,670.513,1.077,1.861,933.515,0.796,1.227
0.238000,467489,1000.00,12,0,1,672.219,0.535,1.855,934.668,1.835,1.250
0.239000,467490,1000.00,12,0,1,673.948,1.611,1.868,931.882,-0.580,1.250
0.240000,467491,1000.00,12,0,1,676.638,2.878,1.897,931.378,-1.635,1.269
0.241000,467492,1000.00,12,0,1,677.479,4.017,1.941,930.176,-1.897,1.280
0.242000,467493,1000.00,12,0,1,673.107,0.357,1.919,931.450,-1.140,1.287
0.243000,467494,1000.00,12,0,1,666.285,-4.809,2.032,930.825,-0.633,1.290
0.244000,467495,1000.00,12,0,1,665.925,-4.116,2.114,929.696,-1.940,1.317
0.245000,467496,1000.00,12,0,1,670.105,2.094,2.134,931.257,-0.379,1.254
0.246000,467497,1000.00,12,0,1,671.522,5.082,2.207,933.155,1.714,1.265
0.247000,467498,1000.00,12,0,1,672.074,5.728,2.348,933.203,1.564,1.276
0.248000,467499,1000.00,12,0,1,671.114,5.223,2.448,932.987,1.119,1.275
0.249000,467500,1000.00,12,0,1,663.067,-1.789,2.452,931.786,-0.098,1.275
0.250000,467501,1000.00,12,0,1,656.653,-8.490,2.711,932.314,-0.007,1.275
0.251000,467502,1000.00,12,0,1,657.302,-7.586,2.916,931.378,-0.385,1.276
0.252000,467503,1000.00,12,0,1,660.905,-4.064,2.969,932.098,-0.349,1.266
0.253000,467504,1000.00,12,0,1,663.883,-1.882,2.956,932.771,0.773,1.242
0.254000,467505,1000.00,12,0,1,669.576,1.381,2.960,932.458,0.222,1.234
0.255000,467506,1000.00,12,0,1,669.336,0.580,2.960,930.345,-1.391,1.239
0.256000,467507,1000.00,12,0,1,668.711,-2.976,2.989,932.146,-0.413,1.241
0.257000,467508,1000.00,12,0,1,671.882,-1.175,2.993,933.347,1.562,1.258
0.258000,467509,1000.00,12,0,1,672.939,-0.827,2.995,932.266,0.245,1.248
0.259000,467510,1000.00,12,0,1,671.714,-2.621,3.016,930.657,-1.143,1.242
0.260000,467511,1000.00,12,0,1,674.837,-0.304,3.017,931.714,-0.410,1.201
0.261000,467512,1000.00,12,0,1,679.209,4.337,3.078,931.738,0.237,1.194
0.262000,467513,1000.00,12,0,1,672.603,0.167,3.065,931.354,-0.345,1.142
0.263000,467514,1000.00,12,0,1,669.528,-3.532,3.090,930.465,-0.839,1.137
0.264000,467515,1000.00,12,0,1,668.904,-0.785,3.084,932.458,0.544,1.136
0.265000,467516,1000.00,12,0,1,667.126,-1.072,3.085,932.795,1.503,1.148
0.266000,467517,1000.00,12,0,1,666.550,0.471,3.084,932.170,0.353,1.071
0.267000,467518,1000.00,12,0,1,663.787,-0.126,3.072,932.747,0.733,1.055
0.268000,467519,1000.00,12,0,1,663.811,0.272,3.060,933.107,1.038,1.010
0.269000,467520,1000.00,12,0,1,661.433,0.039,3.059,933.635,1.073,1.004
0.270000,467521,1000.00,12,0,1,661.601,-0.915,3.058,933.780,1.196,1.017
0.271000,467522,1000.00,12,0,1,661.625,0.043,3.058,933.395,0.417,1.013
0.272000,467523,1000.00,12,0,1,667.078,2.493,3.052,931.185,-1.322,1.024
0.273000,467524,1000.00,12,0,1,669.792,4.982,3.128,930.489,-2.402,1.072
0.274000,467525,1000.00,12,0,1,672.819,3.975,3.125,932.170,-0.444,1.071
0.275000,467526,1000.00,12,0,1,676.398,5.355,3.200,931.834,-0.289,1.071
0.276000,467527,1000.00,12,0,1,673.396,0.585,3.191,930.777,-1.357,1.087
0.277000,467528,1000.00,12,0,1,673.708,-2.391,3.170,931.474,-0.614,1.091
0.278000,467529,1000.00,12,0,1,677.335,0.489,3.162,930.561,-0.850,1.073
0.279000,467530,1000.00,12,0,1,678.248,0.341,3.160,931.017,-0.783,1.066
0.280000,467531,1000.00,12,0,1,677.839,-0.276,3.133,931.137,0.018,1.050
0.281000,467532,1000.00,12,0,1,674.837,-2.508,3.127,930.297,-0.835,1.057
0.282000,467533,1000.00,12,0,1,670.609,-5.218,3.212,930.152,-0.800,1.058
0.283000,467534,1000.00,12,0,1,671.282,-3.373,3.247,931.522,0.456,1.036
0.284000,467535,1000.00,12,0,1,671.930,0.073,3.230,932.555,1.552,1.053
0.285000,467536,1000.00,12,0,1,666.093,-2.854,3.215,933.467,2.043,1.075
0.286000,467537,1000.00,12,0,1,663.235,-4.323,3.225,933.179,1.660,1.096
0.287000,467538,1000.00,12,0,1,664.844,-0.478,3.222,932.122,0.331,1.091
0.288000,467539,1000.00,12,0,1,666.117,2.079,3.234,932.386,0.212,1.060
0.289000,467540,1000.00,12,0,1,664.196,1.236,3.231,932.555,0.508,1.059
0.290000,467541,1000.00,12,0,1,661.625,-1.377,3.211,930.897,-0.992,1.043
0.291000,467542,1000.00,12,0,1,664.796,0.530,3.161,931.281,-0.970,1.017
0.292000,467543,1000.00,12,0,1,666.838,2.340,3.178,933.587,1.316,1.022
0.293000,467544,1000.00,12,0,1,672.411,4.357,3.165,934.740,2.365,1.071
0.294000,467545,1000.00,12,0,1,675.485,6.153,3.231,932.579,0.385,1.037
0.295000,467546,1000.00,12,0,1,675.053,2.399,3.235,932.074,-0.770,1.041
0.296000,467547,1000.00,12,0,1,679.497,3.434,3.191,932.266,-0.139,1.013
0.297000,467548,1000.00,12,0,1,681.154,3.738,3.132,931.498,-0.844,0.996
0.298000,467549,1000.00,12,0,1,680.121,0.303,3.044,932.531,-0.078,0.983
0.299000,467550,1000.00,12,0,1,681.683,0.578,3.034,932.651,0.511,0.985
0.300000,467551,1000.00,12,0,1,678.800,-1.628,2.796,930.993,-1.131,0.998
0.301000,467552,1000.00,12,0,1,678.752,-2.437,2.605,928.975,-2.686,1.067
0.302000,467553,1000.00,12,0,1,679.136,-0.108,2.541,932.579,-0.010,1.066
0.303000,467554,1000.00,12,0,1,679.281,0.675,2.529,931.738,0.859,1.067
0.304000,467555,1000.00,12,0,1,675.005,-0.775,2.523,931.402,-0.915,1.074
0.305000,467556,1000.00,12,0,1,669.336,-4.765,2.610,931.378,0.039,1.056
0.306000,467557,1000.00,12,0,1,670.225,-2.441,2.599,931.426,-0.507,1.057
0.307000,467558,1000.00,12,0,1,671.714,1.389,2.601,931.546,-0.053,1.034
0.308000,467559,1000.00,12,0,1,669.720,0.406,2.599,932.266,0.363,1.034
0.309000,467560,1000.00,12,0,1,667.631,-1.098,2.578,931.546,-0.051,1.022
0.310000,467561,1000.00,12,0,1,668.351,-0.803,2.580,931.329,-0.514,1.023
0.311000,467562,1000.00,12,0,1,671.882,1.844,2.519,931.882,0.067,1.022
0.312000,467563,1000.00,12,0,1,674.236,2.833,2.551,933.083,1.143,1.034
0.313000,467564,1000.00,12,0,1,674.885,1.409,2.509,932.795,0.949,1.036
0.314000,467565,1000.00,12,0,1,676.879,0.761,2.509,930.825,-0.809,1.039
0.315000,467566,1000.00,12,0,1,679.449,1.076,2.509,932.699,0.222,1.018
0.316000,467567,1000.00,12,0,1,683.820,2.460,2.532,933.035,1.527,1.039
0.317000,467568,1000.00,12,0,1,685.046,2.253,2.552,932.194,0.021,1.034
0.318000,467569,1000.00,12,0,1,687.352,1.679,2.563,933.227,1.028,1.034
0.319000,467570,1000.00,12,0,1,691.075,4.162,2.630,931.185,-0.398,1.024
0.320000,467571,1000.00,12,0,1,685.862,-0.340,2.627,930.056,-1.985,1.048
0.321000,467572,1000.00,12,0,1,682.980,-4.366,2.699,932.386,0.390,1.048
0.322000,467573,1000.00,12,0,1,685.574,-0.347,2.676,932.218,0.743,1.037
0.323000,467574,1000.00,12,0,1,680.458,-2.528,2.606,932.002,-0.025,0.979
0.324000,467575,1000.00,12,0,1,676.350,-5.601,2.665,933.059,0.983,0.987
0.325000,467576,1000.00,12,0,1,673.564,-4.861,2.646,930.393,-1.042,0.997
0.326000,467577,1000.00,12,0,1,674.356,-2.791,2.674,930.176,-2.078,1.022
0.327000,467578,1000.00,12,0,1,673.756,-0.382,2.653,932.194,0.397,1.020
0.328000,467579,1000.00,12,0,1,672.891,-0.749,2.654,933.708,1.542,1.036
0.329000,467580,1000.00,12,0,1,676.518,2.802,2.683,932.987,1.014,1.040
0.330000,467581,1000.00,12,0,1,672.651,0.476,2.684,930.585,-1.429,1.059
0.331000,467582,1000.00,12,0,1,671.282,-3.397,2.703,931.137,-1.284,1.068
0.332000,467583,1000.00,12,0,1,677.575,1.804,2.613,932.699,0.648,1.066
0.333000,467584,1000.00,12,0,1,678.104,1.474,2.578,933.035,0.853,1.071
0.334000,467585,1000.00,12,0,1,680.049,-0.024,2.578,932.843,0.646,1.052
0.335000,467586,1000.00,12,0,1,682.980,1.364,2.553,931.426,-0.578,1.015
0.336000,467587,1000.00,12,0,1,686.391,1.737,2.491,931.666,-0.634,0.992
0.337000,467588,1000.00,12,0,1,692.900,5.518,2.610,930.897,-0.657,0.995
0.338000,467589,1000.00,12,0,1,690.522,2.846,2.624,933.011,0.563,0.998
0.339000,467590,1000.00,12,0,1,679.689,-8.260,2.867,931.834,0.707,1.000
0.340000,467591,1000.00,12,0,1,683.580,-6.264,2.994,933.419,0.665,0.995
0.341000,467592,1000.00,12,0,1,685.478,-0.448,2.994,931.882,0.721,0.990
0.342000,467593,1000.00,12,0,1,684.661,-1.429,2.983,932.555,-0.280,0.973
0.343000,467594,1000.00,12,0,1,684.085,0.585,2.920,932.362,0.710,0.920
0.344000,467595,1000.00,12,0,1,684.373,1.817,2.799,931.498,-0.846,0.926
0.345000,467596,1000.00,12,0,1,683.124,2.744,2.805,932.266,-0.068,0.919
0.346000,467597,1000.00,12,0,1,678.680,0.114,2.763,930.993,-0.754,0.925
0.347000,467598,1000.00,12,0,1,675.245,-2.182,2.729,930.945,-1.476,0.941
0.348000,467599,1000.00,12,0,1,676.830,0.204,2.729,932.194,0.284,0.942
0.349000,467600,1000.00,12,0,1,677.983,2.026,2.743,930.657,-1.054,0.951
0.350000,467601,1000.00,12,0,1,677.479,1.193,2.738,929.264,-2.287,0.992
0.351000,467602,1000.00,12,0,1,678.392,0.699,2.718,930.945,-0.818,0.923
0.352000,467603,1000.00,12,0,1,677.671,-0.673,2.720,931.858,0.731,0.929
0.353000,467604,1000.00,12,0,1,681.370,-0.147,2.718,932.242,0.705,0.926
0.354000,467605,1000.00,12,0,1,685.526,2.688,2.743,931.906,0.681,0.922
0.355000,467606,1000.00,12,0,1,693.501,6.113,2.796,930.969,-0.358,0.924
0.356000,467607,1000.00,12,0,1,697.873,8.639,3.031,930.369,-0.756,0.927
0.357000,467608,1000.00,12,0,1,692.132,0.744,3.027,930.465,-0.544,0.930
0.358000,467609,1000.00,12,0,1,688.144,-5.467,3.123,932.074,0.907,0.938
0.359000,467610,1000.00,12,0,1,686.583,-6.422,3.249,931.233,0.715,0.943
0.360000,467611,1000.00,12,0,1,691.291,-2.682,3.269,931.257,0.044,0.940
0.361000,467612,1000.00,12,0,1,695.230,3.065,3.287,930.849,0.296,0.941
0.362000,467613,1000.00,12,0,1,692.060,0.900,3.265,931.474,0.283,0.928
0.363000,467614,1000.00,12,0,1,688.360,-1.600,3.267,929.864,-0.386,0.920
0.364000,467615,1000.00,12,0,1,682.908,-4.192,3.319,931.257,-0.132,0.913
0.365000,467616,1000.00,12,0,1,681.466,-4.279,3.370,931.402,1.042,0.924
0.366000,467617,1000.00,12,0,1,681.370,-1.334,3.357,933.227,1.536,0.925
0.367000,467618,1000.00,12,0,1,680.121,-1.122,3.346,933.539,2.431,0.986
0.368000,467619,1000.00,12,0,1,681.082,0.657,3.339,933.251,1.197,0.990
0.369000,467620,1000.00,12,0,1,684.925,4.186,3.339,931.666,-0.073,0.989
0.370000,467621,1000.00,12,0,1,682.307,2.223,3.354,931.954,-0.472,0.950
0.371000,467622,1000.00,12,0,1,681.082,-1.352,3.302,932.218,0.133,0.949
0.372000,467623,1000.00,12,0,1,686.175,1.949,3.313,930.609,-1.228,0.959
0.373000,467624,1000.00,12,0,1,685.142,0.354,3.294,931.930,-0.594,0.963
0.374000,467625,1000.00,12,0,1,685.286,-2.903,3.224,932.314,0.684,0.957
0.375000,467626,1000.00,12,0,1,690.594,0.543,3.151,933.059,0.529,0.949
0.376000,467627,1000.00,12,0,1,692.948,1.202,3.130,934.861,2.439,0.966
0.377000,467628,1000.00,12,0,1,694.630,0.624,3.131,933.948,1.407,0.985
0.378000,467629,1000.00,12,0,1,695.062,0.167,3.130,933.179,0.171,0.961
0.379000,467630,1000.00,12,0,1,690.883,-3.847,3.152,931.305,-1.212,0.965
0.380000,467631,1000.00,12,0,1,690.258,-4.829,3.224,929.864,-2.750,1.021
0.381000,467632,1000.00,12,0,1,691.147,-2.076,3.202,931.714,-0.908,1.013
0.382000,467633,1000.00,12,0,1,688.096,-3.003,3.220,932.290,0.248,1.009
0.383000,467634,1000.00,12,0,1,689.249,-0.961,3.216,930.465,-1.424,1.022
0.384000,467635,1000.00,12,0,1,689.249,2.070,3.229,931.185,-1.068,1.029
0.385000,467636,1000.00,12,0,1,689.297,2.783,3.247,932.098,0.291,1.027
0.386000,467637,1000.00,12,0,1,686.727,2.666,3.260,931.618,-0.256,1.023
0.387000,467638,1000.00,12,0,1,684.565,0.769,3.167,934.044,1.412,1.038
0.388000,467639,1000.00,12,0,1,684.445,1.581,3.149,933.587,1.629,1.061
0.389000,467640,1000.00,12,0,1,687.640,3.942,2.977,932.867,-0.076,1.056
0.390000,467641,1000.00,12,0,1,692.228,7.317,3.025,931.257,-0.974,1.061
0.391000,467642,1000.00,12,0,1,688.697,3.360,3.061,933.107,-0.247,1.056
0.392000,467643,1000.00,12,0,1,686.415,-2.162,3.070,932.939,0.728,1.061
0.393000,467644,1000.00,12,0,1,686.343,-2.977,3.097,930.297,-2.152,1.099
0.394000,467645,1000.00,12,0,1,690.474,-1.917,3.099,929.456,-2.705,1.157
0.395000,467646,1000.00,12,0,1,694.774,1.200,3.079,930.753,-1.133,1.168
0.396000,467647,1000.00,12,0,1,694.173,-1.130,3.083,932.699,0.877,1.170
0.397000,467648,1000.00,12,0,1,693.645,-3.351,3.104,930.489,-0.321,1.152
0.398000,467649,1000.00,12,0,1,698.113,-0.411,3.104,931.378,-0.619,1.155
0.399000,467650,1000.00,12,0,1,701.500,2.733,3.115,933.611,2.356,1.193
0.400000,467651,1000.00,12,0,1,701.139,2.109,3.125,932.266,0.914,1.155
0.401000,467652,1000.00,12,0,1,697.873,-0.562,3.124,930.561,-0.850,1.156
0.402000,467653,1000.00,12,0,1,697.512,-0.584,3.124,933.275,1.094,1.161
0.403000,467654,1000.00,12,0,1,693.981,-1.366,3.130,934.500,2.795,1.223
0.404000,467655,1000.00,12,0,1,690.690,-3.407,3.144,933.155,0.947,1.226
0.405000,467656,1000.00,12,0,1,690.042,-1.738,3.032,930.417,-1.538,1.244
0.406000,467657,1000.00,12,0,1,688.937,-0.784,2.778,931.209,-1.402,1.256
0.407000,467658,1000.00,12,0,1,686.175,-1.780,2.787,932.579,0.485,1.255
0.408000,467659,1000.00,12,0,1,687.904,0.102,2.678,932.891,0.554,1.251
0.409000,467660,1000.00,12,0,1,691.099,3.682,2.572,932.675,0.302,1.248
0.410000,467661,1000.00,12,0,1,692.300,4.040,2.607,932.699,0.166,1.248
0.411000,467662,1000.00,12,0,1,690.258,1.013,2.575,932.458,-0.073,1.247
0.412000,467663,1000.00,12,0,1,691.339,-0.368,2.573,931.978,-0.471,1.248
0.413000,467664,1000.00,12,0,1,693.573,0.381,2.563,931.426,-0.952,1.254
0.414000,467665,1000.00,12,0,1,694.101,-1.049,2.498,932.434,-0.060,1.254
0.415000,467666,1000.00,12,0,1,696.984,-0.773,2.426,934.188,1.591,1.266
0.416000,467667,1000.00,12,0,1,702.076,2.245,2.440,930.753,-0.839,1.253
0.417000,467668,1000.00,12,0,1,705.415,3.566,2.486,931.185,-1.720,1.229
0.418000,467669,1000.00,12,0,1,705.895,2.534,2.510,930.873,-0.435,1.219
0.419000,467670,1000.00,12,0,1,698.857,-3.960,2.503,930.417,-1.569,1.239
0.420000,467671,1000.00,12,0,1,696.215,-7.414,2.695,931.906,0.322,1.238
0.421000,467672,1000.00,12,0,1,698.233,-3.411,2.731,932.795,1.171,1.249
0.422000,467673,1000.00,12,0,1,697.752,-1.925,2.731,932.266,0.631,1.240
0.423000,467674,1000.00,12,0,1,696.311,-1.566,2.740,931.161,-0.428,1.238
0.424000,467675,1000.00,12,0,1,692.780,-2.320,2.728,931.954,-0.107,1.235
0.425000,467676,1000.00,12,0,1,695.134,0.464,2.728,932.723,0.979,1.240
0.426000,467677,1000.00,12,0,1,694.582,3.162,2.759,931.017,-0.658,1.195
0.427000,467678,1000.00,12,0,1,686.175,-3.610,2.805,930.921,-1.054,1.187
0.428000,467679,1000.00,12,0,1,689.369,-1.534,2.813,934.428,1.942,1.219
0.429000,467680,1000.00,12,0,1,691.099,2.789,2.788,933.155,1.581,1.227
0.430000,467681,1000.00,12,0,1,691.027,0.783,2.705,932.651,-0.223,1.164
0.431000,467682,1000.00,12,0,1,691.843,1.335,2.696,930.273,-1.285,1.171
0.432000,467683,1000.00,12,0,1,689.225,-2.320,2.682,931.618,-1.272,1.184
0.433000,467684,1000.00,12,0,1,690.210,-3.498,2.724,931.257,-0.009,1.167
0.434000,467685,1000.00,12,0,1,692.372,-2.058,2.724,930.513,-1.453,1.176
0.435000,467686,1000.00,12,0,1,696.263,-0.646,2.697,931.233,-0.232,1.175
0.436000,467687,1000.00,12,0,1,699.842,1.837,2.683,932.002,0.551,1.177
0.437000,467688,1000.00,12,0,1,704.046,3.457,2.725,930.104,-0.785,1.166
0.438000,467689,1000.00,12,0,1,704.839,3.714,2.766,930.777,-0.639,1.146
0.439000,467690,1000.00,12,0,1,701.620,-0.332,2.710,931.426,0.579,1.149
0.440000,467691,1000.00,12,0,1,697.344,-3.930,2.565,931.065,0.149,1.141
0.441000,467692,1000.00,12,0,1,697.680,-3.129,2.560,929.624,-0.999,1.149
0.442000,467693,1000.00,12,0,1,697.512,-0.813,2.544,931.185,0.041,1.144
0.443000,467694,1000.00,12,0,1,697.416,0.332,2.509,933.227,2.215,1.147
0.444000,467695,1000.00,12,0,1,694.678,0.330,2.495,931.233,0.570,1.084
0.445000,467696,1000.00,12,0,1,689.850,-2.454,2.513,931.714,-0.077,1.072
0.446000,467697,1000.00,12,0,1,690.138,-0.993,2.512,933.563,2.096,1.106
0.447000,467698,1000.00,12,0,1,690.018,1.322,2.474,932.218,0.648,1.108
0.448000,467699,1000.00,12,0,1,688.456,0.214,2.474,932.362,0.171,1.105
0.449000,467700,1000.00,12,0,1,686.415,-0.851,2.446,932.531,0.592,1.057
0.450000,467701,1000.00,12,0,1,687.832,-0.439,2.429,931.954,-0.185,1.050
0.451000,467702,1000.00,12,0,1,691.531,2.623,2.456,931.978,-0.178,1.043
0.452000,467703,1000.00,12,0,1,693.789,3.200,2.496,933.395,0.942,1.040
0.453000,467704,1000.00,12,0,1,695.543,2.661,2.516,931.137,-0.452,0.964
0.454000,467705,1000.00,12,0,1,694.774,0.257,2.470,931.546,-1.066,0.967
0.455000,467706,1000.00,12,0,1,695.927,-1.317,2.465,932.651,0.832,0.949
0.456000,467707,1000.00,12,0,1,699.050,0.362,2.463,932.314,0.235,0.929
0.457000,467708,1000.00,12,0,1,699.482,-0.306,2.450,931.522,-0.367,0.928
0.458000,467709,1000.00,12,0,1,704.190,2.095,2.468,930.032,-1.567,0.951
0.459000,467710,1000.00,12,0,1,706.592,4.753,2.505,931.113,-0.886,0.958
0.460000,467711,1000.00,12,0,1,702.364,0.464,2.439,932.290,0.820,0.965
0.461000,467712,1000.00,12,0,1,698.233,-3.064,2.473,932.314,0.510,0.967
0.462000,467713,1000.00,12,0,1,696.191,-3.379,2.519,933.539,1.391,0.985
0.463000,467714,1000.00,12,0,1,696.383,-1.440,2.526,932.026,0.263,0.976
0.464000,467715,1000.00,12,0,1,694.918,-0.203,2.522,931.954,-0.654,0.981
0.465000,467716,1000.00,12,0,1,691.363,-1.713,2.531,930.945,-0.862,0.962
0.466000,467717,1000.00,12,0,1,691.147,-0.551,2.513,931.906,-0.763,0.961
0.467000,467718,1000.00,12,0,1,689.585,0.138,2.462,929.792,-1.456,0.952
0.468000,467719,1000.00,12,0,1,688.937,-0.281,2.436,931.017,-1.526,0.974
0.469000,467720,1000.00,12,0,1,689.009,0.551,2.372,931.305,0.180,0.949
0.470000,467721,1000.00,12,0,1,690.162,0.865,2.131,931.305,-0.526,0.951
0.471000,467722,1000.00,12,0,1,692.276,1.980,2.094,930.897,-0.262,0.937
0.472000,467723,1000.00,12,0,1,691.819,0.406,2.077,931.281,-0.170,0.933
0.473000,467724,1000.00,12,0,1,697.200,2.192,2.089,933.708,1.964,0.972
0.474000,467725,1000.00,12,0,1,700.395,4.416,2.155,933.900,2.536,1.036
0.475000,467726,1000.00,12,0,1,702.364,2.645,2.186,933.179,1.060,1.037
0.476000,467727,1000.00,12,0,1,700.131,-0.243,2.140,931.354,-0.202,1.033
0.477000,467728,1000.00,12,0,1,699.218,-3.685,2.143,931.906,-0.526,1.025
0.478000,467729,1000.00,12,0,1,704.935,0.810,2.135,929.696,-1.258,1.004
0.479000,467730,1000.00,12,0,1,706.352,2.756,2.134,932.771,-0.037,0.979
0.480000,467731,1000.00,12,0,1,701.836,-1.672,2.144,933.467,2.373,1.034
0.481000,467732,1000.00,12,0,1,698.113,-4.270,2.220,931.329,-0.737,1.023
0.482000,467733,1000.00,12,0,1,695.134,-5.109,2.311,932.098,-0.081,1.007
0.483000,467734,1000.00,12,0,1,694.366,-3.673,2.317,933.828,1.511,1.030
0.484000,467735,1000.00,12,0,1,692.780,-2.273,2.321,931.594,-0.303,1.010
0.485000,467736,1000.00,12,0,1,687.664,-4.308,2.398,931.402,-1.234,1.024
0.486000,467737,1000.00,12,0,1,683.412,-6.171,2.538,931.137,-0.855,1.029
0.487000,467738,1000.00,12,0,1,684.181,-3.442,2.538,932.122,-0.363,1.024
0.488000,467739,1000.00,12,0,1,686.030,0.132,2.483,932.050,0.080,1.020
0.489000,467740,1000.00,12,0,1,687.424,1.850,2.496,932.771,0.266,1.017
0.490000,467741,1000.00,12,0,1,688.697,2.678,2.463,931.305,-0.497,1.020
0.491000,467742,1000.00,12,0,1,691.411,3.755,2.480,930.201,-1.886,1.044
0.492000,467743,1000.00,12,0,1,691.627,2.801,2.509,930.945,-0.905,1.052
0.493000,467744,1000.00,12,0,1,691.747,0.443,2.509,931.978,0.339,1.006
0.494000,467745,1000.00,12,0,1,694.221,0.813,2.512,933.395,1.444,1.023
0.495000,467746,1000.00,12,0,1,696.191,1.008,2.492,934.380,2.419,1.079
0.496000,467747,1000.00,12,0,1,697.056,0.115,2.488,932.795,0.795,1.043
0.497000,467748,1000.00,12,0,1,699.026,0.557,2.482,933.323,0.602,1.043
0.498000,467749,1000.00,12,0,1,699.386,0.517,2.483,931.954,-0.030,1.042
0.499000,467750,1000.00,12,0,1,698.113,-0.875,2.483,932.098,-0.713,1.044
0.500000,467751,1000.00,12,0,1,696.527,-1.696,2.494,930.152,-1.442,1.063
0.501000,467752,1000.00,12,0,1,696.023,-1.056,2.470,931.738,-1.045,1.073
0.502000,467753,1000.00,12,0,1,694.510,-0.467,2.430,932.867,1.143,1.077
0.503000,467754,1000.00,12,0,1,691.651,-1.171,2.406,932.434,0.166,1.075
0.504000,467755,1000.00,12,0,1,690.426,-0.464,2.407,934.404,1.604,1.089
0.505000,467756,1000.00,12,0,1,688.072,-0.093,2.399,933.756,1.461,1.102
0.506000,467757,1000.00,12,0,1,687.015,0.095,2.399,933.275,-0.041,1.101
0.507000,467758,1000.00,12,0,1,687.616,2.169,2.418,932.386,-0.286,1.101
0.508000,467759,1000.00,12,0,1,688.144,3.081,2.439,933.059,-0.496,1.081
0.509000,467760,1000.00,12,0,1,688.120,2.942,2.381,932.338,-0.301,1.074
0.510000,467761,1000.00,12,0,1,689.129,2.763,2.412,931.113,-1.921,1.102
0.511000,467762,1000.00,12,0,1,690.282,2.586,2.401,930.945,-1.621,1.123
0.512000,467763,1000.00,12,0,1,691.435,1.727,2.366,932.002,-0.618,1.109
0.513000,467764,1000.00,12,0,1,689.441,-1.484,2.366,935.365,2.315,1.156
0.514000,467765,1000.00,12,0,1,693.116,-1.182,2.372,933.347,1.329,1.168
0.515000,467766,1000.00,12,0,1,696.311,1.320,2.367,933.299,-0.286,1.162
0.516000,467767,1000.00,12,0,1,696.696,-0.452,2.366,933.179,0.667,1.161
0.517000,467768,1000.00,12,0,1,696.864,-1.285,2.373,930.993,-1.797,1.170
0.518000,467769,1000.00,12,0,1,699.050,-0.217,2.373,932.218,-0.796,1.156
0.519000,467770,1000.00,12,0,1,698.954,0.184,2.372,931.714,-0.388,1.157
0.520000,467771,1000.00,12,0,1,698.113,-0.530,2.370,932.098,-0.711,1.159
0.521000,467772,1000.00,12,0,1,695.302,-1.612,2.364,934.476,1.808,1.186
0.522000,467773,1000.00,12,0,1,692.060,-3.157,2.406,933.323,0.907,1.193
0.523000,467774,1000.00,12,0,1,691.027,-2.160,2.405,933.203,0.013,1.160
0.524000,467775,1000.00,12,0,1,690.210,-0.397,2.323,932.555,-0.102,1.103
0.525000,467776,1000.00,12,0,1,687.255,-1.031,2.297,931.594,-1.350,1.109
0.526000,467777,1000.00,12,0,1,686.439,-0.423,2.298,931.906,-0.882,1.116
0.527000,467778,1000.00,12,0,1,687.760,2.092,2.258,931.137,-1.211,1.127
0.528000,467779,1000.00,12,0,1,689.105,3.813,2.318,929.552,-2.509,1.168
0.529000,467780,1000.00,12,0,1,688.697,3.204,2.330,930.297,-1.712,1.193
0.530000,467781,1000.00,12,0,1,686.367,0.297,2.318,931.257,-0.242,1.145
0.531000,467782,1000.00,12,0,1,686.823,-0.953,2.242,932.915,1.117,1.151
0.532000,467783,1000.00,12,0,1,690.426,1.094,2.128,932.579,1.243,1.164
0.533000,467784,1000.00,12,0,1,694.293,2.769,2.101,933.083,1.003,1.153
0.534000,467785,1000.00,12,0,1,697.296,3.346,2.129,934.596,2.448,1.203
0.535000,467786,1000.00,12,0,1,697.056,1.197,2.047,932.675,0.821,1.196
0.536000,467787,1000.00,12,0,1,696.407,-1.541,1.865,932.795,-0.020,1.190
0.537000,467788,1000.00,12,0,1,698.329,-1.020,1.806,932.266,0.276,1.190
0.538000,467789,1000.00,12,0,1,698.017,-1.279,1.815,933.107,0.189,1.190
0.539000,467790,1000.00,12,0,1,697.344,-2.269,1.824,931.113,-0.543,1.192
0.540000,467791,1000.00,12,0,1,699.098,-0.040,1.784,932.338,-0.690,1.194
0.541000,467792,1000.00,12,0,1,695.182,-1.526,1.717,931.858,0.293,1.164
0.542000,467793,1000.00,12,0,1,691.531,-4.200,1.773,932.771,-0.033,1.157
0.543000,467794,1000.00,12,0,1,690.306,-2.642,1.811,932.795,0.889,1.163
0.544000,467795,1000.00,12,0,1,687.904,-2.460,1.841,932.266,-0.199,1.145
0.545000,467796,1000.00,12,0,1,684.589,-3.158,1.889,933.563,0.859,1.100
0.546000,467797,1000.00,12,0,1,684.901,-1.350,1.898,934.356,1.714,1.121
0.547000,467798,1000.00,12,0,1,683.965,0.036,1.897,932.410,-0.265,1.118
0.548000,467799,1000.00,12,0,1,684.733,0.742,1.898,929.912,-2.515,1.173
0.549000,467800,1000.00,12,0,1,684.709,1.542,1.907,930.297,-2.376,1.216
0.550000,467801,1000.00,12,0,1,685.766,1.265,1.900,931.786,-0.287,1.200
0.551000,467802,1000.00,12,0,1,690.330,4.129,1.982,932.314,0.181,1.191
0.552000,467803,1000.00,12,0,1,690.690,3.443,2.040,933.972,1.535,1.200
0.553000,467804,1000.00,12,0,1,689.249,-0.621,2.035,935.461,2.764,1.261
0.554000,467805,1000.00,12,0,1,690.979,-0.853,2.038,934.188,1.491,1.259
0.555000,467806,1000.00,12,0,1,693.621,0.003,2.038,932.434,-0.641,1.245
0.556000,467807,1000.00,12,0,1,697.128,1.641,2.051,930.176,-2.366,1.289
0.557000,467808,1000.00,12,0,1,704.022,6.045,2.200,932.458,-0.880,1.294
0.558000,467809,1000.00,12,0,1,697.056,0.905,2.161,933.323,1.092,1.302
0.559000,467810,1000.00,12,0,1,691.603,-6.839,2.330,932.074,-0.556,1.303
0.560000,467811,1000.00,12,0,1,690.666,-5.025,2.405,929.840,-2.110,1.309
0.561000,467812,1000.00,12,0,1,690.979,-3.573,2.430,932.098,-0.670,1.292
0.562000,467813,1000.00,12,0,1,689.778,-1.767,2.431,932.723,1.078,1.298
0.563000,467814,1000.00,12,0,1,685.478,-3.361,2.468,932.314,0.047,1.257
0.564000,467815,1000.00,12,0,1,685.310,-1.968,2.478,933.371,1.029,1.251
0.565000,467816,1000.00,12,0,1,682.475,-0.890,2.474,930.897,-0.683,1.254
0.566000,467817,1000.00,12,0,1,679.809,-2.600,2.500,931.786,-1.009,1.258
0.567000,467818,1000.00,12,0,1,684.493,2.994,2.529,933.035,1.224,1.245
0.568000,467819,1000.00,12,0,1,683.917,4.106,2.595,932.026,-0.209,1.240
0.569000,467820,1000.00,12,0,1,681.563,0.730,2.597,929.936,-1.719,1.262
0.570000,467821,1000.00,12,0,1,684.349,2.352,2.617,930.969,-1.286,1.271
0.571000,467822,1000.00,12,0,1,682.643,0.679,2.609,933.227,1.379,1.261
0.572000,467823,1000.00,12,0,1,680.698,-3.393,2.615,930.753,-0.441,1.256
0.573000,467824,1000.00,12,0,1,684.709,-1.079,2.601,931.906,-0.498,1.258
0.574000,467825,1000.00,12,0,1,688.865,1.667,2.611,931.185,0.274,1.258
0.575000,467826,1000.00,12,0,1,690.186,1.316,2.614,932.675,0.266,1.244
0.576000,467827,1000.00,12,0,1,691.531,0.867,2.616,931.882,0.956,1.245
0.577000,467828,1000.00,12,0,1,692.396,0.826,2.602,933.756,1.082,1.243
0.578000,467829,1000.00,12,0,1,692.900,0.656,2.547,933.059,1.763,1.217
0.579000,467830,1000.00,12,0,1,689.946,-1.344,2.514,934.308,1.279,1.206
0.580000,467831,1000.00,12,0,1,690.811,-0.811,2.516,934.404,2.204,1.245
0.581000,467832,1000.00,12,0,1,690.306,1.194,2.518,932.146,-0.481,1.237
0.582000,467833,1000.00,12,0,1,686.895,-0.792,2.516,930.657,-1.935,1.255
0.583000,467834,1000.00,12,0,1,684.541,-1.043,2.489,932.242,-0.464,1.248
0.584000,467835,1000.00,12,0,1,682.740,-0.515,2.445,933.299,0.790,1.205
0.585000,467836,1000.00,12,0,1,679.497,-1.353,2.447,932.482,0.161,1.199
0.586000,467837,1000.00,12,0,1,677.167,-1.861,2.451,930.104,-2.076,1.235
0.587000,467838,1000.00,12,0,1,678.272,0.240,2.447,930.128,-2.079,1.269
0.588000,467839,1000.00,12,0,1,678.608,1.806,2.454,932.074,-0.054,1.268
0.589000,467840,1000.00,12,0,1,678.368,1.117,2.438,932.675,0.884,1.272
0.590000,467841,1000.00,12,0,1,678.824,1.069,2.443,931.858,-0.099,1.269
0.591000,467842,1000.00,12,0,1,680.121,0.928,2.437,932.482,0.271,1.268
0.592000,467843,1000.00,12,0,1,680.770,0.333,2.364,934.356,1.812,1.294
0.593000,467844,1000.00,12,0,1,681.298,-0.974,2.338,931.978,0.140,1.288
0.594000,467845,1000.00,12,0,1,682.163,-1.594,2.323,932.338,-0.761,1.292
0.595000,467846,1000.00,12,0,1,683.917,-1.398,2.288,933.659,1.236,1.298
0.596000,467847,1000.00,12,0,1,686.463,-0.097,2.280,932.314,-0.218,1.276
0.597000,467848,1000.00,12,0,1,689.057,1.497,2.290,932.603,-0.305,1.276
0.598000,467849,1000.00,12,0,1,690.811,2.589,2.317,931.426,-0.719,1.230
0.599000,467850,1000.00,12,0,1,689.489,1.589,2.317,931.906,-0.923,1.190
0.600000,467851,1000.00,12,0,1,690.498,2.105,2.329,932.747,0.587,1.192
0.601000,467852,1000.00,12,0,1,687.736,1.669,2.267,932.867,0.376,1.193
0.602000,467853,1000.00,12,0,1,682.019,-2.733,2.248,933.924,1.296,1.188
0.603000,467854,1000.00,12,0,1,677.887,-4.251,2.325,931.714,-0.295,1.122
0.604000,467855,1000.00,12,0,1,677.503,-2.504,2.349,930.897,-1.752,1.130
0.605000,467856,1000.00,12,0,1,676.134,-0.844,2.352,931.738,-0.379,1.127
0.606000,467857,1000.00,12,0,1,674.693,-0.723,2.343,933.275,0.777,1.082
0.607000,467858,1000.00,12,0,1,676.566,1.974,2.199,933.756,1.479,1.095
0.608000,467859,1000.00,12,0,1,678.056,4.146,2.272,933.275,0.634,1.088
0.609000,467860,1000.00,12,0,1,676.158,2.052,2.077,931.354,-0.987,1.094
0.610000,467861,1000.00,12,0,1,675.918,0.529,1.953,929.456,-2.802,1.125
0.611000,467862,1000.00,12,0,1,678.128,1.360,1.896,932.867,-0.080,1.121
0.612000,467863,1000.00,12,0,1,681.010,2.355,1.909,934.476,2.395,1.161
0.613000,467864,1000.00,12,0,1,681.370,1.054,1.854,934.644,1.578,1.182
0.614000,467865,1000.00,12,0,1,681.683,-0.905,1.838,931.786,-0.453,1.175
0.615000,467866,1000.00,12,0,1,683.532,-0.775,1.837,932.218,-1.275,1.184
0.616000,467867,1000.00,12,0,1,686.895,0.877,1.804,933.107,0.545,1.178
0.617000,467868,1000.00,12,0,1,686.199,-0.018,1.754,929.984,-2.193,1.206
0.618000,467869,1000.00,12,0,1,686.895,-0.722,1.658,930.633,-2.127,1.243
0.619000,467870,1000.00,12,0,1,684.853,-1.235,1.664,933.059,0.992,1.227
0.620000,467871,1000.00,12,0,1,686.126,-0.584,1.632,934.356,1.894,1.242
0.621000,467872,1000.00,12,0,1,685.718,1.584,1.645,934.236,1.898,1.256
0.622000,467873,1000.00,12,0,1,682.884,-0.161,1.573,933.059,0.397,1.256
0.623000,467874,1000.00,12,0,1,682.307,0.875,1.571,932.795,-0.008,1.254
0.624000,467875,1000.00,12,0,1,681.130,1.876,1.575,933.659,0.654,1.257
0.625000,467876,1000.00,12,0,1,681.755,3.086,1.624,936.470,2.803,1.317
0.626000,467877,1000.00,12,0,1,678.392,2.204,1.649,932.723,0.240,1.311
0.627000,467878,1000.00,12,0,1,675.798,-0.774,1.649,931.498,-2.536,1.350
0.628000,467879,1000.00,12,0,1,674.068,-1.041,1.653,932.314,-0.664,1.330
0.629000,467880,1000.00,12,0,1,672.291,-3.032,1.697,932.795,-0.589,1.321
0.630000,467881,1000.00,12,0,1,675.605,-0.690,1.696,934.020,0.673,1.287
0.631000,467882,1000.00,12,0,1,677.311,0.779,1.691,934.404,1.012,1.293
0.632000,467883,1000.00,12,0,1,677.431,-1.078,1.694,933.299,-0.181,1.264
0.633000,467884,1000.00,12,0,1,680.458,-0.033,1.688,933.011,-0.636,1.265
0.634000,467885,1000.00,12,0,1,683.340,1.064,1.693,931.858,-1.414,1.276
0.635000,467886,1000.00,12,0,1,685.382,1.065,1.689,932.507,-1.072,1.285
0.636000,467887,1000.00,12,0,1,687.976,1.724,1.686,932.651,-0.367,1.252
0.637000,467888,1000.00,12,0,1,687.424,0.528,1.687,933.515,0.094,1.217
0.638000,467889,1000.00,12,0,1,688.048,-0.261,1.668,934.188,0.977,1.225
0.639000,467890,1000.00,12,0,1,686.703,-0.562,1.662,933.131,-0.005,1.219
0.640000,467891,1000.00,12,0,1,681.731,-4.407,1.769,934.885,0.914,1.225
0.641000,467892,1000.00,12,0,1,679.136,-5.410,1.923,935.077,1.757,1.250
0.642000,467893,1000.00,12,0,1,678.296,-3.545,1.987,932.242,-1.255,1.236
0.643000,467894,1000.00,12,0,1,675.005,-3.729,2.051,932.266,-1.502,1.254
0.644000,467895,1000.00,12,0,1,673.011,-3.386,2.094,933.059,-0.277,1.250
0.645000,467896,1000.00,12,0,1,671.954,-1.661,2.098,930.825,-1.889,1.266
0.646000,467897,1000.00,12,0,1,671.450,-0.352,2.098,933.035,-0.616,1.269
0.647000,467898,1000.00,12,0,1,673.011,2.148,2.109,934.188,1.589,1.288
0.648000,467899,1000.00,12,0,1,674.741,4.277,2.164,933.708,0.436,1.285
0.649000,467900,1000.00,12,0,1,679.713,7.421,2.394,934.068,0.788,1.283
0.650000,467901,1000.00,12,0,1,677.839,5.717,2.509,934.116,0.693,1.284
0.651000,467902,1000.00,12,0,1,673.371,-1.346,2.506,934.957,1.061,1.292
0.652000,467903,1000.00,12,0,1,676.734,-0.313,2.476,933.395,0.043,1.279
0.653000,467904,1000.00,12,0,1,679.857,1.674,2.414,933.635,-0.665,1.282
0.654000,467905,1000.00,12,0,1,679.160,-0.901,2.391,934.404,0.654,1.261
0.655000,467906,1000.00,12,0,1,682.716,0.077,2.388,932.915,-0.853,1.266
0.656000,467907,1000.00,12,0,1,684.973,1.658,2.397,933.876,-0.357,1.262
0.657000,467908,1000.00,12,0,1,683.484,-0.835,2.384,932.122,-1.008,1.253
0.658000,467909,1000.00,12,0,1,682.908,-1.894,2.326,929.888,-3.470,1.342
0.659000,467910,1000.00,12,0,1,682.523,-1.529,2.318,931.714,-1.442,1.350
0.660000,467911,1000.00,12,0,1,681.563,-1.498,2.326,933.780,0.994,1.299
0.661000,467912,1000.00,12,0,1,679.689,-1.484,2.328,933.852,1.134,1.308
0.662000,467913,1000.00,12,0,1,678.007,-1.393,2.312,930.633,-1.469,1.281
0.663000,467914,1000.00,12,0,1,677.647,0.275,2.308,931.906,-1.183,1.272
0.664000,467915,1000.00,12,0,1,676.302,1.103,2.310,932.771,0.858,1.276
0.665000,467916,1000.00,12,0,1,674.236,0.690,2.309,933.900,1.042,1.272
0.666000,467917,1000.00,12,0,1,672.723,0.550,2.307,930.513,-0.866,1.276
0.667000,467918,1000.00,12,0,1,671.954,0.666,2.309,933.203,-0.270,1.238
0.668000,467919,1000.00,12,0,1,673.492,2.074,2.325,934.140,2.431,1.249
0.669000,467920,1000.00,12,0,1,675.125,3.371,2.367,933.467,0.491,1.243
0.670000,467921,1000.00,12,0,1,677.239,3.769,2.425,933.756,0.997,1.222
0.671000,467922,1000.00,12,0,1,678.968,3.775,2.473,932.194,-0.368,1.194
0.672000,467923,1000.00,12,0,1,680.674,2.914,2.507,931.834,-1.195,1.204
0.673000,467924,1000.00,12,0,1,680.025,0.531,2.505,932.579,0.040,1.204
0.674000,467925,1000.00,12,0,1,679.713,-2.155,2.510,933.203,0.330,1.201
0.675000,467926,1000.00,12,0,1,679.257,-3.567,2.522,934.476,1.621,1.157
0.676000,467927,1000.00,12,0,1,681.683,-2.820,2.535,933.587,0.797,1.162
0.677000,467928,1000.00,12,0,1,684.373,-0.315,2.533,932.603,-0.382,1.107
0.678000,467929,1000.00,12,0,1,684.877,-0.084,2.528,932.074,-0.762,1.108
0.679000,467930,1000.00,12,0,1,684.661,-0.137,2.492,931.137,-1.366,1.122
0.680000,467931,1000.00,12,0,1,684.469,0.423,2.491,932.579,-0.279,1.118
0.681000,467932,1000.00,12,0,1,676.734,-4.302,2.561,934.452,1.851,1.140
0.682000,467933,1000.00,12,0,1,674.741,-5.877,2.689,934.356,1.578,1.161
0.683000,467934,1000.00,12,0,1,676.686,-0.573,2.690,932.194,-0.411,1.159
0.684000,467935,1000.00,12,0,1,672.050,-2.140,2.703,932.987,-0.372,1.143
0.685000,467936,1000.00,12,0,1,672.891,-0.987,2.702,933.467,0.703,1.137
0.686000,467937,1000.00,12,0,1,673.323,2.417,2.713,934.981,1.310,1.151
0.687000,467938,1000.00,12,0,1,672.387,1.272,2.718,931.065,-1.148,1.162
0.688000,467939,1000.00,12,0,1,673.732,2.896,2.748,930.128,-3.405,1.250
0.689000,467940,1000.00,12,0,1,676.999,4.816,2.830,932.362,-0.273,1.251
0.690000,467941,1000.00,12,0,1,677.311,4.357,2.828,932.819,0.250,1.245
0.691000,467942,1000.00,12,0,1,673.492,-0.889,2.726,931.882,-0.548,1.222
0.692000,467943,1000.00,12,0,1,674.236,-2.634,2.705,932.651,-0.030,1.209
0.693000,467944,1000.00,12,0,1,675.726,-1.761,2.665,932.338,0.055,1.190
0.694000,467945,1000.00,12,0,1,675.221,-3.751,2.675,932.122,-0.334,1.191
0.695000,467946,1000.00,12,0,1,676.830,-3.329,2.706,931.522,-0.623,1.164
0.696000,467947,1000.00,12,0,1,679.353,-1.503,2.714,931.594,-0.582,1.163
0.697000,467948,1000.00,12,0,1,681.058,-0.246,2.697,933.491,1.070,1.151
0.698000,467949,1000.00,12,0,1,680.962,-0.207,2.628,934.933,2.569,1.206
0.699000,467950,1000.00,12,0,1,679.809,-0.880,2.413,931.714,-0.211,1.201
0.700000,467951,1000.00,12,0,1,678.416,-1.091,2.278,931.402,-1.387,1.213
0.701000,467952,1000.00,12,0,1,675.053,-2.340,2.295,933.155,0.811,1.209
0.702000,467953,1000.00,12,0,1,674.404,-1.618,2.305,932.194,0.131,1.209
0.703000,467954,1000.00,12,0,1,672.531,-0.414,2.294,932.939,0.215,1.206
0.704000,467955,1000.00,12,0,1,668.808,-2.091,2.310,933.395,1.150,1.213
0.705000,467956,1000.00,12,0,1,667.583,-1.421,2.318,934.308,1.275,1.221
0.706000,467957,1000.00,12,0,1,667.679,0.450,2.307,932.146,-0.014,1.220
0.707000,467958,1000.00,12,0,1,666.718,0.683,2.306,932.507,-0.859,1.217
0.708000,467959,1000.00,12,0,1,665.108,-0.290,2.291,931.714,-0.429,1.116
0.709000,467960,1000.00,12,0,1,667.198,0.988,2.285,932.338,-0.770,1.102
0.710000,467961,1000.00,12,0,1,670.633,3.811,2.338,931.834,-0.262,1.094
0.711000,467962,1000.00,12,0,1,670.657,2.624,2.358,931.089,-1.393,1.100
0.712000,467963,1000.00,12,0,1,671.810,1.415,2.358,931.233,-0.907,1.088
0.713000,467964,1000.00,12,0,1,676.278,3.563,2.411,933.419,0.927,1.083
0.714000,467965,1000.00,12,0,1,678.656,4.131,2.476,933.035,1.072,1.087
0.715000,467966,1000.00,12,0,1,673.371,-1.856,2.488,933.083,0.448,1.078
0.716000,467967,1000.00,12,0,1,669.816,-6.942,2.674,932.771,0.432,1.073
0.717000,467968,1000.00,12,0,1,674.693,-2.623,2.698,932.266,-0.252,1.073
0.718000,467969,1000.00,12,0,1,677.095,1.032,2.686,933.107,0.349,1.018
0.719000,467970,1000.00,12,0,1,672.915,-2.131,2.660,930.825,-0.989,1.025
0.720000,467971,1000.00,12,0,1,671.234,-3.084,2.642,932.362,-0.744,1.021
0.721000,467972,1000.00,12,0,1,669.408,-2.184,2.606,930.393,-0.696,1.024
0.722000,467973,1000.00,12,0,1,666.766,-2.755,2.603,930.825,-1.814,1.042
0.723000,467974,1000.00,12,0,1,666.165,-1.065,2.606,930.801,-0.168,1.042
0.724000,467975,1000.00,12,0,1,665.829,0.894,2.591,930.345,-1.261,1.056
0.725000,467976,1000.00,12,0,1,663.979,0.979,2.545,930.849,-0.218,1.032
0.726000,467977,1000.00,12,0,1,663.475,1.456,2.522,933.347,1.733,1.054
0.727000,467978,1000.00,12,0,1,664.051,2.788,2.553,930.897,0.370,1.054
0.728000,467979,1000.00,12,0,1,664.796,3.424,2.598,931.786,-0.202,1.049
0.729000,467980,1000.00,12,0,1,662.538,1.260,2.604,933.227,1.985,1.069
0.730000,467981,1000.00,12,0,1,661.121,-1.374,2.611,933.900,1.923,1.102
0.731000,467982,1000.00,12,0,1,664.075,0.204,2.539,932.146,0.525,1.073
0.732000,467983,1000.00,12,0,1,667.631,2.413,2.423,932.026,-0.304,1.050
0.733000,467984,1000.00,12,0,1,669.384,2.302,2.444,934.524,1.870,1.082
0.734000,467985,1000.00,12,0,1,673.035,3.370,2.471,933.059,1.112,1.092
0.735000,467986,1000.00,12,0,1,674.765,3.712,2.522,932.579,-0.535,1.090
0.736000,467987,1000.00,12,0,1,674.452,1.619,2.510,932.218,-0.036,1.074
0.737000,467988,1000.00,12,0,1,670.321,-2.347,2.525,935.437,1.660,1.087
0.738000,467989,1000.00,12,0,1,670.849,-2.973,2.527,935.005,2.521,1.038
0.739000,467990,1000.00,12,0,1,671.402,-0.553,2.435,932.410,-1.085,1.049
0.740000,467991,1000.00,12,0,1,672.771,0.872,2.359,932.218,-1.088,1.059
0.741000,467992,1000.00,12,0,1,674.789,4.245,2.431,932.290,-0.836,1.063
0.742000,467993,1000.00,12,0,1,670.513,2.063,2.420,931.233,-1.579,1.086
0.743000,467994,1000.00,12,0,1,662.682,-3.988,2.472,932.266,-0.764,1.092
0.744000,467995,1000.00,12,0,1,662.802,-2.810,2.447,931.378,-0.862,1.097
0.745000,467996,1000.00,12,0,1,661.049,-1.135,2.406,931.954,-0.858,1.100
0.746000,467997,1000.00,12,0,1,661.217,-0.818,2.400,933.035,0.604,1.101
0.747000,467998,1000.00,12,0,1,661.770,1.421,2.408,930.897,-1.089,1.101
0.748000,467999,1000.00,12,0,1,662.466,1.594,2.418,932.266,-0.696,1.044
0.749000,468000,1000.00,12,0,1,661.121,0.495,2.416,931.378,-0.196,1.044
0.750000,468001,1000.00,12,0,1,663.787,1.005,2.415,933.131,-0.010,1.025
0.751000,468002,1000.00,12,0,1,666.598,2.958,2.429,933.756,1.772,1.049
0.752000,468003,1000.00,12,0,1,670.873,4.196,2.490,932.410,-0.323,1.050
0.753000,468004,1000.00,12,0,1,675.677,6.488,2.653,931.137,-1.186,1.063
0.754000,468005,1000.00,12,0,1,677.047,5.399,2.745,931.570,-1.014,1.060
0.755000,468006,1000.00,12,0,1,680.049,4.786,2.820,933.035,0.572,1.048
0.756000,468007,1000.00,12,0,1,680.434,4.093,2.878,934.620,1.979,1.085
0.757000,468008,1000.00,12,0,1,680.602,1.693,2.886,932.867,0.583,1.081
0.758000,468009,1000.00,12,0,1,676.470,-1.439,2.893,932.771,-0.222,1.080
0.759000,468010,1000.00,12,0,1,667.967,-9.141,3.166,934.140,1.267,1.089
0.760000,468011,1000.00,12,0,1,664.844,-10.607,3.461,933.275,0.636,1.092
0.761000,468012,1000.00,12,0,1,666.021,-6.537,3.563,932.603,-0.429,1.076
0.762000,468013,1000.00,12,0,1,665.325,-4.107,3.605,931.906,-0.653,1.072
0.763000,468014,1000.00,12,0,1,667.054,-0.756,3.571,933.107,-0.029,1.064
0.764000,468015,1000.00,12,0,1,668.711,3.088,3.550,933.299,0.805,1.060
0.765000,468016,1000.00,12,0,1,660.761,-1.840,3.550,932.555,-0.337,1.059
0.766000,468017,1000.00,12,0,1,657.734,-5.194,3.490,931.305,-1.158,1.070
0.767000,468018,1000.00,12,0,1,657.061,-3.075,3.497,932.122,-0.807,1.075
0.768000,468019,1000.00,12,0,1,655.716,-4.166,3.543,931.089,-0.920,1.082
0.769000,468020,1000.00,12,0,1,656.605,-2.834,3.553,930.873,-1.642,1.097
0.770000,468021,1000.00,12,0,1,657.398,-2.152,3.539,933.419,0.872,1.099
0.771000,468022,1000.00,12,0,1,661.553,0.240,3.526,934.812,2.288,1.142
0.772000,468023,1000.00,12,0,1,666.646,4.046,3.551,933.900,1.105,1.124
0.773000,468024,1000.00,12,0,1,670.657,5.390,3.629,932.002,-0.762,1.128
0.774000,468025,1000.00,12,0,1,673.011,5.597,3.712,931.570,-1.469,1.133
0.775000,468026,1000.00,12,0,1,675.053,4.909,3.774,931.834,-0.793,1.139
0.776000,468027,1000.00,12,0,1,674.597,3.279,3.796,933.876,0.750,1.117
0.777000,468028,1000.00,12,0,1,673.660,0.896,3.778,931.978,-0.006,1.116
0.778000,468029,1000.00,12,0,1,670.681,-1.411,3.752,929.672,-2.783,1.183
0.779000,468030,1000.00,12,0,1,668.639,-3.121,3.774,932.458,-0.090,1.149
0.780000,468031,1000.00,12,0,1,667.871,-2.066,3.780,933.611,1.765,1.144
0.781000,468032,1000.00,12,0,1,666.814,-1.210,3.784,932.819,0.619,1.145
0.782000,468033,1000.00,12,0,1,665.805,-0.223,3.769,932.987,0.721,1.149
0.783000,468034,1000.00,12,0,1,662.995,-0.477,3.755,933.924,1.368,1.134
0.784000,468035,1000.00,12,0,1,660.424,-1.348,3.730,933.275,0.943,1.131
0.785000,468036,1000.00,12,0,1,657.710,-1.686,3.700,931.978,-0.587,1.132
0.786000,468037,1000.00,12,0,1,659.464,0.334,3.693,933.948,0.808,1.138
0.787000,468038,1000.00,12,0,1,659.872,2.408,3.694,933.419,0.977,1.122
0.788000,468039,1000.00,12,0,1,659.199,0.958,3.673,932.531,-0.647,1.067
0.789000,468040,1000.00,12,0,1,659.512,0.830,3.674,931.257,-1.292,1.072
0.790000,468041,1000.00,12,0,1,661.385,1.121,3.675,933.732,0.118,1.061
0.791000,468042,1000.00,12,0,1,660.136,-0.779,3.627,934.188,1.532,1.076
0.792000,468043,1000.00,12,0,1,659.247,-3.615,3.652,932.194,-0.942,1.061
0.793000,468044,1000.00,12,0,1,659.632,-4.114,3.654,932.915,-0.536,1.059
0.794000,468045,1000.00,12,0,1,661.505,-3.469,3.666,932.723,-0.149,1.052
0.795000,468046,1000.00,12,0,1,665.901,-0.346,3.662,931.113,-1.809,1.076
0.796000,468047,1000.00,12,0,1,668.639,2.001,3.672,932.939,-0.276,1.073
0.797000,468048,1000.00,12,0,1,668.976,1.555,3.673,933.203,0.652,1.066
0.798000,468049,1000.00,12,0,1,667.991,0.844,3.668,932.074,-0.646,1.065
0.799000,468050,1000.00,12,0,1,668.351,1.228,3.671,931.305,-1.153,1.077
0.800000,468051,1000.00,12,0,1,662.706,-1.516,3.675,931.954,-0.541,1.080
0.801000,468052,1000.00,12,0,1,659.920,-3.832,3.691,932.218,0.093,1.051
0.802000,468053,1000.00,12,0,1,660.472,-0.224,3.643,933.539,1.021,1.060
0.803000,468054,1000.00,12,0,1,659.391,0.787,3.527,932.290,0.438,1.048
0.804000,468055,1000.00,12,0,1,657.422,0.842,3.446,932.194,-0.387,1.040
0.805000,468056,1000.00,12,0,1,653.819,-0.623,3.380,933.395,1.037,1.047
0.806000,468057,1000.00,12,0,1,652.498,-1.157,3.334,932.915,0.605,1.012
0.807000,468058,1000.00,12,0,1,655.716,2.557,3.345,931.618,-0.756,1.015
0.808000,468059,1000.00,12,0,1,655.428,2.902,3.364,930.513,-1.604,1.039
0.809000,468060,1000.00,12,0,1,653.987,0.366,3.106,933.659,0.696,1.028
0.810000,468061,1000.00,12,0,1,658.767,2.950,2.751,933.275,1.516,1.047
0.811000,468062,1000.00,12,0,1,658.359,2.461,2.615,932.122,-0.678,1.049
0.812000,468063,1000.00,12,0,1,660.352,0.600,2.551,930.873,-1.109,1.057
0.813000,468064,1000.00,12,0,1,660.592,0.636,2.550,933.708,0.520,1.059
0.814000,468065,1000.00,12,0,1,662.850,-0.459,2.513,932.194,0.642,1.057
0.815000,468066,1000.00,12,0,1,662.514,-0.546,2.501,931.714,-1.205,1.070
0.816000,468067,1000.00,12,0,1,662.634,-2.328,2.413,931.714,-0.189,1.057
0.817000,468068,1000.00,12,0,1,660.929,-2.932,2.409,930.056,-1.767,1.081
0.818000,468069,1000.00,12,0,1,662.250,-2.187,2.357,932.074,-0.242,1.073
0.819000,468070,1000.00,12,0,1,664.868,1.747,2.336,932.218,1.006,1.057
0.820000,468071,1000.00,12,0,1,665.277,3.212,2.360,930.921,-0.835,1.057
0.821000,468072,1000.00,12,0,1,660.496,0.431,2.360,931.978,0.380,1.008
0.822000,468073,1000.00,12,0,1,658.863,-0.328,2.290,933.587,1.732,1.025
0.823000,468074,1000.00,12,0,1,660.689,3.194,2.207,932.627,1.158,1.032
0.824000,468075,1000.00,12,0,1,658.118,2.940,2.101,933.299,0.865,1.019
0.825000,468076,1000.00,12,0,1,653.218,-0.992,1.988,934.428,2.181,1.058
0.826000,468077,1000.00,12,0,1,651.224,-1.768,1.949,934.044,1.385,1.071
0.827000,468078,1000.00,12,0,1,653.939,0.892,1.949,932.098,-0.443,1.073
0.828000,468079,1000.00,12,0,1,653.266,1.401,1.949,933.563,0.123,0.998
0.829000,468080,1000.00,12,0,1,656.749,2.198,1.924,931.450,-0.689,1.003
0.830000,468081,1000.00,12,0,1,658.118,3.695,1.972,933.299,-0.524,0.974
0.831000,468082,1000.00,12,0,1,656.629,-0.331,1.965,933.035,0.785,0.977
0.832000,468083,1000.00,12,0,1,660.737,1.147,1.972,929.840,-2.808,1.049
0.833000,468084,1000.00,12,0,1,670.249,7.499,2.238,931.594,-1.398,1.050
0.834000,468085,1000.00,12,0,1,674.092,9.151,2.578,934.428,1.881,1.075
0.835000,468086,1000.00,12,0,1,671.354,3.734,2.621,931.594,-0.419,1.073
0.836000,468087,1000.00,12,0,1,665.757,-3.180,2.659,930.417,-2.133,1.109
0.837000,468088,1000.00,12,0,1,664.628,-5.352,2.743,932.170,-0.185,1.101
0.838000,468089,1000.00,12,0,1,660.833,-6.984,2.912,932.482,0.538,1.100
0.839000,468090,1000.00,12,0,1,659.704,-7.610,3.103,932.410,0.136,1.085
0.840000,468091,1000.00,12,0,1,656.293,-7.107,3.258,931.474,-0.325,1.085
0.841000,468092,1000.00,12,0,1,653.290,-8.041,3.449,932.675,0.140,1.064
0.842000,468093,1000.00,12,0,1,654.347,-4.022,3.458,931.666,0.155,1.056
0.843000,468094,1000.00,12,0,1,653.891,-1.255,3.413,930.657,-1.473,1.073
0.844000,468095,1000.00,12,0,1,649.687,-2.851,3.401,932.410,0.388,1.075
0.845000,468096,1000.00,12,0,1,648.030,-2.776,3.424,931.714,0.232,1.044
0.846000,468097,1000.00,12,0,1,645.219,-3.056,3.439,932.579,0.269,1.044
0.847000,468098,1000.00,12,0,1,645.267,-2.561,3.451,932.819,1.146,1.053
0.848000,468099,1000.00,12,0,1,648.342,1.029,3.452,933.515,0.978,1.058
0.849000,468100,1000.00,12,0,1,652.642,4.347,3.502,934.692,2.212,1.091
0.850000,468101,1000.00,12,0,1,656.317,6.355,3.609,933.011,0.555,1.091
0.851000,468102,1000.00,12,0,1,652.618,1.938,3.579,932.531,-0.512,1.093
0.852000,468103,1000.00,12,0,1,651.945,-2.020,3.590,931.978,-0.545,1.086
0.853000,468104,1000.00,12,0,1,652.714,-1.490,3.595,932.026,-0.850,1.091
0.854000,468105,1000.00,12,0,1,652.498,-3.206,3.621,933.347,0.588,1.093
0.855000,468106,1000.00,12,0,1,659.848,2.008,3.631,931.786,-0.458,1.085
0.856000,468107,1000.00,12,0,1,663.811,6.207,3.732,931.978,-0.903,1.089
0.857000,468108,1000.00,12,0,1,660.064,1.794,3.723,933.780,1.153,1.096
0.858000,468109,1000.00,12,0,1,659.752,0.718,3.702,934.837,1.882,1.105
0.859000,468110,1000.00,12,0,1,658.647,1.247,3.706,932.939,0.323,1.102
0.860000,468111,1000.00,12,0,1,654.587,-1.411,3.688,931.137,-1.826,1.111
0.861000,468112,1000.00,12,0,1,653.194,-1.234,3.675,932.987,-0.249,1.107
0.862000,468113,1000.00,12,0,1,653.939,1.565,3.681,932.146,-0.175,1.096
0.863000,468114,1000.00,12,0,1,652.738,2.458,3.696,932.555,-0.685,1.098
0.864000,468115,1000.00,12,0,1,646.132,-1.502,3.702,932.098,-0.197,1.095
0.865000,468116,1000.00,12,0,1,644.907,-2.428,3.717,931.354,-1.402,1.100
0.866000,468117,1000.00,12,0,1,644.523,-0.242,3.703,931.666,-0.730,1.104
0.867000,468118,1000.00,12,0,1,643.370,-1.230,3.683,932.338,-0.114,1.076
0.868000,468119,1000.00,12,0,1,644.018,-0.323,3.671,931.978,-0.193,1.075
0.869000,468120,1000.00,12,0,1,646.444,1.219,3.666,934.981,1.846,1.097
0.870000,468121,1000.00,12,0,1,648.150,1.888,3.648,934.140,1.960,1.126
0.871000,468122,1000.00,12,0,1,648.750,0.848,3.649,932.819,-0.397,1.126
0.872000,468123,1000.00,12,0,1,651.056,0.849,3.651,932.747,-0.141,1.099
0.873000,468124,1000.00,12,0,1,653.963,2.011,3.634,933.611,0.370,1.088
0.874000,468125,1000.00,12,0,1,654.155,0.636,3.611,933.491,0.499,1.083
0.875000,468126,1000.00,12,0,1,655.788,0.350,3.609,933.083,-0.079,1.039
0.876000,468127,1000.00,12,0,1,655.500,-0.066,3.600,932.675,-0.430,1.022
0.877000,468128,1000.00,12,0,1,655.788,-0.659,3.599,933.299,0.082,1.020
0.878000,468129,1000.00,12,0,1,657.350,1.350,3.599,933.395,0.308,1.021
0.879000,468130,1000.00,12,0,1,657.182,2.002,3.597,932.867,-0.189,1.016
0.880000,468131,1000.00,12,0,1,659.752,4.513,3.615,933.708,0.279,1.014
0.881000,468132,1000.00,12,0,1,650.216,-0.638,3.616,934.572,1.268,1.024
0.882000,468133,1000.00,12,0,1,643.298,-7.685,3.772,933.395,0.080,0.944
0.883000,468134,1000.00,12,0,1,646.853,-1.241,3.625,933.059,-0.565,0.927
0.884000,468135,1000.00,12,0,1,645.988,0.928,3.388,932.146,-1.057,0.900
0.885000,468136,1000.00,12,0,1,641.496,-2.055,3.359,932.050,-1.375,0.919
0.886000,468137,1000.00,12,0,1,643.538,0.257,3.329,933.635,0.223,0.869
0.887000,468138,1000.00,12,0,1,643.129,1.520,3.249,933.996,0.761,0.875
0.888000,468139,1000.00,12,0,1,641.856,-0.574,3.097,935.341,1.381,0.893
0.889000,468140,1000.00,12,0,1,643.658,0.436,2.904,932.531,-0.405,0.895
0.890000,468141,1000.00,12,0,1,646.060,1.616,2.734,933.395,-1.094,0.907
0.891000,468142,1000.00,12,0,1,648.798,2.198,2.506,932.266,-0.518,0.910
0.892000,468143,1000.00,12,0,1,651.345,2.735,2.471,934.116,-0.331,0.911
0.893000,468144,1000.00,12,0,1,653.434,2.298,2.486,934.236,1.226,0.903
0.894000,468145,1000.00,12,0,1,650.264,-1.514,2.462,934.404,0.219,0.902
0.895000,468146,1000.00,12,0,1,649.759,-4.319,2.506,933.083,-0.210,0.902
0.896000,468147,1000.00,12,0,1,653.218,-0.950,2.473,933.515,-0.574,0.905
0.897000,468148,1000.00,12,0,1,651.897,-1.504,2.455,934.308,0.641,0.895
0.898000,468149,1000.00,12,0,1,649.927,-3.210,2.492,934.140,0.405,0.886
0.899000,468150,1000.00,12,0,1,650.144,-1.542,2.425,933.948,0.007,0.829
0.900000,468151,1000.00,12,0,1,649.231,-0.518,2.254,934.548,0.609,0.830
0.901000,468152,1000.00,12,0,1,648.222,0.266,2.237,934.140,0.158,0.827
0.902000,468153,1000.00,12,0,1,646.060,0.483,2.220,932.555,-1.118,0.838
0.903000,468154,1000.00,12,0,1,646.228,1.854,2.226,933.900,-0.489,0.832
0.904000,468155,1000.00,12,0,1,644.018,2.192,2.201,935.629,1.680,0.862
0.905000,468156,1000.00,12,0,1,644.523,2.557,2.212,934.644,0.511,0.862
0.906000,468157,1000.00,12,0,1,645.291,4.545,2.130,932.747,-1.294,0.872
0.907000,468158,1000.00,12,0,1,644.282,3.046,2.158,932.026,-2.058,0.905
0.908000,468159,1000.00,12,0,1,638.542,-2.006,2.174,932.891,-1.041,0.877
0.909000,468160,1000.00,12,0,1,637.220,-4.973,2.279,932.747,-0.734,0.882
0.910000,468161,1000.00,12,0,1,640.295,-2.200,2.291,933.587,-0.242,0.844
0.911000,468162,1000.00,12,0,1,644.547,0.440,2.285,933.684,0.331,0.845
0.912000,468163,1000.00,12,0,1,650.192,3.758,2.336,934.092,0.271,0.845
0.913000,468164,1000.00,12,0,1,650.480,2.912,2.346,933.059,-0.184,0.840
0.914000,468165,1000.00,12,0,1,652.690,1.539,2.347,932.074,-1.412,0.863
0.915000,468166,1000.00,12,0,1,652.618,1.363,2.329,932.218,-0.954,0.851
0.916000,468167,1000.00,12,0,1,652.233,-1.105,2.334,934.668,1.101,0.859
0.917000,468168,1000.00,12,0,1,651.224,-1.373,2.336,933.467,0.801,0.866
0.918000,468169,1000.00,12,0,1,652.594,-0.629,2.337,933.900,0.134,0.866
0.919000,468170,1000.00,12,0,1,648.870,-1.600,2.342,933.515,0.619,0.830
0.920000,468171,1000.00,12,0,1,647.621,-2.755,2.359,933.227,-0.277,0.783
0.921000,468172,1000.00,12,0,1,646.444,-0.730,2.358,933.275,0.119,0.782
0.922000,468173,1000.00,12,0,1,644.427,-1.092,2.360,934.692,1.055,0.795
0.923000,468174,1000.00,12,0,1,642.409,-0.710,2.345,934.356,1.088,0.809
0.924000,468175,1000.00,12,0,1,638.229,-2.300,2.366,934.020,0.270,0.806
0.925000,468176,1000.00,12,0,1,640.079,-0.306,2.366,932.555,-0.767,0.814
0.926000,468177,1000.00,12,0,1,640.367,2.530,2.392,930.753,-2.431,0.881
0.927000,468178,1000.00,12,0,1,638.662,0.174,2.391,932.314,-1.141,0.896
0.928000,468179,1000.00,12,0,1,641.136,2.121,2.402,934.452,1.428,0.917
0.929000,468180,1000.00,12,0,1,641.448,1.962,2.401,931.474,-0.919,0.926
0.930000,468181,1000.00,12,0,1,643.226,1.361,2.323,931.065,-2.026,0.968
0.931000,468182,1000.00,12,0,1,644.739,1.647,2.333,932.074,-0.299,0.953
0.932000,468183,1000.00,12,0,1,648.366,2.130,2.086,932.699,0.183,0.953
0.933000,468184,1000.00,12,0,1,651.969,3.932,2.152,933.179,0.756,0.956
0.934000,468185,1000.00,12,0,1,651.993,1.881,2.164,933.227,0.749,0.950
0.935000,468186,1000.00,12,0,1,654.683,1.942,2.162,931.786,-0.464,0.932
0.936000,468187,1000.00,12,0,1,653.795,1.114,2.167,932.675,-0.070,0.931
0.937000,468188,1000.00,12,0,1,650.600,-2.950,2.197,932.002,0.042,0.925
0.938000,468189,1000.00,12,0,1,648.774,-3.802,2.260,929.984,-1.961,0.946
0.939000,468190,1000.00,12,0,1,646.372,-4.533,2.349,929.792,-1.931,0.983
0.940000,468191,1000.00,12,0,1,644.859,-4.101,2.408,930.897,-0.481,0.973
0.941000,468192,1000.00,12,0,1,644.691,-1.934,2.404,931.450,0.313,0.971
0.942000,468193,1000.00,12,0,1,642.697,-1.233,2.379,933.395,1.873,1.006
0.943000,468194,1000.00,12,0,1,638.830,-2.597,2.385,931.786,1.016,1.001
0.944000,468195,1000.00,12,0,1,640.631,0.080,2.375,933.708,1.416,1.020
0.945000,468196,1000.00,12,0,1,643.874,5.007,2.402,931.017,0.512,1.022
0.946000,468197,1000.00,12,0,1,640.103,2.400,2.422,931.522,-0.902,1.027
0.947000,468198,1000.00,12,0,1,638.253,-0.427,2.414,933.780,2.312,1.074
0.948000,468199,1000.00,12,0,1,642.337,2.828,2.404,935.197,2.803,1.144
0.949000,468200,1000.00,12,0,1,638.109,-0.544,2.395,933.828,1.717,1.169
0.950000,468201,1000.00,12,0,1,638.253,-3.689,2.451,932.338,-0.335,1.167
0.951000,468202,1000.00,12,0,1,641.016,-0.893,2.453,934.284,0.965,1.175
0.952000,468203,1000.00,12,0,1,644.306,-0.198,2.453,934.548,1.785,1.191
0.953000,468204,1000.00,12,0,1,644.715,-0.348,2.439,934.596,0.808,1.194
0.954000,468205,1000.00,12,0,1,647.357,-0.377,2.420,932.074,-0.711,1.175
0.955000,468206,1000.00,12,0,1,651.633,2.884,2.427,933.395,-0.908,1.180
0.956000,468207,1000.00,12,0,1,650.312,1.357,2.348,933.900,0.901,1.172
0.957000,468208,1000.00,12,0,1,647.501,-2.135,2.328,932.050,-1.440,1.154
0.958000,468209,1000.00,12,0,1,647.501,-1.433,2.320,931.474,-1.737,1.170
0.959000,468210,1000.00,12,0,1,648.006,0.098,2.211,931.858,-1.198,1.178
0.960000,468211,1000.00,12,0,1,644.306,-1.065,2.194,932.579,-0.399,1.179
0.961000,468212,1000.00,12,0,1,641.904,-2.316,2.217,933.035,0.234,1.178
0.962000,468213,1000.00,12,0,1,640.463,-0.841,2.156,933.179,0.195,1.178
0.963000,468214,1000.00,12,0,1,639.142,-0.414,2.117,933.780,0.705,1.182
0.964000,468215,1000.00,12,0,1,638.782,1.092,2.111,933.948,0.714,1.169
0.965000,468216,1000.00,12,0,1,638.445,1.935,2.120,934.188,0.717,1.166
0.966000,468217,1000.00,12,0,1,641.592,4.667,2.215,932.026,-1.021,1.165
0.967000,468218,1000.00,12,0,1,642.673,6.045,2.367,930.633,-2.642,1.218
0.968000,468219,1000.00,12,0,1,639.526,1.853,2.379,932.867,-0.507,1.220
0.969000,468220,1000.00,12,0,1,635.035,-3.265,2.413,932.218,-0.208,1.217
0.970000,468221,1000.00,12,0,1,638.325,-2.483,2.407,932.627,-0.623,1.220
0.971000,468222,1000.00,12,0,1,643.298,1.798,2.418,934.020,1.209,1.231
0.972000,468223,1000.00,12,0,1,642.913,-0.146,2.414,931.642,-0.765,1.227
0.973000,468224,1000.00,12,0,1,645.508,-0.351,2.412,932.507,-0.747,1.222
0.974000,468225,1000.00,12,0,1,652.137,4.286,2.466,933.323,0.911,1.228
0.975000,468226,1000.00,12,0,1,654.635,5.324,2.578,932.098,-0.504,1.225
0.976000,468227,1000.00,12,0,1,648.294,-1.162,2.558,933.035,0.195,1.177
0.977000,468228,1000.00,12,0,1,645.387,-5.396,2.669,933.011,0.611,1.169
0.978000,468229,1000.00,12,0,1,647.669,-1.934,2.666,931.089,-1.209,1.164
0.979000,468230,1000.00,12,0,1,646.324,-1.405,2.659,932.627,-0.186,1.157
0.980000,468231,1000.00,12,0,1,644.066,-2.284,2.672,931.690,-0.034,1.121
0.981000,468232,1000.00,12,0,1,642.985,-1.213,2.667,933.659,0.584,1.123
0.982000,468233,1000.00,12,0,1,641.040,-0.912,2.653,932.627,0.986,1.131
0.983000,468234,1000.00,12,0,1,638.638,-1.188,2.600,934.957,1.311,1.141
0.984000,468235,1000.00,12,0,1,637.124,-0.959,2.590,934.044,1.941,1.169
0.985000,468236,1000.00,12,0,1,635.731,-0.696,2.577,934.837,0.784,1.172
0.986000,468237,1000.00,12,0,1,637.989,1.545,2.582,934.284,1.278,1.186
0.987000,468238,1000.00,12,0,1,638.878,3.172,2.587,932.747,-0.991,1.195
0.988000,468239,1000.00,12,0,1,639.839,2.585,2.557,931.354,-1.939,1.194
0.989000,468240,1000.00,12,0,1,639.334,1.509,2.484,934.164,0.160,1.162
0.990000,468241,1000.00,12,0,1,642.649,1.832,2.429,933.443,0.538,1.163
0.991000,468242,1000.00,12,0,1,642.553,1.259,2.420,931.810,-1.592,1.184
0.992000,468243,1000.00,12,0,1,644.282,-0.458,2.415,933.107,-0.406,1.155
0.993000,468244,1000.00,12,0,1,645.772,0.207,2.387,934.140,1.008,1.155
0.994000,468245,1000.00,12,0,1,649.039,0.739,2.389,932.651,-0.454,1.139
0.995000,468246,1000.00,12,0,1,650.336,1.513,2.292,932.579,-0.678,1.141
0.996000,468247,1000.00,12,0,1,647.429,-1.924,2.283,931.594,-1.147,1.145
0.997000,468248,1000.00,12,0,1,649.183,-1.358,2.290,933.491,0.104,1.098
0.998000,468249,1000.00,12,0,1,644.691,-2.744,2.288,932.987,0.563,1.027
0.999000,468250,1000.00,12,0,1,642.145,-5.726,2.426,931.930,-1.034,1.008
1.000000,468251,1000.00,12,0,1,643.706,-1.184,2.375,931.329,-1.149,1.020
1.001000,468252,1000.00,12,0,1,641.736,-0.955,2.376,932.290,-0.451,1.013
1.002000,468253,1000.00,12,0,1,641.808,0.495,2.377,933.563,0.971,0.991
1.003000,468254,1000.00,12,0,1,639.382,0.920,2.380,934.332,1.535,1.008
1.004000,468255,1000.00,12,0,1,637.340,-0.417,2.380,934.548,1.451,1.023
1.005000,468256,1000.00,12,0,1,635.083,-0.529,2.346,935.197,1.704,1.044
1.006000,468257,1000.00,12,0,1,632.969,-2.140,2.357,933.659,0.331,1.037
1.007000,468258,1000.00,12,0,1,636.019,0.680,2.340,934.116,0.001,1.017
1.008000,468259,1000.00,12,0,1,638.614,3.228,2.376,932.747,-0.527,0.989
1.009000,468260,1000.00,12,0,1,643.634,5.522,2.501,932.627,-1.338,0.993
1.010000,468261,1000.00,12,0,1,644.931,5.823,2.628,933.587,0.088,0.991
1.011000,468262,1000.00,12,0,1,636.332,-3.875,2.665,932.338,-0.818,0.997
1.012000,468263,1000.00,12,0,1,638.205,-5.775,2.785,931.714,-1.583,1.022
1.013000,468264,1000.00,12,0,1,642.745,-0.707,2.786,933.539,0.288,1.018
1.014000,468265,1000.00,12,0,1,644.355,-1.011,2.785,932.410,-0.145,1.013
1.015000,468266,1000.00,12,0,1,647.429,1.045,2.776,932.675,-0.521,1.011
1.016000,468267,1000.00,12,0,1,645.123,-0.749,2.698,934.740,1.640,1.027
1.017000,468268,1000.00,12,0,1,650.384,1.912,2.573,933.828,1.006,0.967
1.018000,468269,1000.00,12,0,1,647.934,2.955,2.594,932.290,-0.893,0.973
1.019000,468270,1000.00,12,0,1,643.033,-3.004,2.588,934.188,0.591,0.976
1.020000,468271,1000.00,12,0,1,641.592,-1.783,2.576,935.101,1.732,1.002
1.021000,468272,1000.00,12,0,1,641.568,-0.459,2.564,933.467,0.008,0.987
1.022000,468273,1000.00,12,0,1,638.950,-0.240,2.564,933.203,-0.693,0.986
1.023000,468274,1000.00,12,0,1,636.067,-1.501,2.573,931.930,-1.304,0.998
1.024000,468275,1000.00,12,0,1,633.185,-2.192,2.519,931.305,-2.185,1.037
1.025000,468276,1000.00,12,0,1,633.449,-0.929,2.408,930.945,-1.818,1.066
1.026000,468277,1000.00,12,0,1,634.434,1.084,2.407,930.801,-1.854,1.097
1.027000,468278,1000.00,12,0,1,631.792,-0.657,2.285,932.675,0.039,1.094
1.028000,468279,1000.00,12,0,1,634.122,-0.166,2.268,933.708,1.392,1.098
1.029000,468280,1000.00,12,0,1,639.478,4.593,2.351,932.843,0.490,1.100
1.030000,468281,1000.00,12,0,1,640.343,3.720,2.388,934.164,1.226,1.113
1.031000,468282,1000.00,12,0,1,638.662,0.173,2.382,934.236,1.680,1.135
1.032000,468283,1000.00,12,0,1,636.428,-3.561,2.431,931.594,-0.906,1.134
1.033000,468284,1000.00,12,0,1,640.463,-1.950,2.441,932.819,-0.401,1.120
1.034000,468285,1000.00,12,0,1,644.186,1.418,2.445,935.917,2.828,1.157
1.035000,468286,1000.00,12,0,1,647.717,2.781,2.475,933.227,0.724,1.157
1.036000,468287,1000.00,12,0,1,645.267,1.053,2.469,933.323,-0.483,1.144
1.037000,468288,1000.00,12,0,1,643.658,-1.894,2.443,932.627,-0.033,1.136
1.038000,468289,1000.00,12,0,1,642.817,-1.112,2.421,933.227,-0.449,1.104
1.039000,468290,1000.00,12,0,1,638.061,-3.962,2.475,934.044,0.979,1.113
1.040000,468291,1000.00,12,0,1,635.083,-5.200,2.569,932.699,-0.433,1.112
1.041000,468292,1000.00,12,0,1,638.662,0.140,2.563,932.026,-1.220,1.102
1.042000,468293,1000.00,12,0,1,636.884,1.767,2.575,932.603,-0.485,1.103
1.043000,468294,1000.00,12,0,1,634.482,0.186,2.575,934.668,1.137,1.105
1.044000,468295,1000.00,12,0,1,631.119,-0.585,2.574,934.644,1.561,1.125
1.045000,468296,1000.00,12,0,1,629.630,-1.441,2.573,934.308,0.454,1.123
1.046000,468297,1000.00,12,0,1,630.687,0.601,2.560,932.266,-0.877,1.118
1.047000,468298,1000.00,12,0,1,633.617,3.146,2.591,932.338,-1.578,1.140
1.048000,468299,1000.00,12,0,1,634.410,3.514,2.610,931.570,-1.240,1.151
1.049000,468300,1000.00,12,0,1,633.305,1.099,2.486,932.675,-0.891,1.148
1.050000,468301,1000.00,12,0,1,635.779,1.160,2.486,931.858,-0.509,1.139
1.051000,468302,1000.00,12,0,1,635.203,0.129,2.482,931.858,-1.169,1.149
1.052000,468303,1000.00,12,0,1,635.779,-2.115,2.499,931.714,-0.519,1.143
1.053000,468304,1000.00,12,0,1,638.013,-0.656,2.497,932.699,0.030,1.123
1.054000,468305,1000.00,12,0,1,636.452,-2.904,2.530,931.642,-0.224,1.104
1.055000,468306,1000.00,12,0,1,638.109,-2.633,2.556,933.972,0.982,1.086
1.056000,468307,1000.00,12,0,1,639.815,-0.280,2.539,934.404,2.271,1.132
1.057000,468308,1000.00,12,0,1,642.337,1.535,2.546,932.338,-0.206,1.132
1.058000,468309,1000.00,12,0,1,643.033,3.381,2.550,930.585,-1.776,1.157
1.059000,468310,1000.00,12,0,1,641.064,1.953,2.443,932.146,-0.499,1.144
1.060000,468311,1000.00,12,0,1,639.118,1.269,2.307,932.458,0.427,1.146
1.061000,468312,1000.00,12,0,1,637.869,1.453,2.251,932.843,0.416,1.141
1.062000,468313,1000.00,12,0,1,635.683,1.119,2.103,933.900,1.376,1.136
1.063000,468314,1000.00,12,0,1,634.314,1.044,2.106,933.395,1.015,1.144
1.064000,468315,1000.00,12,0,1,630.302,-0.747,2.104,933.467,0.484,1.146
1.065000,468316,1000.00,12,0,1,629.149,-1.588,2.110,932.867,0.322,1.145
1.066000,468317,1000.00,12,0,1,628.885,-0.394,2.109,933.972,0.569,1.124
1.067000,468318,1000.00,12,0,1,628.044,-1.193,2.098,933.635,0.937,1.123
1.068000,468319,1000.00,12,0,1,629.654,-0.235,2.056,935.557,1.513,1.136
1.069000,468320,1000.00,12,0,1,634.074,2.812,2.051,933.107,0.480,1.135
1.070000,468321,1000.00,12,0,1,638.902,5.485,2.178,931.978,-1.995,1.143
1.071000,468322,1000.00,12,0,1,641.784,5.946,2.334,932.555,-0.550,1.146
1.072000,468323,1000.00,12,0,1,641.184,2.906,2.369,933.179,-0.227,1.142
1.073000,468324,1000.00,12,0,1,639.670,-0.789,2.362,933.635,0.390,1.129
1.074000,468325,1000.00,12,0,1,642.385,-0.443,2.343,935.533,1.753,1.113
1.075000,468326,1000.00,12,0,1,642.697,-0.206,2.339,934.140,0.860,1.090
1.076000,468327,1000.00,12,0,1,644.811,-0.024,2.334,933.708,-0.392,1.060
1.077000,468328,1000.00,12,0,1,645.051,1.169,2.338,931.498,-1.674,1.086
1.078000,468329,1000.00,12,0,1,643.466,-0.609,2.340,930.152,-3.273,1.164
1.079000,468330,1000.00,12,0,1,638.974,-2.991,2.287,931.954,-1.263,1.175
1.080000,468331,1000.00,12,0,1,638.373,-3.015,2.266,932.819,0.174,1.163
1.081000,468332,1000.00,12,0,1,638.878,0.117,2.266,930.993,-1.410,1.156
1.082000,468333,1000.00,12,0,1,637.677,0.547,2.211,929.096,-2.890,1.219
1.083000,468334,1000.00,12,0,1,638.782,2.485,2.222,932.122,-0.489,1.220
1.084000,468335,1000.00,12,0,1,634.866,1.111,2.218,933.059,1.628,1.175
1.085000,468336,1000.00,12,0,1,628.933,-4.362,2.269,932.891,0.599,1.174
1.086000,468337,1000.00,12,0,1,631.600,-1.716,2.277,931.017,-0.415,1.173
1.087000,468338,1000.00,12,0,1,628.405,-2.507,2.289,930.032,-1.878,1.203
1.088000,468339,1000.00,12,0,1,626.363,-6.039,2.438,931.017,-0.476,1.203
1.089000,468340,1000.00,12,0,1,629.654,-2.705,2.403,933.131,1.425,1.212
1.090000,468341,1000.00,12,0,1,633.161,-0.335,2.288,932.410,1.215,1.222
1.091000,468342,1000.00,12,0,1,636.572,1.340,2.296,933.419,1.279,1.224
1.092000,468343,1000.00,12,0,1,637.941,1.238,2.289,932.987,1.471,1.239
1.093000,468344,1000.00,12,0,1,640.103,0.904,2.292,934.164,1.552,1.248
1.094000,468345,1000.00,12,0,1,644.403,3.417,2.341,932.507,0.833,1.234
1.095000,468346,1000.00,12,0,1,646.252,3.895,2.397,931.834,-0.771,1.237
1.096000,468347,1000.00,12,0,1,645.099,1.843,2.409,931.137,-0.677,1.235
1.097000,468348,1000.00,12,0,1,642.241,-1.070,2.373,933.635,0.867,1.221
1.098000,468349,1000.00,12,0,1,639.142,-3.275,2.366,932.819,1.176,1.219
1.099000,468350,1000.00,12,0,1,636.812,-3.966,2.426,931.257,-1.085,1.223
1.100000,468351,1000.00,12,0,1,637.749,-1.481,2.430,930.585,-1.301,1.234
1.101000,468352,1000.00,12,0,1,634.482,-1.350,2.437,931.354,-0.642,1.226
1.102000,468353,1000.00,12,0,1,631.263,-3.084,2.458,930.753,-0.696,1.228
1.103000,468354,1000.00,12,0,1,629.438,-2.075,2.474,930.993,-0.669,1.232
1.104000,468355,1000.00,12,0,1,630.134,-0.164,2.439,932.579,0.832,1.237
1.105000,468356,1000.00,12,0,1,629.630,1.258,2.417,933.563,1.834,1.256
1.106000,468357,1000.00,12,0,1,630.519,1.872,2.432,933.828,1.606,1.236
1.107000,468358,1000.00,12,0,1,631.311,2.862,2.455,933.323,1.086,1.245
1.108000,468359,1000.00,12,0,1,629.774,0.694,2.410,930.873,-1.283,1.233
1.109000,468360,1000.00,12,0,1,629.678,-0.909,2.398,932.386,-0.518,1.233
1.110000,468361,1000.00,12,0,1,631.527,-0.293,2.392,933.948,1.556,1.251
1.111000,468362,1000.00,12,0,1,631.792,-1.325,2.390,934.068,1.226,1.261
1.112000,468363,1000.00,12,0,1,635.371,-0.159,2.385,932.843,0.171,1.246
1.113000,468364,1000.00,12,0,1,637.220,0.899,2.384,931.378,-1.359,1.253
1.114000,468365,1000.00,12,0,1,639.142,0.611,2.383,931.041,-1.561,1.270
1.115000,468366,1000.00,12,0,1,642.241,2.619,2.401,932.266,-0.272,1.270
1.116000,468367,1000.00,12,0,1,642.241,2.196,2.421,930.705,-1.017,1.276
1.117000,468368,1000.00,12,0,1,639.743,-0.398,2.415,929.648,-2.253,1.308
1.118000,468369,1000.00,12,0,1,638.205,-1.307,2.422,931.642,-0.173,1.291
1.119000,468370,1000.00,12,0,1,638.181,-0.210,2.389,930.969,0.008,1.289
1.120000,468371,1000.00,12,0,1,636.187,-0.001,2.260,930.321,-1.091,1.267
1.121000,468372,1000.00,12,0,1,634.290,-0.456,2.099,930.945,-0.080,1.265
1.122000,468373,1000.00,12,0,1,635.947,2.607,2.091,932.651,1.190,1.276
1.123000,468374,1000.00,12,0,1,633.017,2.254,2.112,931.233,0.501,1.276
1.124000,468375,1000.00,12,0,1,630.831,0.293,2.112,931.378,-0.338,1.253
1.125000,468376,1000.00,12,0,1,628.981,0.211,2.112,931.113,0.154,1.247
1.126000,468377,1000.00,12,0,1,630.879,1.308,2.120,931.185,-0.344,1.247
1.127000,468378,1000.00,12,0,1,631.527,2.659,2.146,932.915,1.307,1.238
1.128000,468379,1000.00,12,0,1,634.698,3.353,2.196,934.308,2.460,1.200
1.129000,468380,1000.00,12,0,1,632.969,1.734,2.169,932.458,0.754,1.191
1.130000,468381,1000.00,12,0,1,629.366,-4.167,2.207,931.978,-0.371,1.192
1.131000,468382,1000.00,12,0,1,631.215,-3.993,2.278,932.386,0.264,1.176
1.132000,468383,1000.00,12,0,1,635.899,-0.722,2.279,932.867,0.572,1.106
1.133000,468384,1000.00,12,0,1,638.493,0.397,2.253,932.410,0.285,1.104
1.134000,468385,1000.00,12,0,1,641.880,1.766,2.261,933.515,0.891,1.087
1.135000,468386,1000.00,12,0,1,639.670,-0.447,2.176,931.930,0.067,1.084
1.136000,468387,1000.00,12,0,1,638.998,-2.631,2.194,932.843,-0.057,1.083
1.137000,468388,1000.00,12,0,1,639.046,-1.525,2.176,931.906,0.140,1.050
1.138000,468389,1000.00,12,0,1,637.869,-1.922,2.020,930.465,-1.790,1.078
1.139000,468390,1000.00,12,0,1,636.500,-1.758,1.999,930.393,-1.416,1.078
1.140000,468391,1000.00,12,0,1,631.984,-3.488,2.058,930.513,-1.071,1.074
1.141000,468392,1000.00,12,0,1,631.047,-3.212,2.099,930.032,-1.269,1.074
1.142000,468393,1000.00,12,0,1,632.801,1.261,2.100,932.074,0.384,1.055
1.143000,468394,1000.00,12,0,1,627.564,-1.049,2.101,933.011,1.618,1.057
1.144000,468395,1000.00,12,0,1,625.883,-2.255,2.069,933.107,1.210,1.065
1.145000,468396,1000.00,12,0,1,627.684,1.347,2.004,932.555,0.576,1.062
1.146000,468397,1000.00,12,0,1,630.110,3.634,2.052,932.795,0.371,1.059
1.147000,468398,1000.00,12,0,1,630.230,3.858,2.118,932.747,0.337,1.053
1.148000,468399,1000.00,12,0,1,634.602,5.489,2.208,932.939,0.237,1.040
1.149000,468400,1000.00,12,0,1,631.648,3.013,2.177,932.458,-0.130,1.029
1.150000,468401,1000.00,12,0,1,628.645,-3.229,2.215,931.978,-0.682,1.017
1.151000,468402,1000.00,12,0,1,631.407,-1.756,2.220,929.864,-2.154,1.058
1.152000,468403,1000.00,12,0,1,634.482,-0.180,2.177,929.504,-2.595,1.115
1.153000,468404,1000.00,12,0,1,636.067,-0.182,2.158,930.657,-0.879,1.118
1.154000,468405,1000.00,12,0,1,639.502,1.422,2.167,932.531,0.958,1.120
1.155000,468406,1000.00,12,0,1,639.430,0.953,2.164,932.939,1.645,1.114
1.156000,468407,1000.00,12,0,1,638.037,-1.211,2.154,932.819,1.219,1.104
1.157000,468408,1000.00,12,0,1,637.725,-1.297,2.124,933.563,1.658,1.119
1.158000,468409,1000.00,12,0,1,637.292,-0.710,2.124,931.257,-0.035,1.104
1.159000,468410,1000.00,12,0,1,637.004,0.008,2.120,931.065,-1.116,1.113
1.160000,468411,1000.00,12,0,1,633.137,-1.247,2.127,932.627,0.879,1.098
1.161000,468412,1000.00,12,0,1,632.056,-1.540,2.130,932.074,0.313,1.085
1.162000,468413,1000.00,12,0,1,631.287,0.603,2.132,930.849,-0.924,1.092
1.163000,468414,1000.00,12,0,1,629.678,0.224,2.128,932.266,0.014,1.075
1.164000,468415,1000.00,12,0,1,628.885,0.964,2.131,932.987,1.043,1.063
1.165000,468416,1000.00,12,0,1,630.302,2.632,2.131,932.122,-0.040,1.062
1.166000,468417,1000.00,12,0,1,629.702,2.743,2.144,932.458,-0.055,1.052
1.167000,468418,1000.00,12,0,1,629.870,1.765,2.157,932.867,0.449,1.005
1.168000,468419,1000.00,12,0,1,631.816,2.659,2.182,931.546,-0.756,1.010
1.169000,468420,1000.00,12,0,1,633.449,2.677,2.214,931.738,-0.864,1.018
1.170000,468421,1000.00,12,0,1,635.371,2.292,2.238,931.666,-0.457,1.008
1.171000,468422,1000.00,12,0,1,637.124,1.974,2.254,931.354,-0.817,1.015
1.172000,468423,1000.00,12,0,1,636.860,-0.248,2.224,932.867,0.542,1.003
1.173000,468424,1000.00,12,0,1,638.445,-0.917,2.205,931.906,0.284,1.002
1.174000,468425,1000.00,12,0,1,639.719,-0.647,2.207,932.507,0.063,1.001
1.175000,468426,1000.00,12,0,1,639.574,-1.708,2.220,931.858,0.353,1.002
1.176000,468427,1000.00,12,0,1,641.808,-0.388,2.213,933.515,0.853,1.008
1.177000,468428,1000.00,12,0,1,641.544,0.245,2.181,932.795,1.239,1.006
1.178000,468429,1000.00,12,0,1,641.520,-0.045,2.129,932.963,0.222,0.944
1.179000,468430,1000.00,12,0,1,638.566,-0.787,2.117,931.834,0.013,0.938
1.180000,468431,1000.00,12,0,1,636.980,-1.843,2.050,933.419,0.370,0.938
1.181000,468432,1000.00,12,0,1,635.010,-1.069,1.977,932.699,0.694,0.943
1.182000,468433,1000.00,12,0,1,634.002,-0.932,1.979,931.834,-0.987,0.950
1.183000,468434,1000.00,12,0,1,633.209,0.338,1.978,931.041,-1.248,0.965
1.184000,468435,1000.00,12,0,1,632.656,0.719,1.965,932.843,-0.093,0.957
1.185000,468436,1000.00,12,0,1,630.350,-0.304,1.965,932.987,0.639,0.961
1.186000,468437,1000.00,12,0,1,626.123,-3.664,1.998,930.080,-2.036,1.003
1.187000,468438,1000.00,12,0,1,627.156,-3.340,2.041,932.050,-1.061,1.014
1.188000,468439,1000.00,12,0,1,631.648,1.028,2.028,932.050,0.401,0.984
1.189000,468440,1000.00,12,0,1,631.095,0.007,2.013,932.170,-0.610,0.967
1.190000,468441,1000.00,12,0,1,635.995,1.573,1.964,930.993,-0.549,0.958
1.191000,468442,1000.00,12,0,1,645.339,8.535,2.260,930.465,-1.737,0.973
1.192000,468443,1000.00,12,0,1,648.222,8.898,2.581,932.507,0.606,0.975
1.193000,468444,1000.00,12,0,1,643.970,2.177,2.595,932.386,0.873,0.956
1.194000,468445,1000.00,12,0,1,643.105,-1.504,2.584,931.354,-0.347,0.942
1.195000,468446,1000.00,12,0,1,644.523,-0.800,2.579,931.474,-0.099,0.938
1.196000,468447,1000.00,12,0,1,644.210,-1.430,2.536,932.747,0.932,0.946
1.197000,468448,1000.00,12,0,1,642.097,-3.038,2.513,930.993,-0.009,0.945
1.198000,468449,1000.00,12,0,1,643.778,-1.292,2.397,930.753,-1.024,0.955
1.199000,468450,1000.00,12,0,1,641.376,-1.036,2.364,932.915,1.381,0.975
1.200000,468451,1000.00,12,0,1,634.770,-5.769,2.459,931.354,0.312,0.971
1.201000,468452,1000.00,12,0,1,632.656,-5.922,2.585,932.290,0.195,0.923
1.202000,468453,1000.00,12,0,1,636.980,0.191,2.585,933.948,2.245,0.904
1.203000,468454,1000.00,12,0,1,632.873,-0.172,2.585,931.954,0.227,0.896
1.204000,468455,1000.00,12,0,1,628.885,-3.952,2.638,931.690,-0.646,0.890
1.205000,468456,1000.00,12,0,1,629.438,-1.727,2.645,930.777,-0.879,0.868
1.206000,468457,1000.00,12,0,1,629.606,-0.790,2.642,928.711,-2.849,0.942
1.207000,468458,1000.00,12,0,1,631.503,0.503,2.637,928.855,-2.482,0.977
1.208000,468459,1000.00,12,0,1,631.503,0.582,2.636,931.426,0.124,0.977
1.209000,468460,1000.00,12,0,1,631.359,-1.336,2.643,931.666,0.964,0.974
1.210000,468461,1000.00,12,0,1,639.286,3.755,2.690,929.528,-1.088,0.978
1.211000,468462,1000.00,12,0,1,641.208,5.090,2.776,930.585,-0.470,0.980
1.212000,468463,1000.00,12,0,1,639.214,0.016,2.775,932.699,1.931,1.009
1.213000,468464,1000.00,12,0,1,642.625,1.007,2.778,930.513,0.237,1.009
1.214000,468465,1000.00,12,0,1,645.628,2.867,2.804,928.327,-2.150,1.044
1.215000,468466,1000.00,12,0,1,645.652,1.549,2.788,929.912,-0.589,1.047
1.216000,468467,1000.00,12,0,1,641.328,-2.297,2.780,930.201,0.431,1.049
1.217000,468468,1000.00,12,0,1,642.601,-2.211,2.786,931.426,1.000,1.056
1.218000,468469,1000.00,12,0,1,642.433,0.210,2.761,932.026,2.010,1.089
1.219000,468470,1000.00,12,0,1,643.009,0.630,2.736,930.225,0.126,1.082
1.220000,468471,1000.00,12,0,1,638.542,-0.349,2.718,929.168,-1.029,1.090
1.221000,468472,1000.00,12,0,1,631.479,-5.819,2.826,932.074,1.321,1.099
1.222000,468473,1000.00,12,0,1,629.822,-5.157,2.918,932.170,2.099,1.136
1.223000,468474,1000.00,12,0,1,631.696,-0.971,2.919,930.657,-0.008,1.136
1.224000,468475,1000.00,12,0,1,629.894,-0.462,2.918,928.615,-1.565,1.157
1.225000,468476,1000.00,12,0,1,626.195,-2.867,2.936,930.441,-0.510,1.158
1.226000,468477,1000.00,12,0,1,628.813,-0.723,2.937,929.960,0.201,1.152
1.227000,468478,1000.00,12,0,1,628.381,0.466,2.938,930.993,0.131,1.139
1.228000,468479,1000.00,12,0,1,631.071,0.485,2.939,929.816,0.128,1.139
1.229000,468480,1000.00,12,0,1,634.362,3.533,2.979,930.537,-0.268,1.139
1.230000,468481,1000.00,12,0,1,634.674,1.501,2.975,931.281,1.171,1.150
1.231000,468482,1000.00,12,0,1,636.332,0.988,2.974,930.128,-0.103,1.146
1.232000,468483,1000.00,12,0,1,639.166,1.747,2.982,930.921,0.221,1.138
1.233000,468484,1000.00,12,0,1,639.622,0.735,2.983,929.144,-0.499,1.126
1.234000,468485,1000.00,12,0,1,641.688,0.787,2.983,930.777,-0.262,1.127
1.235000,468486,1000.00,12,0,1,643.730,2.099,2.998,931.666,1.846,1.153
1.236000,468487,1000.00,12,0,1,639.743,-1.255,2.958,933.059,1.827,1.146
1.237000,468488,1000.00,12,0,1,642.361,-0.294,2.920,933.515,2.779,1.202
1.238000,468489,1000.00,12,0,1,642.721,2.832,2.944,931.714,0.436,1.202
1.239000,468490,1000.00,12,0,1,639.214,-0.320,2.944,930.297,-1.027,1.208
1.240000,468491,1000.00,12,0,1,637.076,-0.457,2.937,930.777,-0.703,1.210
1.241000,468492,1000.00,12,0,1,635.347,-0.331,2.678,929.336,-1.465,1.202
1.242000,468493,1000.00,12,0,1,631.768,-1.452,2.372,930.032,-1.290,1.213
1.243000,468494,1000.00,12,0,1,630.639,-1.263,2.359,931.065,0.269,1.208
1.244000,468495,1000.00,12,0,1,630.999,0.708,2.352,931.474,0.455,1.208
1.245000,468496,1000.00,12,0,1,631.503,1.819,2.363,931.041,0.131,1.208
1.246000,468497,1000.00,12,0,1,632.873,2.847,2.388,931.642,0.357,1.202
1.247000,468498,1000.00,12,0,1,632.512,2.215,2.370,929.648,-0.946,1.210
1.248000,468499,1000.00,12,0,1,630.951,-0.668,2.365,928.663,-2.313,1.245
1.249000,468500,1000.00,12,0,1,629.270,-3.198,2.403,930.225,-0.553,1.232
1.250000,468501,1000.00,12,0,1,638.614,2.130,2.281,931.474,0.867,1.237
1.251000,468502,1000.00,12,0,1,645.700,8.489,2.438,931.882,1.059,1.246
1.252000,468503,1000.00,12,0,1,644.066,3.739,2.494,930.393,-0.085,1.205
1.253000,468504,1000.00,12,0,1,646.324,2.471,2.518,930.513,-0.596,1.207
1.254000,468505,1000.00,12,0,1,643.418,-0.358,2.456,930.104,-0.271,1.204
1.255000,468506,1000.00,12,0,1,640.463,-5.354,2.558,930.537,-0.397,1.199
1.256000,468507,1000.00,12,0,1,645.267,-0.858,2.559,932.314,1.491,1.149
1.257000,468508,1000.00,12,0,1,649.231,3.578,2.607,931.618,0.972,1.103
1.258000,468509,1000.00,12,0,1,642.745,-0.836,2.609,930.921,-0.144,1.103
1.259000,468510,1000.00,12,0,1,640.655,-3.420,2.647,932.218,0.963,1.103
1.260000,468511,1000.00,12,0,1,639.959,-0.868,2.596,932.002,0.938,1.100
1.261000,468512,1000.00,12,0,1,635.347,-3.353,2.539,930.969,-0.296,1.099
1.262000,468513,1000.00,12,0,1,631.840,-4.594,2.620,931.834,0.243,1.065
1.263000,468514,1000.00,12,0,1,632.008,-2.471,2.640,931.594,0.387,1.066
1.264000,468515,1000.00,12,0,1,631.648,-0.851,2.611,931.113,-0.442,1.023
1.265000,468516,1000.00,12,0,1,631.191,-0.486,2.603,932.434,0.688,1.024
1.266000,468517,1000.00,12,0,1,632.801,0.971,2.586,932.434,0.867,1.030
1.267000,468518,1000.00,12,0,1,632.392,0.770,2.570,931.041,-0.637,1.024
1.268000,468519,1000.00,12,0,1,634.794,0.891,2.572,930.345,-1.336,1.002
1.269000,468520,1000.00,12,0,1,639.022,3.738,2.625,932.627,0.478,1.004
1.270000,468521,1000.00,12,0,1,643.346,4.984,2.717,931.786,0.490,0.996
1.271000,468522,1000.00,12,0,1,640.799,1.369,2.597,930.777,-1.225,0.993
1.272000,468523,1000.00,12,0,1,639.454,-3.299,2.536,931.329,-0.382,0.950
1.273000,468524,1000.00,12,0,1,642.217,-1.705,2.543,930.417,-0.994,0.960
1.274000,468525,1000.00,12,0,1,641.016,-3.070,2.579,929.936,-1.550,0.959
1.275000,468526,1000.00,12,0,1,643.226,-2.528,2.572,931.017,-0.338,0.958
1.276000,468527,1000.00,12,0,1,646.468,1.500,2.579,930.056,-0.753,0.963
1.277000,468528,1000.00,12,0,1,643.970,-0.250,2.578,929.792,-1.244,0.979
1.278000,468529,1000.00,12,0,1,643.105,-0.758,2.580,931.065,0.181,0.979
1.279000,468530,1000.00,12,0,1,641.352,-0.241,2.531,931.065,0.454,0.981
1.280000,468531,1000.00,12,0,1,640.367,-0.099,2.522,931.474,0.486,0.969
1.281000,468532,1000.00,12,0,1,637.316,-0.271,2.519,931.834,1.009,0.979
1.282000,468533,1000.00,12,0,1,632.392,-3.207,2.547,931.810,0.709,0.984
1.283000,468534,1000.00,12,0,1,631.215,-2.705,2.574,930.489,-0.291,0.982
1.284000,468535,1000.00,12,0,1,632.008,-0.116,2.571,930.849,-0.439,0.984
1.285000,468536,1000.00,12,0,1,634.146,2.278,2.574,931.257,0.412,0.950
1.286000,468537,1000.00,12,0,1,634.962,3.397,2.613,930.657,-0.266,0.915
1.287000,468538,1000.00,12,0,1,635.347,2.439,2.635,930.417,-0.463,0.829
1.288000,468539,1000.00,12,0,1,637.629,3.054,2.640,931.378,0.368,0.828
1.289000,468540,1000.00,12,0,1,637.941,1.860,2.653,931.522,0.696,0.821
1.290000,468541,1000.00,12,0,1,639.935,0.954,2.655,930.393,-0.368,0.817
1.291000,468542,1000.00,12,0,1,640.872,0.467,2.656,932.194,0.733,0.797
1.292000,468543,1000.00,12,0,1,643.298,-0.022,2.648,932.915,1.950,0.823
1.293000,468544,1000.00,12,0,1,648.966,3.482,2.687,931.786,0.375,0.824
1.294000,468545,1000.00,12,0,1,651.080,4.225,2.751,932.338,0.585,0.826
1.295000,468546,1000.00,12,0,1,647.453,-0.268,2.739,933.347,1.449,0.851
1.296000,468547,1000.00,12,0,1,642.601,-5.093,2.804,930.176,-1.075,0.863
1.297000,468548,1000.00,12,0,1,642.793,-4.625,2.862,930.345,-1.894,0.893
1.298000,468549,1000.00,12,0,1,643.922,-1.424,2.867,931.017,-0.243,0.832
1.299000,468550,1000.00,12,0,1,641.568,-1.763,2.842,929.096,-1.983,0.875
1.300000,468551,1000.00,12,0,1,639.550,-1.959,2.840,930.441,-1.043,0.878
1.301000,468552,1000.00,12,0,1,637.052,-1.822,2.587,932.122,1.189,0.882
1.302000,468553,1000.00,12,0,1,638.085,0.288,2.532,930.873,-0.006,0.882
1.303000,468554,1000.00,12,0,1,636.139,1.171,2.513,930.393,-0.673,0.883
1.304000,468555,1000.00,12,0,1,634.866,-0.076,2.513,930.969,-0.037,0.882
1.305000,468556,1000.00,12,0,1,633.882,0.315,2.397,930.104,-0.517,0.883
1.306000,468557,1000.00,12,0,1,630.567,-2.652,2.423,929.480,-1.255,0.876
1.307000,468558,1000.00,12,0,1,632.680,-1.790,2.383,929.216,-1.103,0.879
1.308000,468559,1000.00,12,0,1,633.449,-0.544,2.381,931.906,0.949,0.889
1.309000,468560,1000.00,12,0,1,636.956,0.033,2.332,931.594,1.553,0.905
1.310000,468561,1000.00,12,0,1,640.872,2.962,2.366,930.176,-0.537,0.899
1.311000,468562,1000.00,12,0,1,644.066,3.053,2.357,931.858,0.902,0.907
1.312000,468563,1000.00,12,0,1,647.838,4.441,2.352,932.891,2.038,0.951
1.313000,468564,1000.00,12,0,1,647.237,2.239,2.347,931.666,0.668,0.954
1.314000,468565,1000.00,12,0,1,648.150,0.559,2.345,932.146,0.606,0.956
1.315000,468566,1000.00,12,0,1,647.333,-0.023,2.344,931.233,0.164,0.951
1.316000,468567,1000.00,12,0,1,647.549,-0.995,2.344,931.666,-0.086,0.943
1.317000,468568,1000.00,12,0,1,646.324,-0.603,2.343,930.345,-0.542,0.942
1.318000,468569,1000.00,12,0,1,640.655,-4.634,2.430,930.489,-1.086,0.936
1.319000,468570,1000.00,12,0,1,635.803,-7.195,2.581,931.738,0.588,0.937
1.320000,468571,1000.00,12,0,1,638.830,-2.559,2.509,930.537,-0.319,0.935
1.321000,468572,1000.00,12,0,1,639.526,1.673,2.513,928.615,-2.151,0.968
1.322000,468573,1000.00,12,0,1,638.181,1.458,2.478,929.576,-1.228,0.982
1.323000,468574,1000.00,12,0,1,642.193,5.729,2.596,930.681,0.250,0.973
1.324000,468575,1000.00,12,0,1,640.295,5.758,2.685,930.705,0.333,0.949
1.325000,468576,1000.00,12,0,1,637.389,1.461,2.670,930.056,-0.272,0.949
1.326000,468577,1000.00,12,0,1,639.478,2.978,2.694,930.369,-0.100,0.943
1.327000,468578,1000.00,12,0,1,639.286,2.111,2.710,929.072,-0.864,0.934
1.328000,468579,1000.00,12,0,1,643.033,2.817,2.737,930.657,-0.062,0.934
1.329000,468580,1000.00,12,0,1,645.291,3.889,2.792,932.002,1.808,0.966
1.330000,468581,1000.00,12,0,1,648.102,2.867,2.821,930.585,0.273,0.964
1.331000,468582,1000.00,12,0,1,651.513,3.938,2.875,930.561,-0.180,0.954
1.332000,468583,1000.00,12,0,1,650.912,1.023,2.843,930.993,0.497,0.951
1.333000,468584,1000.00,12,0,1,648.390,-3.307,2.856,929.432,-0.854,0.958
1.334000,468585,1000.00,12,0,1,650.624,-2.895,2.885,930.225,-0.478,0.959
1.335000,468586,1000.00,12,0,1,651.369,-1.740,2.877,931.233,0.926,0.966
1.336000,468587,1000.00,12,0,1,652.305,-1.491,2.845,931.257,0.782,0.971
1.337000,468588,1000.00,12,0,1,646.180,-4.857,2.906,930.993,0.516,0.972
1.338000,468589,1000.00,12,0,1,645.508,-5.991,2.996,931.906,1.070,0.982
1.339000,468590,1000.00,12,0,1,644.715,-2.802,3.011,930.897,0.497,0.980
1.340000,468591,1000.00,12,0,1,641.232,-4.452,3.073,930.008,-0.755,0.984
1.341000,468592,1000.00,12,0,1,639.022,-3.972,3.123,932.146,1.045,0.990
1.342000,468593,1000.00,12,0,1,636.524,-3.668,3.166,931.786,1.264,0.967
1.343000,468594,1000.00,12,0,1,638.061,-1.193,3.132,929.672,-1.167,0.980
1.344000,468595,1000.00,12,0,1,639.310,2.167,3.090,931.233,-0.042,0.976
1.345000,468596,1000.00,12,0,1,641.856,3.672,3.133,930.561,0.097,0.955
1.346000,468597,1000.00,12,0,1,641.160,3.705,3.094,929.768,-1.252,0.959
1.347000,468598,1000.00,12,0,1,642.337,2.154,3.039,932.338,1.057,0.933
1.348000,468599,1000.00,12,0,1,643.898,2.941,3.061,931.017,0.523,0.935
1.349000,468600,1000.00,12,0,1,643.802,0.512,3.051,929.792,-1.489,0.917
1.350000,468601,1000.00,12,0,1,646.661,0.812,3.041,932.939,1.345,0.924
1.351000,468602,1000.00,12,0,1,650.768,2.757,3.055,933.395,2.169,0.959
1.352000,468603,1000.00,12,0,1,653.627,3.130,3.087,931.185,-0.369,0.961
1.353000,468604,1000.00,12,0,1,655.188,2.734,3.106,929.864,-1.698,0.986
1.354000,468605,1000.00,12,0,1,653.458,-0.122,3.106,928.831,-2.328,1.039
1.355000,468606,1000.00,12,0,1,653.098,-1.601,3.114,930.201,-1.140,1.049
1.356000,468607,1000.00,12,0,1,653.218,-1.040,3.095,930.945,0.259,1.035
1.357000,468608,1000.00,12,0,1,653.242,-0.534,3.086,931.666,0.572,1.026
1.358000,468609,1000.00,12,0,1,648.846,-2.630,3.107,932.338,1.374,1.036
1.359000,468610,1000.00,12,0,1,650.456,-1.104,3.111,930.873,0.058,1.012
1.360000,468611,1000.00,12,0,1,648.198,0.552,3.084,930.729,-0.518,1.012
1.361000,468612,1000.00,12,0,1,647.669,-0.132,3.053,929.144,-1.226,1.019
1.362000,468613,1000.00,12,0,1,645.532,0.864,2.991,929.072,-1.803,1.010
1.363000,468614,1000.00,12,0,1,645.291,0.394,2.974,929.984,-0.239,1.006
1.364000,468615,1000.00,12,0,1,645.796,2.192,2.989,929.984,-0.239,1.003
1.365000,468616,1000.00,12,0,1,643.658,0.252,2.990,931.666,1.074,1.014
1.366000,468617,1000.00,12,0,1,645.724,0.692,2.988,930.585,0.666,1.018
1.367000,468618,1000.00,12,0,1,649.087,3.467,3.027,931.089,0.107,1.016
1.368000,468619,1000.00,12,0,1,649.423,1.727,2.965,931.281,0.965,1.013
1.369000,468620,1000.00,12,0,1,651.393,1.237,2.790,930.945,0.034,1.010
1.370000,468621,1000.00,12,0,1,653.506,1.073,2.771,931.594,0.677,1.013
1.371000,468622,1000.00,12,0,1,654.179,-0.344,2.761,930.681,-0.036,0.967
1.372000,468623,1000.00,12,0,1,656.893,-0.270,2.754,930.489,-0.610,0.955
1.373000,468624,1000.00,12,0,1,653.578,-3.329,2.674,931.329,0.394,0.956
1.374000,468625,1000.00,12,0,1,651.417,-7.237,2.745,932.266,1.059,0.966
1.375000,468626,1000.00,12,0,1,651.729,-5.707,2.853,930.465,-0.158,0.966
1.376000,468627,1000.00,12,0,1,652.978,-3.993,2.878,930.321,-1.000,0.976
1.377000,468628,1000.00,12,0,1,653.867,-1.484,2.870,928.519,-1.567,0.993
1.378000,468629,1000.00,12,0,1,652.017,-1.469,2.850,928.855,-1.923,1.030
1.379000,468630,1000.00,12,0,1,649.135,-2.492,2.819,929.744,-0.084,0.998
1.380000,468631,1000.00,12,0,1,647.165,-2.160,2.806,929.912,-0.074,0.997
1.381000,468632,1000.00,12,0,1,646.420,-0.954,2.753,931.257,1.133,1.009
1.382000,468633,1000.00,12,0,1,645.892,0.553,2.751,933.467,2.997,1.092
1.383000,468634,1000.00,12,0,1,643.562,-0.155,2.711,933.491,2.827,1.157
1.384000,468635,1000.00,12,0,1,642.889,-0.235,2.680,932.098,1.044,1.164
1.385000,468636,1000.00,12,0,1,644.499,1.605,2.678,932.386,0.644,1.161
1.386000,468637,1000.00,12,0,1,646.108,2.782,2.699,933.587,1.680,1.180
1.387000,468638,1000.00,12,0,1,649.471,4.292,2.679,931.257,-0.366,1.178
1.388000,468639,1000.00,12,0,1,649.039,3.006,2.577,929.504,-2.502,1.221
1.389000,468640,1000.00,12,0,1,650.456,1.148,2.552,929.096,-2.424,1.266
1.390000,468641,1000.00,12,0,1,654.491,3.225,2.515,928.951,-2.258,1.302
1.391000,468642,1000.00,12,0,1,657.830,3.869,2.511,932.507,0.746,1.297
1.392000,468643,1000.00,12,0,1,660.112,3.760,2.514,932.555,1.817,1.311
1.393000,468644,1000.00,12,0,1,657.109,-0.184,2.509,929.864,-1.334,1.314
1.394000,468645,1000.00,12,0,1,654.876,-4.065,2.555,931.305,-0.278,1.314
1.395000,468646,1000.00,12,0,1,652.834,-5.051,2.602,930.176,-0.348,1.315
1.396000,468647,1000.00,12,0,1,653.554,-4.337,2.621,930.393,-1.002,1.311
1.397000,468648,1000.00,12,0,1,651.945,-3.221,2.643,931.618,0.844,1.308
1.398000,468649,1000.00,12,0,1,651.296,-3.037,2.645,930.176,-0.455,1.307
1.399000,468650,1000.00,12,0,1,650.912,-0.723,2.646,932.723,1.090,1.299
1.400000,468651,1000.00,12,0,1,647.333,-1.935,2.658,931.137,0.915,1.292
1.401000,468652,1000.00,12,0,1,644.475,-2.874,2.660,929.216,-2.060,1.288
1.402000,468653,1000.00,12,0,1,642.649,-2.254,2.643,929.600,-1.018,1.295
1.403000,468654,1000.00,12,0,1,643.898,-0.153,2.614,931.065,0.125,1.273
1.404000,468655,1000.00,12,0,1,642.865,0.838,2.617,930.225,-0.016,1.230
1.405000,468656,1000.00,12,0,1,640.175,-1.846,2.620,929.456,-1.145,1.230
1.406000,468657,1000.00,12,0,1,640.607,-1.495,2.625,930.417,-0.113,1.229
1.407000,468658,1000.00,12,0,1,640.463,-1.628,2.634,929.672,-0.326,1.227
1.408000,468659,1000.00,12,0,1,640.559,-2.568,2.632,929.744,-0.708,1.216
1.409000,468660,1000.00,12,0,1,638.037,-4.940,2.719,931.690,1.321,1.230
1.410000,468661,1000.00,12,0,1,637.845,-6.572,2.872,929.768,-0.007,1.228
1.411000,468662,1000.00,12,0,1,642.769,-2.396,2.892,928.735,-1.545,1.235
1.412000,468663,1000.00,12,0,1,647.693,1.681,2.899,930.345,0.231,1.209
1.413000,468664,1000.00,12,0,1,651.200,3.893,2.951,929.432,-0.059,1.209
1.414000,468665,1000.00,12,0,1,656.197,7.085,3.101,931.257,0.771,1.213
1.415000,468666,1000.00,12,0,1,660.568,10.163,3.417,932.362,2.551,1.256
1.416000,468667,1000.00,12,0,1,661.673,10.167,3.706,932.098,1.538,1.272
1.417000,468668,1000.00,12,0,1,660.713,8.333,3.858,930.753,0.489,1.273
1.418000,468669,1000.00,12,0,1,658.575,6.184,3.948,931.666,0.553,1.269
1.419000,468670,1000.00,12,0,1,656.509,4.375,3.993,929.840,-0.237,1.269
1.420000,468671,1000.00,12,0,1,655.212,3.855,4.027,928.063,-2.498,1.314
1.421000,468672,1000.00,12,0,1,653.146,2.865,4.047,928.735,-1.429,1.329
1.422000,468673,1000.00,12,0,1,650.240,0.986,4.049,931.498,1.095,1.335
1.423000,468674,1000.00,12,0,1,650.360,1.268,4.026,930.777,1.054,1.343
1.424000,468675,1000.00,12,0,1,652.017,3.210,3.920,931.113,0.456,1.336
1.425000,468676,1000.00,12,0,1,650.336,1.561,3.842,932.098,1.611,1.355
1.426000,468677,1000.00,12,0,1,651.393,0.731,3.802,931.786,1.052,1.356
1.427000,468678,1000.00,12,0,1,654.587,2.645,3.815,930.345,-0.422,1.339
1.428000,468679,1000.00,12,0,1,657.013,2.683,3.828,931.257,-0.011,1.311
1.429000,468680,1000.00,12,0,1,657.446,0.940,3.814,930.056,-0.500,1.313
1.430000,468681,1000.00,12,0,1,661.505,1.301,3.806,930.152,-1.054,1.321
1.431000,468682,1000.00,12,0,1,664.124,2.070,3.815,932.386,1.206,1.322
1.432000,468683,1000.00,12,0,1,662.898,-1.560,3.820,932.098,1.185,1.264
1.433000,468684,1000.00,12,0,1,655.236,-9.109,4.032,930.393,-0.787,1.204
1.434000,468685,1000.00,12,0,1,656.725,-9.935,4.269,932.026,0.371,1.196
1.435000,468686,1000.00,12,0,1,656.749,-6.879,4.373,930.921,0.092,1.193
1.436000,468687,1000.00,12,0,1,657.518,-6.593,4.454,929.984,-1.413,1.186
1.437000,468688,1000.00,12,0,1,654.611,-5.915,4.491,928.615,-1.912,1.215
1.438000,468689,1000.00,12,0,1,650.168,-8.679,4.636,928.015,-2.553,1.217
1.439000,468690,1000.00,12,0,1,650.336,-5.978,4.710,928.783,-1.309,1.183
1.440000,468691,1000.00,12,0,1,642.889,-8.058,4.824,930.104,0.138,1.139
1.441000,468692,1000.00,12,0,1,640.992,-9.117,4.963,930.585,0.762,1.139
1.442000,468693,1000.00,12,0,1,639.286,-5.238,4.990,930.945,0.958,1.118
1.443000,468694,1000.00,12,0,1,640.799,-3.386,5.013,929.696,-0.046,1.102
1.444000,468695,1000.00,12,0,1,644.691,3.037,4.998,930.152,-0.110,1.101
1.445000,468696,1000.00,12,0,1,648.414,5.999,5.019,930.753,0.768,1.105
1.446000,468697,1000.00,12,0,1,652.161,8.782,5.134,929.744,-0.197,1.097
1.447000,468698,1000.00,12,0,1,649.327,5.255,5.168,928.063,-1.703,1.116
1.448000,468699,1000.00,12,0,1,646.420,-0.265,5.150,930.273,-0.050,1.115
1.449000,468700,1000.00,12,0,1,647.069,-0.794,5.150,930.993,1.401,1.122
1.450000,468701,1000.00,12,0,1,643.274,-4.857,5.189,932.458,1.843,1.144
1.451000,468702,1000.00,12,0,1,642.649,-7.003,5.267,931.474,1.527,1.127
1.452000,468703,1000.00,12,0,1,643.057,-5.859,5.322,933.275,1.777,1.146
1.453000,468704,1000.00,12,0,1,645.051,-4.366,5.358,932.507,1.986,1.180
1.454000,468705,1000.00,12,0,1,653.386,3.127,5.374,930.585,-0.772,1.185
1.455000,468706,1000.00,12,0,1,661.601,10.970,5.588,929.384,-1.520,1.193
1.456000,468707,1000.00,12,0,1,662.562,11.371,5.811,931.065,-0.288,1.194
1.457000,468708,1000.00,12,0,1,653.482,3.287,5.825,932.651,1.584,1.214
1.458000,468709,1000.00,12,0,1,652.449,0.629,5.814,929.648,-0.764,1.214
1.459000,468710,1000.00,12,0,1,656.677,6.821,5.852,930.152,-1.407,1.216
1.460000,468711,1000.00,12,0,1,656.005,6.968,5.861,930.393,0.101,1.216
1.461000,468712,1000.00,12,0,1,653.266,4.848,5.891,930.777,-0.396,1.198
1.462000,468713,1000.00,12,0,1,650.384,2.760,5.900,930.537,0.138,1.198
1.463000,468714,1000.00,12,0,1,649.615,2.076,5.881,931.041,-0.089,1.198
1.464000,468715,1000.00,12,0,1,652.209,4.434,5.829,930.513,-0.016,1.193
1.465000,468716,1000.00,12,0,1,648.918,1.882,5.655,928.831,-1.785,1.165
1.466000,468717,1000.00,12,0,1,644.210,-3.884,5.497,931.834,0.410,1.146
1.467000,468718,1000.00,12,0,1,642.313,-5.968,5.435,932.482,1.972,1.177
1.468000,468719,1000.00,12,0,1,637.100,-10.223,5.556,930.369,-0.743,1.179
1.469000,468720,1000.00,12,0,1,639.286,-9.846,5.694,930.801,-0.485,1.181
1.470000,468721,1000.00,12,0,1,644.979,-3.562,5.690,930.657,-0.300,1.127
1.471000,468722,1000.00,12,0,1,643.274,-5.206,5.723,929.120,-1.642,1.133
1.472000,468723,1000.00,12,0,1,642.913,-6.759,5.801,927.943,-2.498,1.177
1.473000,468724,1000.00,12,0,1,650.696,-0.186,5.798,928.015,-2.089,1.204
1.474000,468725,1000.00,12,0,1,655.764,5.032,5.824,928.543,-1.084,1.212
1.475000,468726,1000.00,12,0,1,656.893,4.951,5.862,930.225,0.538,1.193
1.476000,468727,1000.00,12,0,1,649.999,-0.433,5.861,929.216,0.335,1.185
1.477000,468728,1000.00,12,0,1,644.066,-6.254,5.916,931.113,1.110,1.193
1.478000,468729,1000.00,12,0,1,641.304,-6.110,5.966,930.609,1.757,1.219
1.479000,468730,1000.00,12,0,1,645.772,-0.710,5.966,931.378,1.146,1.228
1.480000,468731,1000.00,12,0,1,653.386,8.686,6.088,930.825,1.468,1.236
1.481000,468732,1000.00,12,0,1,645.988,4.815,6.119,930.657,0.357,1.225
1.482000,468733,1000.00,12,0,1,643.274,0.277,6.115,929.552,-0.116,1.214
1.483000,468734,1000.00,12,0,1,636.764,-1.399,5.981,930.128,-0.235,1.209
1.484000,468735,1000.00,12,0,1,617.571,-17.390,6.313,930.969,0.890,1.215
1.485000,468736,1000.00,12,0,1,608.660,-23.806,7.088,929.888,-0.080,1.215
1.486000,468737,1000.00,12,0,1,609.549,-18.163,7.481,929.744,-0.655,1.202
1.487000,468738,1000.00,12,0,1,625.835,-2.528,7.443,931.065,0.764,1.176
1.488000,468739,1000.00,12,0,1,638.806,12.575,7.553,930.441,0.246,1.120
1.489000,468740,1000.00,12,0,1,634.578,7.153,7.574,931.233,0.510,1.107
1.490000,468741,1000.00,12,0,1,644.282,10.423,7.631,930.249,0.088,1.106
1.491000,468742,1000.00,12,0,1,658.743,22.618,8.173,930.945,-0.025,1.101
1.492000,468743,1000.00,12,0,1,670.609,27.311,9.010,928.591,-1.119,1.104
1.493000,468744,1000.00,12,0,1,670.009,23.501,9.591,928.831,-1.896,1.136
1.494000,468745,1000.00,12,0,1,663.979,11.524,9.719,929.936,0.173,1.136
1.495000,468746,1000.00,12,0,1,663.571,7.820,9.745,931.786,1.336,1.147
1.496000,468747,1000.00,12,0,1,665.565,7.819,9.729,931.762,1.770,1.174
1.497000,468748,1000.00,12,0,1,666.357,7.246,9.754,930.945,0.478,1.151
1.498000,468749,1000.00,12,0,1,659.920,1.904,9.758,929.912,-0.427,1.152
1.499000,468750,1000.00,12,0,1,655.380,-3.248,9.768,931.281,0.444,1.137
1.500000,468751,1000.00,12,0,1,653.194,-2.891,9.752,929.816,-0.213,1.107
1.501000,468752,1000.00,12,0,1,649.183,-5.062,9.728,930.297,-0.634,1.089
1.502000,468753,1000.00,12,0,1,640.559,-10.006,9.796,930.945,0.587,1.063
1.503000,468754,1000.00,12,0,1,638.926,-10.784,9.894,930.417,-0.142,1.026
1.504000,468755,1000.00,12,0,1,641.520,-5.321,9.913,931.354,0.411,1.021
1.505000,468756,1000.00,12,0,1,649.519,1.602,9.794,931.522,0.871,1.006
1.506000,468757,1000.00,12,0,1,656.557,8.241,9.731,930.681,-0.312,1.006
1.507000,468758,1000.00,12,0,1,654.659,4.666,9.742,930.873,-0.151,0.981
1.508000,468759,1000.00,12,0,1,652.978,-0.520,9.742,931.834,0.544,0.978
1.509000,468760,1000.00,12,0,1,654.563,-1.198,9.695,930.873,-0.001,0.958
1.510000,468761,1000.00,12,0,1,658.863,-0.322,9.645,932.218,0.388,0.959
1.511000,468762,1000.00,12,0,1,657.542,-2.542,9.628,931.426,0.534,0.961
1.512000,468763,1000.00,12,0,1,657.494,-5.973,9.657,931.065,-0.720,0.966
1.513000,468764,1000.00,12,0,1,655.548,-7.325,9.708,931.089,-0.125,0.966
1.514000,468765,1000.00,12,0,1,649.327,-13.277,9.868,932.843,0.874,0.974
1.515000,468766,1000.00,12,0,1,643.226,-17.122,10.157,932.290,0.997,0.951
1.516000,468767,1000.00,12,0,1,638.638,-18.223,10.464,932.122,0.026,0.949
1.517000,468768,1000.00,12,0,1,640.295,-13.474,10.603,931.378,-0.223,0.908
1.518000,468769,1000.00,12,0,1,648.918,-1.801,10.507,931.209,-0.760,0.908
1.519000,468770,1000.00,12,0,1,648.822,2.544,10.421,930.633,-0.919,0.915
1.520000,468771,1000.00,12,0,1,640.343,-3.059,10.417,929.528,-1.831,0.950
1.521000,468772,1000.00,12,0,1,636.452,-4.629,10.412,930.249,-1.257,0.938
1.522000,468773,1000.00,12,0,1,641.256,2.154,10.372,929.768,-0.915,0.879
1.523000,468774,1000.00,12,0,1,641.256,5.177,10.398,929.768,-1.321,0.848
1.524000,468775,1000.00,12,0,1,641.256,4.652,10.395,2.498,-676.388,95.659
1.525000,468776,1000.00,12,0,1,644.331,7.593,10.427,930.705,-170.426,98.649
1.526000,468777,1000.00,12,0,1,645.027,7.397,10.479,932.939,390.949,113.086
1.527000,468778,1000.00,12,0,1,647.213,6.869,10.486,930.825,-46.484,113.277
1.528000,468779,1000.00,12,0,1,651.056,8.280,10.516,930.441,219.823,117.465
1.529000,468780,1000.00,12,0,1,650.216,5.123,10.541,931.209,30.369,117.543
1.530000,468781,1000.00,12,0,1,650.864,2.238,10.474,930.633,106.208,118.499
1.531000,468782,1000.00,12,0,1,655.476,4.027,10.467,928.999,62.208,118.825
1.532000,468783,1000.00,12,0,1,654.948,2.260,10.472,930.225,39.763,118.958
1.533000,468784,1000.00,12,0,1,650.576,-3.664,10.483,931.185,69.352,119.361
1.534000,468785,1000.00,12,0,1,651.513,-3.850,10.205,930.585,9.621,119.369
1.535000,468786,1000.00,12,0,1,652.185,-2.087,9.638,928.471,57.320,119.644
1.536000,468787,1000.00,12,0,1,652.714,-1.346,9.291,929.192,-1.465,119.644
1.537000,468788,1000.00,12,0,1,649.903,-1.777,9.288,931.137,45.715,119.819
1.538000,468789,1000.00,12,0,1,637.677,-10.154,9.228,929.528,0.094,119.819
1.539000,468790,1000.00,12,0,1,631.239,-14.296,9.393,930.513,30.861,119.898
1.540000,468791,1000.00,12,0,1,632.344,-8.505,9.354,932.218,5.030,119.900
1.541000,468792,1000.00,12,0,1,636.187,-1.770,8.794,932.218,20.466,119.935
1.542000,468793,1000.00,12,0,1,640.535,4.852,7.930,931.378,4.412,119.937
1.543000,468794,1000.00,12,0,1,640.968,6.588,7.260,932.507,9.263,119.944
1.544000,468795,1000.00,12,0,1,638.734,4.450,7.102,931.474,1.561,119.944
1.545000,468796,1000.00,12,0,1,633.257,-0.318,7.016,929.120,-3.557,119.945
1.546000,468797,1000.00,12,0,1,637.581,1.241,6.930,929.600,-6.263,119.948
1.547000,468798,1000.00,12,0,1,644.114,7.571,6.937,929.432,-11.191,119.958
1.548000,468799,1000.00,12,0,1,645.508,6.304,6.989,930.537,-11.628,119.969
1.549000,468800,1000.00,12,0,1,644.547,3.044,6.987,930.753,-16.129,119.991
1.550000,468801,1000.00,12,0,1,643.298,-0.480,6.976,929.120,-17.547,120.017
1.551000,468802,1000.00,12,0,1,645.411,-0.753,6.940,930.993,-19.683,120.049
1.552000,468803,1000.00,12,0,1,648.630,1.228,6.796,931.690,-16.907,120.073
1.553000,468804,1000.00,12,0,1,643.105,-3.734,6.644,929.432,-20.109,120.106
1.554000,468805,1000.00,12,0,1,630.831,-14.488,6.912,931.185,-16.534,120.129
1.555000,468806,1000.00,12,0,1,630.927,-14.085,7.189,930.825,-14.511,120.147
1.556000,468807,1000.00,12,0,1,639.622,-2.300,7.102,931.305,-11.802,120.158
1.557000,468808,1000.00,12,0,1,640.223,1.482,7.074,931.666,-8.125,120.164
1.558000,468809,1000.00,12,0,1,636.404,-0.491,7.074,932.338,-4.952,120.166
1.559000,468810,1000.00,12,0,1,640.703,4.385,7.099,934.716,-0.151,120.166
1.560000,468811,1000.00,12,0,1,638.758,6.213,7.153,931.834,0.087,120.166
1.561000,468812,1000.00,12,0,1,627.852,-2.730,7.155,931.786,0.379,120.166
1.562000,468813,1000.00,12,0,1,633.737,1.737,7.109,929.672,0.934,120.166
1.563000,468814,1000.00,12,0,1,643.129,13.254,7.278,930.513,0.698,120.166
1.564000,468815,1000.00,12,0,1,645.387,13.668,7.293,931.209,2.242,120.166
1.565000,468816,1000.00,12,0,1,641.376,8.767,6.990,930.681,0.139,120.166
1.566000,468817,1000.00,12,0,1,638.325,2.880,6.510,930.993,-0.973,120.166
1.567000,468818,1000.00,12,0,1,640.775,3.090,6.241,931.041,-2.645,120.167
1.568000,468819,1000.00,12,0,1,647.381,6.666,6.306,931.378,-4.502,120.168
1.569000,468820,1000.00,12,0,1,642.625,1.595,6.300,931.113,-6.138,120.171
1.570000,468821,1000.00,12,0,1,641.016,-4.309,6.315,930.945,-8.043,120.176
1.571000,468822,1000.00,12,0,1,638.181,-6.127,6.340,929.864,-9.319,120.184
1.572000,468823,1000.00,12,0,1,635.731,-9.983,6.488,930.273,-9.587,120.191
1.573000,468824,1000.00,12,0,1,635.707,-8.867,6.568,930.609,-8.062,120.196
1.574000,468825,1000.00,12,0,1,635.827,-7.615,6.623,931.810,-6.253,72.787
1.575000,468826,1000.00,12,0,1,633.137,-8.073,6.634,931.450,-4.270,68.683
1.576000,468827,1000.00,12,0,1,630.399,-8.451,6.659,931.378,-2.787,40.752
1.577000,468828,1000.00,12,0,1,626.531,-8.901,6.707,932.026,0.366,40.219
1.578000,468829,1000.00,12,0,1,623.192,-8.693,6.718,929.792,1.004,25.517
1.579000,468830,1000.00,12,0,1,623.721,-5.229,6.719,929.744,2.497,25.156
1.580000,468831,1000.00,12,0,1,627.012,1.033,6.713,930.537,5.746,20.196
1.581000,468832,1000.00,12,0,1,631.383,6.661,6.755,931.041,7.116,18.207
1.582000,468833,1000.00,12,0,1,634.026,10.264,6.902,930.297,7.395,17.348
1.583000,468834,1000.00,12,0,1,628.717,5.905,6.933,929.336,6.083,14.335
1.584000,468835,1000.00,12,0,1,627.420,2.939,6.924,929.168,5.334,14.290
1.585000,468836,1000.00,12,0,1,642.529,14.549,7.217,929.432,4.287,11.784
1.586000,468837,1000.00,12,0,1,653.050,23.521,7.945,930.993,3.784,11.795
1.587000,468838,1000.00,12,0,1,648.054,14.832,8.213,931.858,2.681,9.872
1.588000,468839,1000.00,12,0,1,643.202,5.329,8.122,930.873,-0.571,9.873
1.589000,468840,1000.00,12,0,1,644.282,3.218,7.879,930.513,-3.153,8.867
1.590000,468841,1000.00,12,0,1,643.129,0.455,7.787,932.074,-3.551,8.852
1.591000,468842,1000.00,12,0,1,641.136,-3.482,7.799,932.146,-4.341,8.388
1.592000,468843,1000.00,12,0,1,647.789,0.504,7.769,932.218,-5.361,8.400
1.593000,468844,1000.00,12,0,1,652.930,5.429,7.751,931.474,-5.648,8.335
1.594000,468845,1000.00,12,0,1,647.261,-0.336,7.725,929.936,-6.466,8.382
1.595000,468846,1000.00,12,0,1,643.850,-4.797,7.755,931.930,-3.660,8.383
1.596000,468847,1000.00,12,0,1,649.375,0.640,7.753,930.297,-2.306,8.343
1.597000,468848,1000.00,12,0,1,649.927,3.083,7.691,931.137,-0.836,8.192
1.598000,468849,1000.00,12,0,1,643.322,-2.499,7.648,932.122,3.137,8.037
1.599000,468850,1000.00,12,0,1,641.880,-3.598,7.653,932.146,4.288,7.731
1.600000,468851,1000.00,12,0,1,642.985,-0.613,7.653,931.498,5.446,7.362
1.601000,468852,1000.00,12,0,1,639.094,-2.685,7.661,930.873,5.552,6.861
1.602000,468853,1000.00,12,0,1,635.563,-5.452,7.698,932.098,6.883,6.504
1.603000,468854,1000.00,12,0,1,640.727,-0.750,7.681,932.026,6.972,5.932
1.604000,468855,1000.00,12,0,1,644.499,3.783,7.422,932.074,5.560,5.508
1.605000,468856,1000.00,12,0,1,645.820,3.227,7.164,934.260,6.095,5.183
1.606000,468857,1000.00,12,0,1,645.459,1.761,7.161,932.675,3.187,4.928
1.607000,468858,1000.00,12,0,1,639.286,-4.988,7.193,931.233,-0.864,4.793
1.608000,468859,1000.00,12,0,1,639.478,-7.353,7.267,932.098,-1.913,4.750
1.609000,468860,1000.00,12,0,1,645.508,-1.943,7.246,930.633,-4.561,4.793
1.610000,468861,1000.00,12,0,1,652.474,2.795,7.203,930.537,-6.569,4.882
1.611000,468862,1000.00,12,0,1,654.299,3.703,7.212,932.218,-5.535,4.945
1.612000,468863,1000.00,12,0,1,657.998,4.018,7.230,932.458,-5.625,5.006
1.613000,468864,1000.00,12,0,1,657.710,3.725,7.003,929.624,-7.682,5.122
1.614000,468865,1000.00,12,0,1,655.068,-0.519,6.731,930.056,-7.126,5.210
1.615000,468866,1000.00,12,0,1,656.941,0.768,6.617,930.345,-4.526,5.250
1.616000,468867,1000.00,12,0,1,652.425,-1.528,6.608,930.176,-3.309,5.269
1.617000,468868,1000.00,12,0,1,642.697,-9.791,6.737,932.266,0.492,5.256
1.618000,468869,1000.00,12,0,1,641.040,-9.703,6.810,931.113,1.935,5.224
1.619000,468870,1000.00,12,0,1,637.677,-8.564,6.914,930.273,2.098,5.160
1.620000,468871,1000.00,12,0,1,635.035,-9.093,7.006,930.897,4.504,5.073
1.621000,468872,1000.00,12,0,1,634.074,-6.653,7.015,932.122,6.254,4.978
1.622000,468873,1000.00,12,0,1,633.906,-4.881,6.906,930.152,5.488,4.853
1.623000,468874,1000.00,12,0,1,637.292,-0.618,6.792,932.026,5.793,4.788
1.624000,468875,1000.00,12,0,1,636.404,0.221,6.706,931.305,5.775,4.775
1.625000,468876,1000.00,12,0,1,630.735,-5.210,6.649,930.201,2.498,4.750
1.626000,468877,1000.00,12,0,1,634.458,-3.045,6.555,930.753,1.968,4.742
1.627000,468878,1000.00,12,0,1,642.169,4.237,6.461,932.795,1.774,4.748
1.628000,468879,1000.00,12,0,1,644.859,5.440,6.389,931.786,-0.385,4.747
1.629000,468880,1000.00,12,0,1,649.663,6.760,6.418,931.594,-2.944,4.752
1.630000,468881,1000.00,12,0,1,658.551,12.351,6.650,932.963,-2.900,4.700
1.631000,468882,1000.00,12,0,1,659.295,11.175,6.770,932.194,-4.289,4.631
1.632000,468883,1000.00,12,0,1,661.697,8.898,6.731,930.225,-6.784,4.612
1.633000,468884,1000.00,12,0,1,660.953,7.571,6.764,933.708,-4.002,4.566
1.634000,468885,1000.00,12,0,1,655.644,0.728,6.752,932.410,-3.283,4.527
1.635000,468886,1000.00,12,0,1,648.991,-4.943,6.469,931.474,-4.370,4.529
1.636000,468887,1000.00,12,0,1,647.525,-5.883,5.611,930.993,-2.538,4.511
1.637000,468888,1000.00,12,0,1,645.868,-4.462,5.242,930.633,-1.576,4.501
1.638000,468889,1000.00,12,0,1,640.079,-7.285,5.289,931.786,1.283,4.504
1.639000,468890,1000.00,12,0,1,635.539,-9.109,5.424,930.585,2.271,4.493
1.640000,468891,1000.00,12,0,1,633.978,-7.368,5.523,930.273,2.623,4.480
1.641000,468892,1000.00,12,0,1,630.879,-7.173,5.594,931.402,5.017,4.495
1.642000,468893,1000.00,12,0,1,628.044,-7.522,5.694,932.218,5.884,4.508
1.643000,468894,1000.00,12,0,1,623.697,-8.975,5.783,933.059,6.473,4.530
1.644000,468895,1000.00,12,0,1,626.339,-6.136,5.847,932.819,5.396,4.502
1.645000,468896,1000.00,12,0,1,626.363,-3.495,5.829,934.092,4.877,4.525
1.646000,468897,1000.00,12,0,1,626.195,-4.603,5.864,932.699,2.623,4.528
1.647000,468898,1000.00,12,0,1,626.843,-3.426,5.868,931.594,-0.778,4.528
1.648000,468899,1000.00,12,0,1,629.438,-2.086,5.865,931.810,-1.823,4.514
1.649000,468900,1000.00,12,0,1,631.552,-0.338,5.843,930.681,-4.097,4.510
1.650000,468901,1000.00,12,0,1,634.146,0.870,5.844,931.305,-4.922,4.498
1.651000,468902,1000.00,12,0,1,638.205,3.645,5.854,932.338,-4.250,4.469
1.652000,468903,1000.00,12,0,1,650.960,12.961,6.086,933.323,-3.960,4.398
1.653000,468904,1000.00,12,0,1,651.681,14.572,6.424,932.579,-4.151,4.326
