# FW/GUI: v9.6.1-multi17-dual (PyQt5)
# StartTime: 2026-04-03 16:16:50
# Slot: 13
# DeviceID: 13
# Label: EMG13
# IP: 192.168.137.206
# TCP: 3333
# DeviceFW: EMG_FW_v9.6_MULTI17_DUALCH_RUNTIMECFG_CHEN
# IMU1_RefTime = format(imu_ms) = relative since power-on Time (IMU acquisition time)
IMU1_RefTime,ax_g,ay_g,az_g,gx_dps,gy_dps,gz_dps,mx_uT,my_uT,mz_uT,temp_C,qw,qx,qy,qz
'00:08:44.134,0.058105,0.029297,1.002930,0.365854,1.280488,-0.609756,-4.562500,17.868750,19.918751,28.638,0.57539166,-0.00960161,-0.02896903,-0.81730842
'00:08:44.144,0.059570,0.028809,1.003906,0.365854,1.341463,-0.548781,-4.562500,17.868750,19.918751,28.668,0.57539728,-0.00960859,-0.02897024,-0.81730433
'00:08:44.154,0.058594,0.029785,1.001953,0.365854,1.341463,-0.609756,-4.550000,17.856251,20.006250,28.638,0.57539856,-0.00960698,-0.02897447,-0.81730330
'00:08:44.164,0.059082,0.030273,1.001953,0.365854,1.341463,-0.609756,-4.550000,17.856251,20.006250,28.638,0.57539971,-0.00960615,-0.02898348,-0.81730218
'00:08:44.174,0.058594,0.030762,1.001953,0.304878,1.341463,-0.609756,-4.550000,17.943750,19.962500,28.608,0.57540285,-0.00960462,-0.02899097,-0.81729972
'00:08:44.184,0.059082,0.029297,1.001953,0.365854,1.341463,-0.609756,-4.550000,17.943750,19.962500,28.638,0.57540632,-0.00960887,-0.02899609,-0.81729705
'00:08:44.194,0.059082,0.029785,1.003418,0.426829,1.341463,-0.548781,-4.750000,18.250000,20.212500,28.638,0.57540609,-0.00960002,-0.02899841,-0.81729723
'00:08:44.204,0.058594,0.030273,1.003418,0.365854,1.341463,-0.609756,-4.750000,18.250000,20.212500,28.608,0.57540140,-0.00958948,-0.02899727,-0.81730070
'00:08:44.214,0.059082,0.029297,1.002930,0.304878,1.341463,-0.609756,-4.775000,18.212500,20.243750,28.684,0.57539424,-0.00958706,-0.02898551,-0.81730619
'00:08:44.224,0.060059,0.028320,1.004395,0.304878,1.341463,-0.609756,-4.775000,18.212500,20.243750,28.623,0.57538731,-0.00959385,-0.02897168,-0.81731147
'00:08:44.234,0.059082,0.029297,1.004395,0.426829,1.341463,-0.548781,-4.593750,17.875000,19.956251,28.684,0.57539074,-0.00959121,-0.02897545,-0.81730896
'00:08:44.244,0.059570,0.029297,1.002930,0.426829,1.341463,-0.609756,-4.593750,17.875000,19.956251,28.668,0.57538977,-0.00959153,-0.02898178,-0.81730941
'00:08:44.254,0.058594,0.028809,1.002441,0.365854,1.341463,-0.548781,-4.537500,17.906250,19.962500,28.638,0.57539784,-0.00959564,-0.02898217,-0.81730367
'00:08:44.264,0.058594,0.030273,1.002930,0.365854,1.280488,-0.609756,-4.537500,17.906250,19.962500,28.638,0.57540105,-0.00959768,-0.02899399,-0.81730096
'00:08:44.274,0.058594,0.030273,1.002930,0.365854,1.280488,-0.609756,-4.543750,17.881250,19.950001,28.638,0.57540329,-0.00959889,-0.02900456,-0.81729900
'00:08:44.285,0.059082,0.029785,1.001953,0.365854,1.341463,-0.548781,-4.543750,17.881250,19.950001,28.653,0.57541074,-0.00960109,-0.02901203,-0.81729346
'00:08:44.294,0.060059,0.029785,1.002441,0.365854,1.341463,-0.609756,-4.968750,18.531250,20.362501,28.684,0.57539848,-0.00959284,-0.02900451,-0.81730246
'00:08:44.304,0.059082,0.028809,1.003906,0.365854,1.341463,-0.609756,-4.968750,18.531250,20.362501,28.638,0.57538516,-0.00958204,-0.02898641,-0.81731260
'00:08:44.314,0.059082,0.029785,1.003906,0.365854,1.341463,-0.548781,-4.900000,18.431250,20.281250,28.699,0.57537872,-0.00957025,-0.02897714,-0.81731760
'00:08:44.325,0.060059,0.029785,1.002930,0.365854,1.341463,-0.609756,-4.900000,18.431250,20.281250,28.653,0.57536689,-0.00956352,-0.02897188,-0.81732620
'00:08:44.334,0.060059,0.029785,1.002930,0.365854,1.341463,-0.609756,-4.581250,17.937500,19.925001,28.653,0.57536814,-0.00956908,-0.02898042,-0.81732495
'00:08:44.344,0.060059,0.029297,1.002930,0.365854,1.341463,-0.609756,-4.581250,17.937500,19.925001,28.608,0.57536961,-0.00957715,-0.02898692,-0.81732359
'00:08:44.354,0.059082,0.029785,1.000488,0.365854,1.341463,-0.609756,-4.493750,17.893751,19.931250,28.623,0.57537608,-0.00958311,-0.02899917,-0.81731853
'00:08:44.364,0.058594,0.029297,1.002441,0.304878,1.341463,-0.609756,-4.493750,17.893751,19.931250,28.638,0.57538260,-0.00959081,-0.02900117,-0.81731378
'00:08:44.374,0.059082,0.029297,1.002441,0.304878,1.341463,-0.548781,-4.543750,17.931250,19.981251,28.668,0.57539052,-0.00959872,-0.02900178,-0.81730809
'00:08:44.384,0.058105,0.029297,1.003418,0.365854,1.341463,-0.548781,-4.543750,17.931250,19.981251,28.653,0.57539851,-0.00959763,-0.02900232,-0.81730246
'00:08:44.394,0.058594,0.029785,1.003418,0.426829,1.341463,-0.548781,-4.706250,18.156250,20.056250,28.653,0.57539986,-0.00958728,-0.02900426,-0.81730156
'00:08:44.404,0.059570,0.028809,1.003906,0.304878,1.280488,-0.609756,-4.800000,18.175001,20.125000,28.653,0.57539061,-0.00959143,-0.02899180,-0.81730847
'00:08:44.414,0.059082,0.029297,1.003906,0.426829,1.341463,-0.609756,-4.800000,18.175001,20.125000,28.623,0.57538156,-0.00958040,-0.02898604,-0.81731517
'00:08:44.424,0.058105,0.028809,1.003418,0.365854,1.341463,-0.609756,-4.687500,18.075001,20.050001,28.668,0.57537837,-0.00957457,-0.02897604,-0.81731784
'00:08:44.434,0.058594,0.029297,1.002930,0.365854,1.341463,-0.609756,-4.687500,18.075001,20.050001,28.623,0.57537509,-0.00956974,-0.02897121,-0.81732038
'00:08:44.444,0.058594,0.029785,1.002441,0.365854,1.341463,-0.548781,-4.575000,17.912500,19.943750,28.668,0.57538064,-0.00956787,-0.02897479,-0.81731636
'00:08:44.454,0.058594,0.029785,1.002930,0.365854,1.402439,-0.548781,-4.575000,17.912500,19.943750,28.684,0.57538634,-0.00956155,-0.02897504,-0.81731242
'00:08:44.464,0.058105,0.029297,1.002930,0.365854,1.341463,-0.548781,-4.543750,17.906250,19.906250,28.638,0.57539421,-0.00956069,-0.02897594,-0.81730686
'00:08:44.474,0.058594,0.028809,1.001953,0.365854,1.341463,-0.548781,-4.543750,17.906250,19.906250,28.653,0.57540212,-0.00956482,-0.02897632,-0.81730122
'00:08:44.484,0.058105,0.029297,1.002441,0.365854,1.341463,-0.548781,-4.531250,17.893751,19.918751,28.668,0.57541047,-0.00956463,-0.02897800,-0.81729529
'00:08:44.494,0.058105,0.029297,1.002930,0.365854,1.341463,-0.609756,-4.531250,17.893751,19.918751,28.684,0.57541444,-0.00956415,-0.02897948,-0.81729244
'00:08:44.504,0.059570,0.029297,1.002930,0.365854,1.341463,-0.609756,-4.800000,18.293751,20.268751,28.593,0.57540737,-0.00956141,-0.02897422,-0.81729764
'00:08:44.514,0.059082,0.028809,1.003418,0.365854,1.341463,-0.609756,-4.800000,18.293751,20.268751,28.638,0.57540046,-0.00955788,-0.02896414,-0.81730291
'00:08:44.524,0.060547,0.029785,1.002441,0.365854,1.341463,-0.609756,-4.756250,18.193750,20.118750,28.653,0.57539467,-0.00955986,-0.02896752,-0.81730684
'00:08:44.534,0.059570,0.028809,1.003418,0.365854,1.280488,-0.609756,-4.756250,18.193750,20.118750,28.638,0.57538898,-0.00956444,-0.02896405,-0.81731091
'00:08:44.544,0.057617,0.029297,1.002441,0.304878,1.341463,-0.548781,-4.575000,17.931250,19.918751,28.623,0.57539514,-0.00956231,-0.02895707,-0.81730685
'00:08:44.554,0.060547,0.028809,1.003418,0.365854,1.341463,-0.548781,-4.575000,17.931250,19.918751,28.699,0.57540133,-0.00957555,-0.02896313,-0.81730212
'00:08:44.564,0.058594,0.028809,1.002930,0.365854,1.341463,-0.609756,-4.543750,17.931250,19.887501,28.699,0.57540552,-0.00957936,-0.02896396,-0.81729910
'00:08:44.574,0.059082,0.028809,1.002441,0.365854,1.341463,-0.609756,-4.543750,17.931250,19.887501,28.684,0.57540966,-0.00958597,-0.02896693,-0.81729600
'00:08:44.584,0.058594,0.029785,1.003418,0.365854,1.341463,-0.609756,-4.568750,17.950001,19.943750,28.638,0.57541203,-0.00958427,-0.02897144,-0.81729419
'00:08:44.594,0.058105,0.029297,1.002930,0.365854,1.280488,-0.548781,-4.568750,17.950001,19.943750,28.638,0.57541869,-0.00958642,-0.02897426,-0.81728937
'00:08:44.604,0.059082,0.029785,1.001953,0.365854,1.341463,-0.609756,-4.762500,18.181250,20.056250,28.638,0.57541237,-0.00957910,-0.02897114,-0.81729402
'00:08:44.614,0.059082,0.028809,1.002930,0.304878,1.341463,-0.670732,-4.762500,18.181250,20.056250,28.668,0.57540191,-0.00957855,-0.02895784,-0.81730186
'00:08:44.624,0.057617,0.029297,1.002930,0.365854,1.341463,-0.609756,-4.906250,18.368750,20.225000,28.623,0.57538970,-0.00955935,-0.02893913,-0.81731135
'00:08:44.634,0.059570,0.028809,1.003906,0.365854,1.341463,-0.548781,-4.906250,18.368750,20.225000,28.668,0.57538201,-0.00955326,-0.02892532,-0.81731732
'00:08:44.646,0.059082,0.029297,1.004395,0.365854,1.341463,-0.548781,-4.550000,17.925001,19.956251,28.638,0.57539128,-0.00955879,-0.02893125,-0.81731052
'00:08:44.654,0.059570,0.029297,1.002930,0.304878,1.341463,-0.548781,-4.556250,17.968750,19.962500,28.684,0.57539777,-0.00956744,-0.02893405,-0.81730575
'00:08:44.664,0.059082,0.029297,1.001953,0.365854,1.341463,-0.609756,-4.556250,17.968750,19.962500,28.699,0.57540155,-0.00957232,-0.02894030,-0.81730281
'00:08:44.674,0.058105,0.029297,1.002441,0.304878,1.280488,-0.609756,-4.512500,17.875000,19.968750,28.668,0.57540609,-0.00958041,-0.02894228,-0.81729945
'00:08:44.684,0.057617,0.029785,1.001953,0.304878,1.341463,-0.609756,-4.512500,17.875000,19.968750,28.714,0.57541066,-0.00957927,-0.02894221,-0.81729625
'00:08:44.694,0.057129,0.029297,1.003418,0.365854,1.341463,-0.548781,-4.793750,18.243750,20.118750,28.684,0.57540798,-0.00956211,-0.02892734,-0.81729886
'00:08:44.704,0.059082,0.028809,1.003906,0.304878,1.341463,-0.609756,-4.793750,18.243750,20.118750,28.684,0.57540102,-0.00956095,-0.02891327,-0.81730427
'00:08:44.714,0.058594,0.029785,1.004883,0.365854,1.341463,-0.548781,-4.831250,18.325001,20.093750,28.729,0.57539771,-0.00954888,-0.02890610,-0.81730700
'00:08:44.724,0.058105,0.030762,1.002930,0.365854,1.402439,-0.609756,-4.831250,18.325001,20.093750,28.699,0.57539003,-0.00952630,-0.02890046,-0.81731287
'00:08:44.734,0.060059,0.030273,1.002441,0.426829,1.341463,-0.548781,-4.625000,17.987501,20.031250,28.699,0.57539349,-0.00952650,-0.02891591,-0.81730989
'00:08:44.744,0.060547,0.029297,1.002930,0.365854,1.341463,-0.548781,-4.625000,17.987501,20.031250,28.638,0.57539704,-0.00953638,-0.02892283,-0.81730702
'00:08:44.754,0.059570,0.030273,1.002930,0.426829,1.402439,-0.548781,-4.600000,17.881250,20.006250,28.638,0.57540004,-0.00952925,-0.02893223,-0.81730466
'00:08:44.766,0.059570,0.029297,1.002930,0.365854,1.341463,-0.548781,-4.600000,17.881250,20.006250,28.653,0.57540364,-0.00953452,-0.02893495,-0.81730197
'00:08:44.774,0.058105,0.030273,1.003906,0.426829,1.341463,-0.609756,-4.556250,17.937500,19.943750,28.684,0.57540612,-0.00952801,-0.02894366,-0.81729999
'00:08:44.784,0.058105,0.029297,1.004395,0.365854,1.341463,-0.609756,-4.556250,17.937500,19.943750,28.684,0.57540938,-0.00952693,-0.02894417,-0.81729769
'00:08:44.794,0.056641,0.029297,1.002930,0.304878,1.280488,-0.609756,-4.637500,17.968750,19.931250,28.653,0.57540757,-0.00952053,-0.02893244,-0.81729946
'00:08:44.804,0.058594,0.030273,1.003418,0.365854,1.280488,-0.609756,-4.637500,17.968750,19.931250,28.638,0.57540557,-0.00951818,-0.02893860,-0.81730068
'00:08:44.814,0.058105,0.029297,1.004395,0.365854,1.341463,-0.548781,-4.856250,18.231251,20.162500,28.638,0.57539836,-0.00950346,-0.02892230,-0.81730650
'00:08:44.824,0.058105,0.029297,1.003418,0.365854,1.402439,-0.609756,-4.856250,18.231251,20.162500,28.699,0.57538704,-0.00948472,-0.02890369,-0.81731534
'00:08:44.834,0.059082,0.028320,1.001465,0.365854,1.280488,-0.609756,-4.950000,18.481251,20.312500,28.623,0.57537440,-0.00948289,-0.02888911,-0.81732478
'00:08:44.845,0.060547,0.029297,1.002930,0.365854,1.341463,-0.609756,-4.950000,18.481251,20.312500,28.653,0.57536049,-0.00948048,-0.02888179,-0.81733486
'00:08:44.854,0.061035,0.029297,1.004395,0.365854,1.341463,-0.609756,-4.575000,17.900000,19.956251,28.638,0.57536164,-0.00949387,-0.02889190,-0.81733353
'00:08:44.864,0.058594,0.029785,1.002441,0.365854,1.341463,-0.609756,-4.575000,17.900000,19.956251,28.684,0.57536285,-0.00949308,-0.02889675,-0.81733252
'00:08:44.874,0.060059,0.029785,1.002441,0.365854,1.341463,-0.548781,-4.531250,17.831251,19.918751,28.638,0.57537001,-0.00950259,-0.02890939,-0.81732693
'00:08:44.885,0.060059,0.029297,1.003906,0.304878,1.341463,-0.548781,-4.531250,17.831251,19.918751,28.638,0.57537788,-0.00951806,-0.02891443,-0.81732103
'00:08:44.894,0.058105,0.028320,1.003418,0.365854,1.402439,-0.609756,-4.543750,17.893751,19.981251,28.668,0.57538104,-0.00951755,-0.02890778,-0.81731904
'00:08:44.904,0.058105,0.028320,1.003906,0.365854,1.341463,-0.609756,-4.543750,17.893751,19.981251,28.623,0.57538442,-0.00952123,-0.02890336,-0.81731678
'00:08:44.914,0.057129,0.029297,1.001953,0.365854,1.341463,-0.609756,-4.893750,18.368750,20.331251,28.699,0.57537288,-0.00950145,-0.02888471,-0.81732579
'00:08:44.926,0.057617,0.029785,1.000000,0.365854,1.341463,-0.609756,-4.825000,18.275000,20.231251,28.638,0.57536249,-0.00948267,-0.02887336,-0.81733372
'00:08:44.934,0.059082,0.029785,1.001953,0.365854,1.341463,-0.609756,-4.825000,18.275000,20.231251,28.638,0.57535561,-0.00947668,-0.02887005,-0.81733875
'00:08:44.944,0.059082,0.029785,1.004395,0.426829,1.341463,-0.609756,-4.575000,17.925001,19.956251,28.668,0.57535753,-0.00947586,-0.02888141,-0.81733701
'00:08:44.954,0.058594,0.029785,1.004395,0.365854,1.341463,-0.609756,-4.575000,17.925001,19.956251,28.638,0.57535939,-0.00947532,-0.02888625,-0.81733553
'00:08:44.965,0.060059,0.029785,1.003906,0.365854,1.341463,-0.609756,-4.556250,17.931250,19.981251,28.653,0.57536282,-0.00948545,-0.02889994,-0.81733252
'00:08:44.974,0.060547,0.029297,1.001953,0.365854,1.341463,-0.548781,-4.556250,17.931250,19.981251,28.638,0.57536954,-0.00949839,-0.02891080,-0.81732725
'00:08:44.984,0.058105,0.028809,1.001953,0.365854,1.341463,-0.609756,-4.568750,17.918751,19.918751,28.653,0.57537193,-0.00949937,-0.02890884,-0.81732563
'00:08:44.994,0.057617,0.030762,1.001953,0.365854,1.341463,-0.609756,-4.568750,17.918751,19.918751,28.638,0.57537391,-0.00948949,-0.02891631,-0.81732409
'00:08:45.006,0.059082,0.030762,1.002930,0.365854,1.341463,-0.609756,-4.712500,18.087500,20.081251,28.668,0.57536804,-0.00948002,-0.02892232,-0.81732811
'00:08:45.014,0.059082,0.029785,1.002441,0.304878,1.341463,-0.609756,-4.712500,18.087500,20.081251,28.684,0.57536428,-0.00947954,-0.02891846,-0.81733090
'00:08:45.025,0.059082,0.029785,1.002441,0.304878,1.341463,-0.609756,-4.806250,18.287500,20.200001,28.684,0.57535650,-0.00947585,-0.02891006,-0.81733672
'00:08:45.034,0.059570,0.028809,1.002930,0.365854,1.402439,-0.548781,-4.806250,18.287500,20.200001,28.744,0.57535446,-0.00947231,-0.02890100,-0.81733852
'00:08:45.046,0.060059,0.029297,1.002930,0.365854,1.341463,-0.609756,-4.568750,17.912500,19.968750,28.668,0.57535682,-0.00948477,-0.02891105,-0.81733636
'00:08:45.054,0.060059,0.029297,1.002930,0.365854,1.341463,-0.609756,-4.568750,17.912500,19.968750,28.668,0.57535836,-0.00949291,-0.02891760,-0.81733495
'00:08:45.064,0.059082,0.028809,1.002930,0.426829,1.402439,-0.609756,-4.593750,17.937500,19.987501,28.699,0.57535934,-0.00949078,-0.02891869,-0.81733424
'00:08:45.074,0.059570,0.029297,1.001953,0.304878,1.341463,-0.548781,-4.593750,17.937500,19.987501,28.668,0.57536428,-0.00950027,-0.02891930,-0.81733063
'00:08:45.085,0.059570,0.029297,1.002441,0.365854,1.341463,-0.548781,-4.600000,17.943750,19.981251,28.653,0.57536944,-0.00950668,-0.02892411,-0.81732676
'00:08:45.094,0.059570,0.029785,1.001953,0.365854,1.341463,-0.548781,-4.600000,17.943750,19.981251,28.623,0.57537352,-0.00951010,-0.02893069,-0.81732361
'00:08:45.104,0.058594,0.029297,1.003906,0.365854,1.341463,-0.609756,-4.575000,17.925001,19.943750,28.699,0.57537533,-0.00951096,-0.02893197,-0.81732228
'00:08:45.114,0.057129,0.029785,1.002930,0.365854,1.341463,-0.609756,-4.575000,17.925001,19.943750,28.608,0.57537707,-0.00950163,-0.02893052,-0.81732121
'00:08:45.125,0.058105,0.029785,1.003418,0.426829,1.341463,-0.609756,-4.881250,18.425001,20.243750,28.699,0.57536697,-0.00948178,-0.02892382,-0.81732879
'00:08:45.134,0.057617,0.029785,1.002930,0.304878,1.341463,-0.609756,-4.881250,18.425001,20.243750,28.608,0.57535869,-0.00946900,-0.02890911,-0.81733529
'00:08:45.144,0.060059,0.028809,1.004395,0.365854,1.402439,-0.548781,-4.793750,18.181250,20.143751,28.714,0.57535514,-0.00946679,-0.02889907,-0.81733817
'00:08:45.154,0.059570,0.028320,1.003906,0.365854,1.280488,-0.609756,-4.793750,18.181250,20.143751,28.638,0.57534708,-0.00947253,-0.02889084,-0.81734407
'00:08:45.166,0.059570,0.028809,1.003418,0.365854,1.402439,-0.609756,-4.500000,17.881250,19.875000,28.638,0.57535525,-0.00948328,-0.02889742,-0.81733796
'00:08:45.174,0.060059,0.029785,1.003418,0.365854,1.341463,-0.548781,-4.500000,17.881250,19.875000,28.684,0.57536381,-0.00949288,-0.02891023,-0.81733137
'00:08:45.184,0.060547,0.029297,1.002930,0.365854,1.341463,-0.609756,-4.512500,17.850000,19.912500,28.653,0.57536844,-0.00950832,-0.02892356,-0.81732746
'00:08:45.194,0.059082,0.030762,1.002930,0.365854,1.341463,-0.609756,-4.568750,17.825001,19.912500,28.623,0.57536825,-0.00950517,-0.02893416,-0.81732726
'00:08:45.205,0.060059,0.029785,1.002930,0.304878,1.402439,-0.609756,-4.568750,17.825001,19.912500,28.638,0.57536832,-0.00951085,-0.02893556,-0.81732709
'00:08:45.214,0.057617,0.029785,1.002441,0.365854,1.341463,-0.609756,-4.781250,18.218750,20.250000,28.638,0.57536191,-0.00949781,-0.02892714,-0.81733205
'00:08:45.224,0.057129,0.029785,1.004395,0.365854,1.341463,-0.548781,-4.781250,18.218750,20.250000,28.623,0.57535923,-0.00948056,-0.02891518,-0.81733456
'00:08:45.234,0.058105,0.030762,1.003906,0.365854,1.341463,-0.548781,-4.962500,18.443750,20.375000,28.699,0.57534880,-0.00945791,-0.02890440,-0.81734255
'00:08:45.246,0.059082,0.028809,1.003418,0.365854,1.341463,-0.609756,-4.962500,18.443750,20.375000,28.668,0.57533166,-0.00944702,-0.02888342,-0.81735548
'00:08:45.254,0.061035,0.029297,1.003418,0.365854,1.341463,-0.609756,-4.550000,17.931250,19.962500,28.684,0.57533473,-0.00946121,-0.02889500,-0.81735275
'00:08:45.264,0.060059,0.029785,1.003906,0.365854,1.341463,-0.609756,-4.550000,17.931250,19.962500,28.699,0.57533845,-0.00947105,-0.02890795,-0.81734956
'00:08:45.274,0.060547,0.029785,1.003418,0.365854,1.280488,-0.548781,-4.568750,17.918751,19.931250,28.608,0.57534482,-0.00948660,-0.02892411,-0.81734432
'00:08:45.286,0.059082,0.029785,1.002441,0.365854,1.341463,-0.609756,-4.568750,17.918751,19.931250,28.699,0.57534741,-0.00948981,-0.02893290,-0.81734215
'00:08:45.294,0.058594,0.030762,1.003418,0.365854,1.341463,-0.548781,-4.550000,17.912500,19.912500,28.684,0.57535345,-0.00948726,-0.02894237,-0.81733759
'00:08:45.304,0.059570,0.028320,1.002441,0.365854,1.341463,-0.609756,-4.550000,17.912500,19.912500,28.653,0.57535709,-0.00949973,-0.02894418,-0.81733482
'00:08:45.314,0.058105,0.029297,1.004395,0.304878,1.341463,-0.609756,-4.543750,17.943750,19.906250,28.638,0.57536168,-0.00950308,-0.02894180,-0.81733163
'00:08:45.326,0.058594,0.029297,1.003906,0.365854,1.341463,-0.548781,-4.543750,17.943750,19.906250,28.668,0.57537241,-0.00950700,-0.02894671,-0.81732386
'00:08:45.335,0.059570,0.028320,1.003418,0.365854,1.341463,-0.609756,-4.856250,18.318750,20.206251,28.638,0.57536385,-0.00950603,-0.02893438,-0.81733034
'00:08:45.344,0.058594,0.029785,1.001953,0.365854,1.341463,-0.609756,-4.856250,18.318750,20.206251,28.638,0.57535506,-0.00949521,-0.02892681,-0.81733692
'00:08:45.354,0.058105,0.030273,1.001953,0.365854,1.341463,-0.548781,-4.568750,17.918751,19.906250,28.668,0.57536155,-0.00949034,-0.02893315,-0.81733218
'00:08:45.364,0.058105,0.029785,1.001465,0.365854,1.341463,-0.548781,-4.568750,17.918751,19.906250,28.668,0.57536812,-0.00948763,-0.02893673,-0.81732746
'00:08:45.374,0.059570,0.029297,1.000977,0.365854,1.402439,-0.609756,-4.575000,17.925001,19.968750,28.638,0.57536995,-0.00949074,-0.02893999,-0.81732602
'00:08:45.384,0.058594,0.029785,1.002441,0.365854,1.402439,-0.609756,-4.575000,17.925001,19.968750,28.699,0.57537172,-0.00948591,-0.02894148,-0.81732478
'00:08:45.394,0.059082,0.028320,1.002441,0.365854,1.341463,-0.609756,-4.506250,17.906250,19.962500,28.684,0.57537805,-0.00949849,-0.02894446,-0.81732007
'00:08:45.406,0.058594,0.030273,1.003418,0.365854,1.341463,-0.609756,-4.506250,17.906250,19.962500,28.653,0.57538512,-0.00950001,-0.02895882,-0.81731457
'00:08:45.414,0.059082,0.028809,1.002930,0.365854,1.341463,-0.548781,-4.531250,17.868750,20.006250,28.668,0.57539128,-0.00950668,-0.02896062,-0.81731009
'00:08:45.424,0.059082,0.029785,1.003418,0.365854,1.341463,-0.548781,-4.531250,17.868750,20.006250,28.684,0.57539872,-0.00951073,-0.02896835,-0.81730453
'00:08:45.434,0.058594,0.029785,1.002930,0.365854,1.341463,-0.548781,-4.568750,18.018751,20.037500,28.684,0.57540675,-0.00951166,-0.02897450,-0.81729865
'00:08:45.446,0.058594,0.029785,1.002441,0.304878,1.341463,-0.548781,-4.687500,17.993750,20.068750,28.684,0.57540560,-0.00950728,-0.02896476,-0.81729986
'00:08:45.454,0.058594,0.029785,1.002441,0.365854,1.341463,-0.609756,-4.687500,17.993750,20.068750,28.638,0.57540141,-0.00950185,-0.02896192,-0.81730296
'00:08:45.464,0.058594,0.029785,1.003418,0.365854,1.402439,-0.609756,-4.512500,17.925001,19.956251,28.699,0.57540746,-0.00950046,-0.02896752,-0.81729853
'00:08:45.474,0.060059,0.030273,1.002930,0.365854,1.341463,-0.548781,-4.512500,17.925001,19.956251,28.668,0.57541748,-0.00950999,-0.02898500,-0.81729074
'00:08:45.484,0.058594,0.029297,1.002930,0.365854,1.341463,-0.548781,-4.512500,17.950001,19.943750,28.608,0.57542831,-0.00951530,-0.02899108,-0.81728283
'00:08:45.494,0.058594,0.029297,1.003418,0.365854,1.341463,-0.548781,-4.512500,17.950001,19.943750,28.699,0.57543910,-0.00952037,-0.02899680,-0.81727498
'00:08:45.504,0.058594,0.028320,1.002930,0.426829,1.402439,-0.609756,-4.600000,17.962500,20.000000,28.638,0.57543983,-0.00951662,-0.02899145,-0.81727470
'00:08:45.514,0.058594,0.029297,1.003418,0.365854,1.341463,-0.609756,-4.600000,17.962500,20.000000,28.653,0.57544016,-0.00951622,-0.02899040,-0.81727451
'00:08:45.524,0.058594,0.029297,1.001465,0.365854,1.280488,-0.609756,-4.931250,18.406250,20.331251,28.638,0.57542645,-0.00950714,-0.02897732,-0.81728473
'00:08:45.534,0.059082,0.029297,1.001953,0.365854,1.341463,-0.548781,-4.931250,18.406250,20.331251,28.653,0.57541732,-0.00949670,-0.02896315,-0.81729178
'00:08:45.544,0.059570,0.029785,1.001465,0.365854,1.341463,-0.548781,-4.906250,18.356251,20.237501,28.668,0.57540907,-0.00948793,-0.02895514,-0.81729798
'00:08:45.554,0.058105,0.029297,1.003418,0.365854,1.341463,-0.609756,-4.906250,18.356251,20.237501,28.668,0.57539667,-0.00947257,-0.02893802,-0.81730749
'00:08:45.567,0.058105,0.029785,1.003906,0.304878,1.341463,-0.609756,-4.537500,17.900000,19.968750,28.668,0.57540137,-0.00947484,-0.02893802,-0.81730416
'00:08:45.574,0.059570,0.028809,1.002930,0.365854,1.341463,-0.548781,-4.537500,17.900000,19.968750,28.638,0.57540706,-0.00948281,-0.02894145,-0.81729994
'00:08:45.584,0.058105,0.028809,1.002441,0.426829,1.341463,-0.609756,-4.568750,17.956251,19.993750,28.653,0.57540988,-0.00948140,-0.02894367,-0.81729789
'00:08:45.594,0.058105,0.030273,1.001953,0.365854,1.341463,-0.609756,-4.568750,17.956251,19.993750,28.638,0.57541232,-0.00947711,-0.02895026,-0.81729599
'00:08:45.604,0.058594,0.028809,1.004395,0.365854,1.341463,-0.548781,-4.556250,17.850000,19.987501,28.623,0.57541792,-0.00948072,-0.02894764,-0.81729209
'00:08:45.614,0.058594,0.029785,1.002930,0.365854,1.341463,-0.548781,-4.556250,17.850000,19.987501,28.684,0.57542328,-0.00948053,-0.02895136,-0.81728819
'00:08:45.624,0.060059,0.029297,1.001953,0.304878,1.402439,-0.609756,-4.800000,18.250000,20.275000,28.653,0.57541548,-0.00948022,-0.02894061,-0.81729407
'00:08:45.634,0.057617,0.029297,1.003418,0.426829,1.341463,-0.609756,-4.800000,18.250000,20.275000,28.699,0.57540775,-0.00946413,-0.02893144,-0.81730002
'00:08:45.644,0.059082,0.029785,1.001465,0.365854,1.341463,-0.609756,-4.825000,18.256250,20.175001,28.638,0.57539875,-0.00945642,-0.02892613,-0.81730664
'00:08:45.654,0.059082,0.029785,1.002930,0.365854,1.402439,-0.609756,-4.825000,18.256250,20.175001,28.668,0.57538996,-0.00944421,-0.02891730,-0.81731328
'00:08:45.664,0.059082,0.029297,1.002930,0.365854,1.341463,-0.609756,-4.543750,17.887501,19.968750,28.608,0.57539307,-0.00945064,-0.02892279,-0.81731082
'00:08:45.674,0.059570,0.028809,1.002441,0.426829,1.402439,-0.609756,-4.543750,17.887501,19.968750,28.638,0.57539643,-0.00945445,-0.02892878,-0.81730820
'00:08:45.685,0.059082,0.030273,1.003418,0.426829,1.341463,-0.609756,-4.525000,17.862501,19.912500,28.699,0.57540070,-0.00945417,-0.02894657,-0.81730457
'00:08:45.694,0.058105,0.029297,1.002930,0.365854,1.341463,-0.548781,-4.525000,17.862501,19.912500,28.699,0.57540824,-0.00945550,-0.02894836,-0.81729918
'00:08:45.704,0.060059,0.028809,1.002441,0.365854,1.341463,-0.609756,-4.512500,17.893751,19.950001,28.668,0.57541368,-0.00947137,-0.02895723,-0.81729485
'00:08:45.714,0.058105,0.029297,1.003418,0.304878,1.341463,-0.609756,-4.531250,17.887501,19.956251,28.699,0.57541751,-0.00947537,-0.02895443,-0.81729220
'00:08:45.724,0.058594,0.030273,1.001465,0.243902,1.219512,-0.548781,-4.531250,17.887501,19.956251,28.608,0.57542507,-0.00949036,-0.02896189,-0.81728645
'00:08:45.734,0.058594,0.030273,1.002441,0.365854,1.280488,-0.548781,-4.912500,18.412500,20.350000,28.668,0.57541695,-0.00947903,-0.02895596,-0.81729250
'00:08:45.744,0.058594,0.030273,1.002441,0.365854,1.280488,-0.548781,-4.912500,18.412500,20.350000,28.668,0.57540889,-0.00946790,-0.02895018,-0.81729851
'00:08:45.754,0.058105,0.028809,1.002441,0.243902,1.341463,-0.548781,-4.768750,18.162500,20.137501,28.699,0.57540618,-0.00946669,-0.02892811,-0.81730121
'00:08:45.764,0.059082,0.029297,1.002930,0.365854,1.402439,-0.609756,-4.768750,18.162500,20.137501,28.699,0.57539931,-0.00945833,-0.02891862,-0.81730648
'00:08:45.774,0.059570,0.030273,1.002930,0.365854,1.402439,-0.609756,-4.562500,17.900000,19.943750,28.578,0.57540135,-0.00945780,-0.02892750,-0.81730474
'00:08:45.784,0.060059,0.030273,1.002930,0.365854,1.402439,-0.609756,-4.562500,17.900000,19.943750,28.684,0.57540335,-0.00946002,-0.02893819,-0.81730293
'00:08:45.794,0.060059,0.030273,1.001465,0.365854,1.341463,-0.609756,-4.487500,17.843750,19.993750,28.668,0.57540893,-0.00947112,-0.02895705,-0.81729820
'00:08:45.804,0.059082,0.029297,1.003906,0.365854,1.402439,-0.609756,-4.487500,17.843750,19.993750,28.684,0.57541489,-0.00947559,-0.02896173,-0.81729379
'00:08:45.814,0.059570,0.028809,1.003418,0.426829,1.341463,-0.609756,-4.562500,17.937500,19.987501,28.668,0.57541764,-0.00948249,-0.02896921,-0.81729150
'00:08:45.824,0.059082,0.029297,1.003906,0.426829,1.341463,-0.609756,-4.562500,17.937500,19.987501,28.638,0.57542029,-0.00948437,-0.02897722,-0.81728934
'00:08:45.834,0.058105,0.029297,1.004395,0.365854,1.341463,-0.609756,-4.762500,18.200001,20.137501,28.623,0.57541439,-0.00947504,-0.02896674,-0.81729397
'00:08:45.847,0.056641,0.029785,1.002930,0.426829,1.402439,-0.609756,-4.762500,18.200001,20.137501,28.608,0.57540696,-0.00944062,-0.02895185,-0.81730013
'00:08:45.854,0.057617,0.030762,1.003906,0.426829,1.402439,-0.609756,-4.850000,18.381250,20.281250,28.729,0.57540116,-0.00942170,-0.02894844,-0.81730455
'00:08:45.864,0.057617,0.029297,1.002930,0.365854,1.402439,-0.609756,-4.850000,18.381250,20.281250,28.684,0.57539320,-0.00940416,-0.02893137,-0.81731096
'00:08:45.875,0.058594,0.029297,1.002930,0.365854,1.402439,-0.609756,-4.525000,17.881250,19.918751,28.623,0.57539838,-0.00940513,-0.02893330,-0.81730723
'00:08:45.886,0.058594,0.028809,1.003418,0.426829,1.402439,-0.609756,-4.525000,17.881250,19.918751,28.623,0.57540371,-0.00940479,-0.02893659,-0.81730337
'00:08:45.894,0.061035,0.029297,1.004395,0.365854,1.341463,-0.548781,-4.581250,17.931250,19.993750,28.668,0.57540822,-0.00941768,-0.02894490,-0.81729975
'00:08:45.904,0.059570,0.030273,1.004395,0.365854,1.280488,-0.609756,-4.581250,17.931250,19.993750,28.653,0.57540915,-0.00942544,-0.02895799,-0.81729854
'00:08:45.914,0.061035,0.028809,1.002930,0.365854,1.402439,-0.609756,-4.506250,17.906250,19.962500,28.699,0.57541539,-0.00944346,-0.02896819,-0.81729358
'00:08:45.924,0.059082,0.029785,1.002441,0.304878,1.341463,-0.609756,-4.506250,17.906250,19.962500,28.699,0.57542125,-0.00945351,-0.02897490,-0.81728910
'00:08:45.934,0.059082,0.029785,1.002441,0.365854,1.341463,-0.609756,-4.775000,18.256250,20.193750,28.699,0.57541543,-0.00944870,-0.02897218,-0.81729335
'00:08:45.945,0.058105,0.029785,1.002930,0.426829,1.341463,-0.609756,-4.775000,18.256250,20.193750,28.714,0.57540915,-0.00943399,-0.02896955,-0.81729803
'00:08:45.954,0.057617,0.029297,1.001953,0.426829,1.341463,-0.548781,-4.831250,18.287500,20.262501,28.668,0.57540505,-0.00941929,-0.02896014,-0.81730142
'00:08:45.964,0.059082,0.029785,1.001953,0.304878,1.341463,-0.548781,-4.537500,17.925001,19.956251,28.668,0.57541359,-0.00942824,-0.02896515,-0.81729513
'00:08:45.974,0.058594,0.028809,1.003906,0.365854,1.341463,-0.548781,-4.537500,17.925001,19.956251,28.638,0.57542238,-0.00943480,-0.02896589,-0.81728884
'00:08:45.984,0.059570,0.029297,1.002930,0.426829,1.341463,-0.609756,-4.537500,17.875000,19.968750,28.653,0.57542549,-0.00944115,-0.02897700,-0.81728618
'00:08:45.994,0.059082,0.030273,1.003906,0.365854,1.341463,-0.609756,-4.537500,17.875000,19.968750,28.668,0.57542834,-0.00944340,-0.02898688,-0.81728380
'00:08:46.004,0.059082,0.028809,1.002930,0.304878,1.280488,-0.609756,-4.562500,17.900000,19.987501,28.684,0.57542999,-0.00945803,-0.02898566,-0.81728251
'00:08:46.014,0.057617,0.030762,1.000977,0.365854,1.341463,-0.609756,-4.562500,17.900000,19.987501,28.653,0.57543143,-0.00944897,-0.02899201,-0.81728138
'00:08:46.024,0.059082,0.029785,1.001953,0.365854,1.402439,-0.609756,-4.787500,18.281250,20.175001,28.699,0.57542549,-0.00943945,-0.02898579,-0.81728589
'00:08:46.034,0.059082,0.030273,1.002441,0.365854,1.341463,-0.609756,-4.787500,18.281250,20.175001,28.638,0.57541934,-0.00943237,-0.02898537,-0.81729032
'00:08:46.044,0.059082,0.029785,1.003418,0.365854,1.341463,-0.609756,-4.862500,18.331251,20.312500,28.668,0.57540888,-0.00942368,-0.02897690,-0.81729808
'00:08:46.054,0.058594,0.029785,1.003418,0.426829,1.341463,-0.609756,-4.862500,18.331251,20.312500,28.699,0.57539855,-0.00940938,-0.02897102,-0.81730572
'00:08:46.064,0.059082,0.029785,1.003418,0.365854,1.341463,-0.609756,-4.750000,18.225000,20.093750,28.638,0.57539430,-0.00940597,-0.02896960,-0.81730881
'00:08:46.075,0.059570,0.029297,1.002441,0.365854,1.402439,-0.548781,-4.750000,18.225000,20.093750,28.653,0.57539469,-0.00940308,-0.02896415,-0.81730876
'00:08:46.084,0.058105,0.029785,1.002930,0.365854,1.341463,-0.609756,-4.575000,17.906250,20.025000,28.668,0.57539561,-0.00940109,-0.02896545,-0.81730809
'00:08:46.094,0.058105,0.028809,1.002930,0.304878,1.341463,-0.609756,-4.575000,17.906250,20.025000,28.684,0.57539680,-0.00940600,-0.02895681,-0.81730750
'00:08:46.104,0.059082,0.029785,1.003906,0.304878,1.280488,-0.609756,-4.537500,17.937500,19.925001,28.684,0.57540132,-0.00941904,-0.02896459,-0.81730389
'00:08:46.114,0.058105,0.029297,1.003906,0.365854,1.341463,-0.548781,-4.537500,17.937500,19.925001,28.668,0.57541050,-0.00942106,-0.02896663,-0.81729734
'00:08:46.124,0.057617,0.029297,1.003418,0.365854,1.341463,-0.548781,-4.543750,17.868750,19.931250,28.714,0.57541764,-0.00941904,-0.02896472,-0.81729240
'00:08:46.134,0.058105,0.029297,1.002441,0.365854,1.341463,-0.609756,-4.543750,17.868750,19.931250,28.684,0.57542040,-0.00941987,-0.02896525,-0.81729043
'00:08:46.144,0.058105,0.030762,1.002930,0.304878,1.341463,-0.609756,-4.906250,18.512501,20.306250,28.699,0.57541086,-0.00940502,-0.02895557,-0.81729766
'00:08:46.154,0.059082,0.029785,1.001465,0.304878,1.341463,-0.548781,-4.906250,18.512501,20.306250,28.653,0.57540592,-0.00940022,-0.02894497,-0.81730157
'00:08:46.164,0.059570,0.029785,1.002441,0.365854,1.402439,-0.548781,-4.875000,18.481251,20.300001,28.623,0.57540262,-0.00939205,-0.02893903,-0.81730420
'00:08:46.174,0.058594,0.029297,1.003418,0.365854,1.280488,-0.609756,-4.875000,18.481251,20.300001,28.668,0.57539485,-0.00938889,-0.02893235,-0.81730994
'00:08:46.184,0.060059,0.028809,1.003418,0.365854,1.341463,-0.548781,-4.525000,17.912500,19.912500,28.623,0.57540453,-0.00940510,-0.02894073,-0.81730264
'00:08:46.194,0.060059,0.028809,1.003418,0.365854,1.341463,-0.609756,-4.525000,17.912500,19.912500,28.668,0.57540980,-0.00942087,-0.02894895,-0.81729846
'00:08:46.204,0.060547,0.030273,1.002930,0.365854,1.341463,-0.548781,-4.531250,17.837500,19.893751,28.653,0.57541695,-0.00943192,-0.02896548,-0.81729271
'00:08:46.214,0.059082,0.029297,1.001953,0.365854,1.341463,-0.609756,-4.531250,17.837500,19.893751,28.623,0.57541997,-0.00943851,-0.02897052,-0.81729033
'00:08:46.224,0.058105,0.029785,1.002930,0.365854,1.280488,-0.609756,-4.537500,17.906250,19.962500,28.653,0.57542356,-0.00944222,-0.02897791,-0.81728750
'00:08:46.234,0.058105,0.030273,1.002441,0.365854,1.341463,-0.548781,-4.850000,18.293751,20.206251,28.684,0.57541777,-0.00942632,-0.02896916,-0.81729207
'00:08:46.244,0.059570,0.029297,1.002441,0.304878,1.280488,-0.609756,-4.850000,18.293751,20.206251,28.668,0.57540767,-0.00943005,-0.02895962,-0.81729948
'00:08:46.254,0.058594,0.029785,1.001953,0.304878,1.341463,-0.609756,-4.943750,18.481251,20.312500,28.684,0.57539518,-0.00941933,-0.02894336,-0.81730897
'00:08:46.264,0.058594,0.028809,1.002930,0.304878,1.341463,-0.609756,-4.943750,18.481251,20.312500,28.684,0.57538299,-0.00941253,-0.02892152,-0.81731840
'00:08:46.274,0.058594,0.029297,1.003906,0.365854,1.280488,-0.609756,-4.556250,17.868750,19.918751,28.608,0.57538496,-0.00941964,-0.02892640,-0.81731675
'00:08:46.284,0.059570,0.028809,1.003418,0.365854,1.341463,-0.609756,-4.556250,17.868750,19.918751,28.699,0.57538712,-0.00942993,-0.02892943,-0.81731501
'00:08:46.294,0.059082,0.028809,1.002441,0.365854,1.341463,-0.609756,-4.593750,17.931250,19.981251,28.638,0.57538779,-0.00943609,-0.02892911,-0.81731448
'00:08:46.304,0.059082,0.028809,1.001953,0.365854,1.341463,-0.609756,-4.593750,17.931250,19.981251,28.668,0.57538844,-0.00944226,-0.02892899,-0.81731396
'00:08:46.314,0.058594,0.029297,1.002441,0.365854,1.341463,-0.548781,-4.562500,17.900000,19.968750,28.668,0.57539486,-0.00944514,-0.02893126,-0.81730932
'00:08:46.324,0.059082,0.028809,1.003418,0.426829,1.402439,-0.609756,-4.562500,17.900000,19.968750,28.668,0.57539721,-0.00944498,-0.02893353,-0.81730759
'00:08:46.334,0.058594,0.030273,1.003418,0.365854,1.341463,-0.548781,-4.725000,18.131250,20.118750,28.668,0.57539674,-0.00943687,-0.02893318,-0.81730802
'00:08:46.344,0.058105,0.029785,1.003418,0.365854,1.341463,-0.548781,-4.725000,18.131250,20.118750,28.608,0.57539641,-0.00942812,-0.02892807,-0.81730854
'00:08:46.354,0.058594,0.029297,1.003418,0.304878,1.280488,-0.609756,-4.931250,18.387501,20.337500,28.668,0.57538265,-0.00942305,-0.02891075,-0.81731890
'00:08:46.364,0.059570,0.028320,1.003418,0.365854,1.341463,-0.609756,-4.931250,18.387501,20.337500,28.623,0.57536936,-0.00942006,-0.02889338,-0.81732890
'00:08:46.374,0.058105,0.028809,1.003418,0.304878,1.280488,-0.548781,-4.606250,18.031250,20.087500,28.653,0.57537529,-0.00942911,-0.02888911,-0.81732477
'00:08:46.384,0.059082,0.028809,1.002930,0.365854,1.341463,-0.548781,-4.606250,18.031250,20.087500,28.638,0.57538135,-0.00943626,-0.02889032,-0.81732038
'00:08:46.394,0.059570,0.029785,1.002930,0.365854,1.341463,-0.609756,-4.537500,17.931250,19.918751,28.638,0.57538605,-0.00944447,-0.02890275,-0.81731654
'00:08:46.405,0.060059,0.029297,1.003418,0.365854,1.402439,-0.609756,-4.537500,17.931250,19.918751,28.699,0.57539142,-0.00945367,-0.02891161,-0.81731234
'00:08:46.414,0.059570,0.029297,1.001953,0.304878,1.341463,-0.548781,-4.525000,17.956251,19.906250,28.668,0.57540085,-0.00946661,-0.02891769,-0.81730533
'00:08:46.424,0.058594,0.029785,1.002930,0.365854,1.341463,-0.548781,-4.525000,17.956251,19.906250,28.653,0.57541126,-0.00946993,-0.02892714,-0.81729763
'00:08:46.434,0.057617,0.029785,1.002441,0.365854,1.341463,-0.548781,-4.550000,17.925001,19.943750,28.684,0.57541905,-0.00946577,-0.02892984,-0.81729210
'00:08:46.444,0.059082,0.029785,1.002930,0.304878,1.341463,-0.609756,-4.550000,17.925001,19.943750,28.668,0.57542235,-0.00947281,-0.02893391,-0.81728955
'00:08:46.454,0.058594,0.029297,1.002930,0.365854,1.341463,-0.609756,-4.918750,18.487501,20.425001,28.638,0.57541128,-0.00946191,-0.02892077,-0.81729794
'00:08:46.464,0.058594,0.029785,1.002441,0.365854,1.341463,-0.609756,-4.918750,18.487501,20.425001,28.668,0.57540018,-0.00944938,-0.02891088,-0.81730625
'00:08:46.474,0.059570,0.029297,1.002930,0.365854,1.280488,-0.609756,-4.737500,18.181250,20.175001,28.653,0.57539545,-0.00945503,-0.02891252,-0.81730946
'00:08:46.484,0.060547,0.028320,1.002441,0.365854,1.402439,-0.609756,-4.737500,18.181250,20.175001,28.729,0.57539119,-0.00946146,-0.02890651,-0.81731260
'00:08:46.494,0.060547,0.028320,1.002441,0.365854,1.402439,-0.609756,-4.537500,17.825001,19.881250,28.729,0.57539397,-0.00947506,-0.02890879,-0.81731040
'00:08:46.504,0.059570,0.030273,1.002441,0.426829,1.341463,-0.609756,-4.537500,17.950001,19.925001,28.699,0.57539885,-0.00947788,-0.02892860,-0.81730623
'00:08:46.514,0.058594,0.029785,1.002441,0.365854,1.341463,-0.609756,-4.537500,17.950001,19.925001,28.699,0.57540378,-0.00948012,-0.02893692,-0.81730244
'00:08:46.524,0.059570,0.029785,1.002441,0.365854,1.341463,-0.609756,-4.562500,17.900000,19.987501,28.714,0.57540550,-0.00948579,-0.02894575,-0.81730085
'00:08:46.534,0.059570,0.029297,1.002441,0.426829,1.341463,-0.609756,-4.562500,17.900000,19.987501,28.668,0.57540734,-0.00949031,-0.02895590,-0.81729914
'00:08:46.544,0.059082,0.029297,1.003418,0.365854,1.341463,-0.548781,-5.056250,18.618750,20.437500,28.668,0.57539446,-0.00947573,-0.02893708,-0.81730905
'00:08:46.554,0.059570,0.028809,1.003906,0.304878,1.402439,-0.609756,-5.056250,18.618750,20.437500,28.668,0.57537752,-0.00946451,-0.02891026,-0.81732204
'00:08:46.565,0.058594,0.029297,1.002930,0.365854,1.341463,-0.548781,-5.056250,18.706251,20.481251,28.668,0.57536550,-0.00944761,-0.02889070,-0.81733140
'00:08:46.574,0.058594,0.029785,1.002441,0.365854,1.341463,-0.609756,-5.056250,18.706251,20.481251,28.668,0.57535175,-0.00943228,-0.02887773,-0.81734171
'00:08:46.584,0.057129,0.030273,1.000977,0.365854,1.280488,-0.609756,-4.556250,18.000000,20.018751,28.638,0.57535622,-0.00942946,-0.02888716,-0.81733826
'00:08:46.594,0.057617,0.030762,1.002441,0.365854,1.280488,-0.609756,-4.556250,18.000000,20.018751,28.699,0.57536055,-0.00942713,-0.02890066,-0.81733477
'00:08:46.604,0.059570,0.029785,1.002930,0.304878,1.341463,-0.548781,-4.543750,17.931250,19.981251,28.684,0.57536891,-0.00943852,-0.02890798,-0.81732849
'00:08:46.614,0.059082,0.028809,1.003906,0.365854,1.341463,-0.609756,-4.543750,17.931250,19.981251,28.653,0.57537316,-0.00944754,-0.02891144,-0.81732527
'00:08:46.624,0.059082,0.028809,1.002441,0.365854,1.341463,-0.609756,-4.543750,17.950001,19.956251,28.668,0.57537788,-0.00945687,-0.02891590,-0.81732168
'00:08:46.634,0.060059,0.029297,1.002441,0.426829,1.341463,-0.609756,-4.543750,17.950001,19.956251,28.668,0.57538246,-0.00946649,-0.02893139,-0.81731780
'00:08:46.644,0.059570,0.029785,1.001465,0.365854,1.402439,-0.609756,-4.706250,18.181250,20.012501,28.668,0.57538068,-0.00946301,-0.02893282,-0.81731904
'00:08:46.654,0.060547,0.029297,1.002930,0.365854,1.280488,-0.609756,-4.706250,18.181250,20.012501,28.608,0.57537868,-0.00947537,-0.02894083,-0.81732002
'00:08:46.666,0.058594,0.029297,1.002441,0.304878,1.280488,-0.609756,-4.906250,18.362501,20.275000,28.684,0.57536371,-0.00946990,-0.02892199,-0.81733129
'00:08:46.674,0.060059,0.029297,1.002441,0.304878,1.280488,-0.609756,-4.906250,18.362501,20.275000,28.653,0.57535376,-0.00947290,-0.02891437,-0.81733853
'00:08:46.684,0.059082,0.027832,1.003906,0.365854,1.280488,-0.548781,-4.631250,18.025000,20.000000,28.668,0.57535832,-0.00948558,-0.02891029,-0.81733532
'00:08:46.694,0.059082,0.029297,1.003418,0.426829,1.341463,-0.548781,-4.631250,18.025000,20.000000,28.729,0.57536273,-0.00948477,-0.02891621,-0.81733202
'00:08:46.704,0.058105,0.029297,1.002930,0.426829,1.341463,-0.609756,-4.600000,17.968750,20.025000,28.699,0.57536361,-0.00947966,-0.02891941,-0.81733134
'00:08:46.714,0.056641,0.030273,1.003418,0.365854,1.341463,-0.609756,-4.600000,17.968750,20.025000,28.699,0.57536429,-0.00946519,-0.02891776,-0.81733109
'00:08:46.724,0.058594,0.028809,1.003906,0.365854,1.341463,-0.548781,-4.506250,17.843750,19.931250,28.623,0.57537374,-0.00947228,-0.02892009,-0.81732427
'00:08:46.734,0.059082,0.030273,1.003418,0.365854,1.280488,-0.548781,-4.506250,17.843750,19.931250,28.729,0.57538263,-0.00948040,-0.02893617,-0.81731735
'00:08:46.744,0.059082,0.030273,1.003418,0.304878,1.219512,-0.548781,-4.543750,17.912500,19.956251,28.714,0.57539005,-0.00949430,-0.02894913,-0.81731150
'00:08:46.754,0.059082,0.031250,1.002441,0.243902,1.219512,-0.548781,-4.543750,17.912500,19.956251,28.714,0.57539712,-0.00950716,-0.02896359,-0.81730587
'00:08:46.764,0.059082,0.029785,1.001953,0.243902,1.158537,-0.548781,-4.906250,18.425001,20.318750,28.653,0.57538955,-0.00951571,-0.02895534,-0.81731139
'00:08:46.774,0.059082,0.030762,1.003906,0.365854,1.280488,-0.609756,-4.731250,18.168751,20.162500,28.684,0.57538454,-0.00951156,-0.02896246,-0.81731471
'00:08:46.784,0.059570,0.030762,1.004395,0.365854,1.341463,-0.609756,-4.731250,18.168751,20.162500,28.699,0.57537969,-0.00950577,-0.02896817,-0.81731799
'00:08:46.794,0.060059,0.028809,1.003906,0.365854,1.341463,-0.609756,-4.543750,17.893751,19.950001,28.699,0.57538291,-0.00951854,-0.02897362,-0.81731538
'00:08:46.804,0.059570,0.028320,1.003906,0.365854,1.280488,-0.609756,-4.543750,17.893751,19.950001,28.653,0.57538606,-0.00953468,-0.02897718,-0.81731285
'00:08:46.814,0.044922,0.033691,1.001953,0.243902,1.341463,-1.097561,-4.568750,17.881250,19.993750,28.638,0.57535146,-0.00944213,-0.02893895,-0.81733964
'00:08:46.824,0.041992,0.043945,1.002441,0.121951,1.097561,-3.475610,-4.568750,17.881250,19.993750,28.699,0.57514462,-0.00930860,-0.02895532,-0.81748615
'00:08:46.834,0.053223,0.042480,0.996094,0.060976,1.158537,-4.634146,-4.600000,17.887501,19.893751,28.653,0.57485462,-0.00924514,-0.02900367,-0.81768911
'00:08:46.844,0.063477,0.025879,1.002930,-0.975610,-0.304878,-5.182927,-4.600000,17.887501,19.893751,28.668,0.57452525,-0.00946391,-0.02899405,-0.81791840
'00:08:46.854,0.059570,0.030762,1.008789,0.609756,1.524390,-5.731708,-5.018750,18.531250,20.300001,28.668,0.57414692,-0.00941039,-0.02899922,-0.81818446
'00:08:46.864,0.059082,0.030273,1.002441,0.731707,1.768293,-5.670732,-5.018750,18.531250,20.300001,28.623,0.57377486,-0.00933597,-0.02900002,-0.81844624
'00:08:46.876,0.070801,0.021484,1.000977,-0.609756,0.243902,-4.695122,-4.981250,18.318750,20.225000,28.684,0.57340689,-0.00958004,-0.02897214,-0.81870225
'00:08:46.884,0.065430,0.028320,1.011719,0.487805,1.341463,-4.085366,-4.981250,18.318750,20.225000,28.684,0.57319890,-0.00958917,-0.02898350,-0.81884738
'00:08:46.894,0.079102,0.016602,1.000000,0.975610,2.012195,-3.109756,-4.706250,17.850000,19.806250,28.668,0.57302225,-0.00966143,-0.02900111,-0.81896953
'00:08:46.904,0.066895,0.024902,1.001953,-0.182927,0.670732,-0.609756,-4.706250,17.850000,19.806250,28.684,0.57301930,-0.00979666,-0.02900017,-0.81897003
'00:08:46.914,0.053223,0.034668,1.007812,0.182927,1.097561,-0.548781,-4.637500,17.787500,19.862501,28.638,0.57302346,-0.00976718,-0.02900718,-0.81896722
'00:08:46.924,0.057129,0.031738,1.002930,0.182927,1.158537,-0.609756,-4.637500,17.787500,19.862501,28.668,0.57302393,-0.00976904,-0.02901181,-0.81896670
'00:08:46.934,0.053711,0.034180,1.008301,-1.036585,-0.243902,-0.426829,-4.656250,17.775000,19.837500,28.699,0.57303099,-0.00990040,-0.02899568,-0.81896076
'00:08:46.944,0.059570,0.027832,1.002930,-2.195122,-1.402439,-0.365854,-4.656250,17.775000,19.837500,28.684,0.57303933,-0.01023091,-0.02894355,-0.81895270
'00:08:46.954,0.064941,0.022949,0.997559,-0.731707,0.121951,-0.426829,-4.693750,17.700001,19.818750,28.684,0.57304439,-0.01042196,-0.02891073,-0.81894791
'00:08:46.964,0.063965,0.025391,1.000000,1.402439,2.378049,-0.670732,-4.693750,17.700001,19.818750,28.653,0.57303891,-0.01032590,-0.02892725,-0.81895238
'00:08:46.974,0.061523,0.028809,1.003418,2.073171,3.109756,-0.731707,-4.993750,18.193750,20.131250,28.714,0.57302082,-0.01010634,-0.02895157,-0.81896692
'00:08:46.984,0.059570,0.031250,1.007324,1.341463,2.256098,-0.670732,-4.993750,18.193750,20.131250,28.699,0.57300423,-0.00996651,-0.02897082,-0.81897956
'00:08:46.994,0.057617,0.032227,1.006836,-0.487805,0.426829,-0.487805,-4.700000,17.818750,19.887501,28.638,0.57300690,-0.01004811,-0.02896320,-0.81897696
'00:08:47.004,0.059570,0.030273,1.002930,-1.768293,-0.853659,-0.426829,-4.700000,17.818750,19.887501,28.653,0.57300972,-0.01030382,-0.02892614,-0.81897312
'00:08:47.015,0.062500,0.027344,0.999512,-1.097561,-0.304878,-0.365854,-4.731250,17.712500,19.806250,28.638,0.57301518,-0.01052910,-0.02889852,-0.81896741
'00:08:47.024,0.061523,0.026367,1.000488,-0.243902,0.670732,-0.548781,-4.712500,17.731251,19.856251,28.714,0.57301203,-0.01060869,-0.02887974,-0.81896925
'00:08:47.034,0.058594,0.027344,1.000488,0.731707,1.707317,-0.670732,-4.712500,17.731251,19.856251,28.684,0.57300314,-0.01055229,-0.02887092,-0.81897651
'00:08:47.044,0.058594,0.028320,1.004395,1.036585,2.073171,-0.853659,-4.668750,17.737501,19.818750,28.699,0.57298570,-0.01045289,-0.02887387,-0.81898988
'00:08:47.054,0.031250,0.024414,1.003906,1.768293,2.317073,-0.914634,-4.668750,17.737501,19.818750,28.684,0.57296663,-0.01015770,-0.02878249,-0.81901015
'00:08:47.064,0.031738,0.036621,1.009277,4.085366,5.060976,-2.865854,-5.087500,18.318750,20.237501,28.638,0.57279826,-0.00949389,-0.02877839,-0.81913602
'00:08:47.074,0.015625,0.024902,1.023926,1.646341,2.378049,-3.414634,-5.087500,18.318750,20.237501,28.608,0.57258560,-0.00910913,-0.02860552,-0.81929511
'00:08:47.084,0.047363,0.039551,1.017578,-1.890244,-1.280488,-3.109756,-4.831250,17.956251,19.875000,28.638,0.57239218,-0.00929665,-0.02858391,-0.81942890
'00:08:47.094,0.052734,0.029785,1.007812,-6.341464,-5.731708,-2.804878,-4.831250,17.956251,19.875000,28.668,0.57220788,-0.01009362,-0.02843635,-0.81955331
'00:08:47.104,0.062012,0.020508,0.998535,-7.621952,-7.195122,-1.890244,-4.812500,17.618750,19.643751,28.714,0.57207905,-0.01113662,-0.02825242,-0.81963610
'00:08:47.114,0.091309,0.001465,0.981445,-2.500000,-1.524390,-0.243902,-4.812500,17.618750,19.643751,28.638,0.57208691,-0.01173357,-0.02816502,-0.81962529
'00:08:47.124,0.079590,0.020996,0.995605,4.451220,5.548780,-1.341463,-4.775000,17.537500,19.575001,28.668,0.57203808,-0.01133545,-0.02828288,-0.81966092
'00:08:47.134,0.079590,0.034668,1.013184,1.890244,2.987805,-0.975610,-4.775000,17.537500,19.575001,28.668,0.57200452,-0.01119639,-0.02841181,-0.81968179
'00:08:47.144,0.084961,0.041992,1.001465,-1.341463,-0.670732,-0.609756,-4.812500,17.568750,19.568750,28.668,0.57198126,-0.01148283,-0.02855135,-0.81968921
'00:08:47.154,0.089844,0.042969,1.004395,-1.646341,-0.853659,-0.426829,-4.812500,17.568750,19.568750,28.699,0.57196910,-0.01181370,-0.02869541,-0.81968796
'00:08:47.164,0.087402,0.025391,0.995117,-1.219512,-0.243902,-0.487805,-4.962500,17.700001,19.712500,28.638,0.57195012,-0.01212605,-0.02872979,-0.81969544
'00:08:47.174,0.066406,0.022949,0.997559,1.951220,2.987805,-0.731707,-4.962500,17.700001,19.712500,28.699,0.57192588,-0.01194314,-0.02873562,-0.81971484
'00:08:47.184,0.061035,0.030273,1.007812,1.707317,2.804878,-0.731707,-4.793750,17.500000,19.468750,28.684,0.57190768,-0.01173396,-0.02875845,-0.81972975
'00:08:47.194,0.060059,0.028809,1.009277,-0.365854,0.609756,-0.487805,-4.793750,17.500000,19.468750,28.699,0.57190004,-0.01178887,-0.02872971,-0.81973531
'00:08:47.204,0.063965,0.025391,1.003906,-1.463415,-0.670732,-0.426829,-4.862500,17.556250,19.506250,28.699,0.57188942,-0.01202252,-0.02868079,-0.81974103
'00:08:47.214,0.065430,0.022949,0.998047,-0.670732,0.182927,-0.487805,-4.862500,17.556250,19.506250,28.653,0.57187751,-0.01217123,-0.02864069,-0.81974855
'00:08:47.224,0.063477,0.025879,1.001953,0.487805,1.524390,-0.548781,-4.756250,17.475000,19.456251,28.653,0.57187069,-0.01214592,-0.02863072,-0.81975403
'00:08:47.234,0.061523,0.028320,1.005371,0.487805,1.463415,-0.609756,-4.756250,17.475000,19.456251,28.714,0.57185902,-0.01210382,-0.02862893,-0.81976286
'00:08:47.244,0.061523,0.028320,1.005371,0.487805,1.463415,-0.609756,-4.793750,17.487501,19.456251,28.714,0.57184518,-0.01206036,-0.02862467,-0.81977330
'00:08:47.254,0.062012,0.024414,1.005859,-0.060976,0.731707,-0.548781,-4.793750,17.487501,19.456251,28.699,0.57183425,-0.01211545,-0.02859741,-0.81978106
'00:08:47.264,0.064941,0.023926,0.994141,-0.060976,0.975610,-0.609756,-5.043750,17.756250,19.693750,28.668,0.57180803,-0.01216264,-0.02855879,-0.81980000
'00:08:47.274,0.062988,0.024902,1.006348,0.304878,1.341463,-0.609756,-5.043750,17.756250,19.693750,28.668,0.57178311,-0.01214733,-0.02852192,-0.81981889
'00:08:47.287,0.062012,0.026855,1.003906,0.000000,1.036585,-0.609756,-5.025000,17.793751,19.768751,28.638,0.57175133,-0.01216218,-0.02847943,-0.81984231
'00:08:47.295,0.063965,0.026855,1.000000,-0.182927,0.792683,-0.548781,-4.812500,17.475000,19.531250,28.744,0.57174088,-0.01220802,-0.02846766,-0.81984933
'00:08:47.304,0.064453,0.025391,1.004395,-0.609756,0.304878,-0.548781,-4.812500,17.475000,19.531250,28.684,0.57172789,-0.01231620,-0.02844163,-0.81985768
'00:08:47.314,0.065918,0.024414,1.001465,0.000000,0.853659,-0.548781,-4.812500,17.450001,19.468750,28.653,0.57171516,-0.01237738,-0.02843017,-0.81986603
'00:08:47.324,0.064453,0.022949,1.001953,0.731707,1.768293,-0.609756,-4.812500,17.450001,19.468750,28.653,0.57170145,-0.01233327,-0.02841139,-0.81987690
'00:08:47.334,0.062988,0.026367,1.005859,0.731707,1.585366,-0.609756,-4.800000,17.481251,19.525000,28.684,0.57168816,-0.01228171,-0.02841583,-0.81988679
'00:08:47.344,0.063477,0.027344,1.002930,0.060976,0.914634,-0.548781,-4.800000,17.481251,19.525000,28.668,0.57167671,-0.01231204,-0.02841436,-0.81989437
'00:08:47.354,0.063477,0.026367,1.001953,-0.243902,0.609756,-0.487805,-4.825000,17.425001,19.518751,28.608,0.57166572,-0.01238088,-0.02839774,-0.81990157
'00:08:47.364,0.063965,0.024902,1.001465,0.060976,0.975610,-0.487805,-4.825000,17.425001,19.518751,28.699,0.57165620,-0.01241604,-0.02837865,-0.81990834
'00:08:47.374,0.063965,0.024414,1.003906,0.121951,1.158537,-0.548781,-5.193750,17.968750,19.906250,28.668,0.57162972,-0.01242277,-0.02833636,-0.81992816
'00:08:47.384,0.064453,0.024414,1.004395,0.000000,0.914634,-0.609756,-5.193750,17.968750,19.906250,28.729,0.57159827,-0.01245542,-0.02830002,-0.81995084
'00:08:47.394,0.064941,0.025879,1.003418,0.060976,1.036585,-0.548781,-5.131250,17.787500,19.756250,28.668,0.57157178,-0.01247407,-0.02827337,-0.81996994
'00:08:47.404,0.062988,0.026367,1.004883,0.182927,1.097561,-0.548781,-5.131250,17.787500,19.756250,28.593,0.57154562,-0.01246928,-0.02824754,-0.81998914
'00:08:47.415,0.062988,0.027344,1.005371,-0.243902,0.670732,-0.487805,-4.862500,17.450001,19.531250,28.699,0.57153179,-0.01252813,-0.02822904,-0.81999852
'00:08:47.424,0.064941,0.025391,1.003418,-0.792683,0.121951,-0.487805,-4.862500,17.450001,19.531250,28.608,0.57151898,-0.01265257,-0.02820104,-0.82000650
'00:08:47.434,0.064453,0.023438,1.001465,-0.792683,0.060976,-0.426829,-4.806250,17.456251,19.506250,28.699,0.57151330,-0.01280249,-0.02816558,-0.82000935
'00:08:47.444,0.067383,0.023438,0.999512,-0.365854,0.731707,-0.548781,-4.806250,17.456251,19.506250,28.638,0.57150069,-0.01289740,-0.02813990,-0.82001754
'00:08:47.454,0.068359,0.022461,1.000000,0.792683,1.829268,-0.670732,-4.918750,17.418751,19.525000,28.638,0.57147490,-0.01285615,-0.02813122,-0.82003646
'00:08:47.464,0.065430,0.023926,1.002441,1.585366,2.560976,-0.670732,-4.918750,17.418751,19.525000,28.699,0.57145178,-0.01270136,-0.02813895,-0.82005472
'00:08:47.474,0.063477,0.027344,1.003906,1.341463,2.317073,-0.670732,-5.268750,17.975000,19.881250,28.699,0.57141620,-0.01254314,-0.02813937,-0.82008193
'00:08:47.484,0.062988,0.026855,1.004883,0.304878,1.219512,-0.609756,-5.268750,17.975000,19.881250,28.623,0.57138164,-0.01251658,-0.02811578,-0.82010723
'00:08:47.495,0.063477,0.024902,1.003906,-0.426829,0.487805,-0.487805,-5.118750,17.893751,19.812500,28.668,0.57135980,-0.01260495,-0.02807344,-0.82012254
'00:08:47.504,0.065430,0.023926,1.001953,-0.426829,0.548781,-0.487805,-5.118750,17.893751,19.812500,28.729,0.57134217,-0.01268565,-0.02803914,-0.82013475
'00:08:47.514,0.065918,0.023438,1.000000,0.000000,0.975610,-0.548781,-4.875000,17.456251,19.581251,28.638,0.57132664,-0.01273519,-0.02801883,-0.82014549
'00:08:47.524,0.065918,0.022461,0.999023,0.731707,1.707317,-0.609756,-4.875000,17.456251,19.581251,28.653,0.57130954,-0.01269926,-0.02800961,-0.82015828
'00:08:47.534,0.066406,0.022949,0.999023,1.707317,2.743902,-0.670732,-4.818750,17.362501,19.456251,28.638,0.57129382,-0.01254365,-0.02802594,-0.82017107
'00:08:47.544,0.062988,0.026367,1.003906,2.134146,3.170732,-0.731707,-4.818750,17.362501,19.456251,28.668,0.57127498,-0.01230475,-0.02805576,-0.82018679
'00:08:47.554,0.060547,0.028809,1.006836,0.792683,1.707317,-0.609756,-4.906250,17.475000,19.531250,28.653,0.57125625,-0.01221397,-0.02806131,-0.82020100
'00:08:47.564,0.062500,0.027832,1.003906,-0.548781,0.365854,-0.487805,-4.793750,17.400000,19.487501,28.668,0.57124792,-0.01230849,-0.02804809,-0.82020584
'00:08:47.575,0.064941,0.024414,1.002930,-0.731707,0.182927,-0.487805,-4.793750,17.400000,19.487501,28.638,0.57123858,-0.01246545,-0.02801881,-0.82021097
'00:08:47.584,0.066406,0.022461,1.000977,-0.060976,0.853659,-0.609756,-5.156250,17.881250,19.906250,28.714,0.57121225,-0.01252031,-0.02798920,-0.82022949
'00:08:47.594,0.065430,0.023926,1.000488,0.853659,1.829268,-0.609756,-5.156250,17.881250,19.906250,28.684,0.57118613,-0.01245446,-0.02797815,-0.82024905
'00:08:47.604,0.065918,0.024414,1.000977,1.219512,2.256098,-0.731707,-4.843750,17.562500,19.543751,28.653,0.57116755,-0.01235442,-0.02799372,-0.82026298
'00:08:47.614,0.064941,0.025879,1.004395,1.219512,2.317073,-0.670732,-4.843750,17.562500,19.543751,28.668,0.57115344,-0.01223969,-0.02800929,-0.82027399
'00:08:47.624,0.062500,0.027832,1.005371,0.670732,1.646341,-0.609756,-4.825000,17.443750,19.537500,28.684,0.57113989,-0.01218013,-0.02801869,-0.82028399
'00:08:47.634,0.063965,0.027344,1.003906,-0.182927,0.670732,-0.548781,-4.825000,17.443750,19.537500,28.668,0.57112757,-0.01224435,-0.02801907,-0.82029160
'00:08:47.644,0.065430,0.026367,1.002441,-0.731707,0.182927,-0.487805,-4.806250,17.381250,19.475000,28.699,0.57111795,-0.01238246,-0.02800520,-0.82029669
'00:08:47.654,0.064941,0.024902,1.000977,-0.304878,0.609756,-0.487805,-4.806250,17.381250,19.475000,28.714,0.57110995,-0.01247023,-0.02799098,-0.82030142
'00:08:47.664,0.065918,0.021973,1.000977,0.426829,1.463415,-0.609756,-4.781250,17.418751,19.556250,28.684,0.57109882,-0.01247828,-0.02797660,-0.82030954
'00:08:47.674,0.065430,0.021484,1.000000,1.768293,2.743902,-0.670732,-4.781250,17.418751,19.556250,28.668,0.57108807,-0.01232725,-0.02799038,-0.82031884
'00:08:47.684,0.060547,0.027344,1.003906,1.768293,2.804878,-0.670732,-5.062500,17.862501,19.775000,28.684,0.57106729,-0.01211319,-0.02800278,-0.82033607
'00:08:47.694,0.059570,0.029297,1.006348,0.182927,1.097561,-0.609756,-5.062500,17.862501,19.775000,28.668,0.57104509,-0.01209003,-0.02799314,-0.82035219
'00:08:47.704,0.064453,0.025879,1.004883,-0.914634,0.000000,-0.426829,-5.012500,17.731251,19.750000,28.638,0.57103316,-0.01224221,-0.02796061,-0.82035935
'00:08:47.714,0.065430,0.023926,1.001465,-0.731707,0.182927,-0.487805,-5.012500,17.731251,19.750000,28.714,0.57101766,-0.01238367,-0.02792660,-0.82036917
'00:08:47.724,0.065918,0.023926,1.002441,-0.182927,0.731707,-0.487805,-4.850000,17.425001,19.543751,28.668,0.57100849,-0.01246402,-0.02791181,-0.82037485
'00:08:47.736,0.064941,0.024902,1.003418,-0.182927,0.670732,-0.548781,-4.850000,17.425001,19.543751,28.699,0.57099177,-0.01255269,-0.02789957,-0.82038554
'00:08:47.744,0.067383,0.023438,1.001465,-0.182927,0.731707,-0.548781,-4.818750,17.425001,19.562500,28.684,0.57098245,-0.01262473,-0.02789254,-0.82039116
'00:08:47.754,0.067383,0.022949,1.000977,0.243902,1.280488,-0.548781,-4.818750,17.425001,19.562500,28.638,0.57097262,-0.01265527,-0.02788440,-0.82039782
'00:08:47.764,0.064453,0.024414,1.003906,0.670732,1.646341,-0.609756,-4.762500,17.368750,19.493750,28.714,0.57096244,-0.01261755,-0.02788773,-0.82040537
'00:08:47.774,0.063965,0.025391,1.001465,0.426829,1.402439,-0.609756,-4.762500,17.368750,19.493750,28.668,0.57095129,-0.01260405,-0.02789042,-0.82041324
'00:08:47.784,0.064941,0.023926,1.000488,0.548781,1.524390,-0.609756,-5.256250,18.012501,19.881250,28.668,0.57092166,-0.01256833,-0.02786935,-0.82043512
'00:08:47.794,0.064453,0.024414,1.000977,1.280488,2.256098,-0.670732,-5.256250,18.012501,19.881250,28.729,0.57089035,-0.01243974,-0.02786540,-0.82045901
'00:08:47.804,0.062012,0.025879,1.002441,1.707317,2.743902,-0.731707,-5.112500,17.856251,19.875000,28.729,0.57086207,-0.01224334,-0.02787292,-0.82048138
'00:08:47.816,0.058594,0.027832,1.005859,0.914634,1.890244,-0.609756,-4.743750,17.425001,19.531250,28.684,0.57085463,-0.01211663,-0.02788304,-0.82048809
'00:08:47.824,0.062988,0.025391,1.003418,-0.182927,0.731707,-0.548781,-4.743750,17.425001,19.531250,28.668,0.57085041,-0.01217189,-0.02787654,-0.82049043
'00:08:47.834,0.066895,0.022461,0.999512,0.000000,0.975610,-0.548781,-4.843750,17.456251,19.462500,28.729,0.57084040,-0.01224172,-0.02786266,-0.82049683
'00:08:47.844,0.068359,0.024902,1.000488,0.853659,1.890244,-0.670732,-4.843750,17.456251,19.462500,28.699,0.57082417,-0.01220048,-0.02788361,-0.82050803
'00:08:47.854,0.065430,0.026855,1.002930,0.853659,1.829268,-0.670732,-4.793750,17.406250,19.475000,28.668,0.57080980,-0.01214232,-0.02790887,-0.82051803
'00:08:47.864,0.062500,0.020020,1.020508,-0.304878,0.365854,-0.548781,-4.793750,17.406250,19.475000,28.638,0.57080113,-0.01225384,-0.02786712,-0.82052382
'00:08:47.874,0.069824,0.037598,0.975098,-0.243902,0.731707,-0.609756,-5.093750,17.881250,19.800001,28.653,0.57077431,-0.01230645,-0.02794460,-0.82053905
'00:08:47.884,0.062012,0.031738,1.034668,0.731707,2.256098,-0.670732,-5.093750,17.881250,19.800001,28.714,0.57074975,-0.01216758,-0.02792783,-0.82055878
'00:08:47.897,0.066406,0.005859,1.020020,-0.609756,0.548781,-0.548781,-5.118750,17.850000,19.818750,28.729,0.57072544,-0.01239354,-0.02773547,-0.82057883
'00:08:47.904,0.064941,0.020508,0.986328,0.975610,1.646341,-0.670732,-5.118750,17.850000,19.818750,28.653,0.57070726,-0.01236597,-0.02773506,-0.82059191
'00:08:47.914,0.056641,0.029785,0.983887,2.012195,3.109756,-0.731707,-4.806250,17.493750,19.581251,28.699,0.57069352,-0.01210008,-0.02777296,-0.82060414
'00:08:47.924,0.060059,0.034668,1.016602,-0.182927,0.609756,-0.426829,-4.806250,17.493750,19.581251,28.653,0.57069277,-0.01212025,-0.02780559,-0.82060326
'00:08:47.934,0.065918,0.027344,1.005859,-0.792683,0.182927,-0.426829,-4.825000,17.456251,19.493750,28.699,0.57068966,-0.01226294,-0.02779874,-0.82060353
'00:08:47.944,0.067383,0.019531,1.002930,-0.182927,0.792683,-0.548781,-4.825000,17.456251,19.493750,28.578,0.57068123,-0.01236863,-0.02776789,-0.82060886
'00:08:47.954,0.061035,0.021973,0.999512,-0.060976,0.792683,-0.548781,-4.800000,17.418751,19.600000,28.699,0.57067297,-0.01242438,-0.02773685,-0.82061480
'00:08:47.964,0.066406,0.023438,1.002930,0.487805,1.463415,-0.609756,-4.800000,17.418751,19.600000,28.638,0.57066202,-0.01242716,-0.02774049,-0.82062225
'00:08:47.975,0.068359,0.024902,1.004395,1.280488,2.317073,-0.609756,-4.812500,17.462500,19.562500,28.638,0.57065316,-0.01232425,-0.02777715,-0.82062873
'00:08:47.984,0.068359,0.024902,1.004395,1.280488,2.317073,-0.609756,-4.812500,17.462500,19.562500,28.638,0.57064603,-0.01224140,-0.02780680,-0.82063393
'00:08:47.994,0.067871,0.025879,1.006836,1.707317,2.865854,-0.731707,-4.987500,17.737501,19.743750,28.684,0.57062504,-0.01207616,-0.02783798,-0.82064991
'00:08:48.004,0.063965,0.025391,1.003906,1.097561,2.073171,-0.670732,-4.987500,17.737501,19.743750,28.668,0.57060638,-0.01198201,-0.02784824,-0.82066392
'00:08:48.017,0.061035,0.026855,1.001465,-0.060976,0.853659,-0.548781,-4.806250,17.481251,19.556250,28.668,0.57059717,-0.01203119,-0.02784050,-0.82066987
'00:08:48.024,0.061035,0.026855,1.001465,-0.060976,0.853659,-0.548781,-4.806250,17.481251,19.556250,28.668,0.57059217,-0.01205719,-0.02783638,-0.82067310
'00:08:48.034,0.062988,0.027832,1.006836,-0.853659,-0.121951,-0.426829,-4.806250,17.475000,19.562500,28.744,0.57059011,-0.01220915,-0.02783311,-0.82067239
'00:08:48.044,0.065430,0.023926,1.006836,-0.914634,0.000000,-0.487805,-4.806250,17.475000,19.562500,28.684,0.57058434,-0.01238191,-0.02780660,-0.82067471
'00:08:48.057,0.064941,0.023926,0.996582,0.975610,2.012195,-0.609756,-4.787500,17.462500,19.456251,28.699,0.57057596,-0.01229428,-0.02782281,-0.82068131
'00:08:48.064,0.064941,0.023926,0.996582,0.975610,2.012195,-0.609756,-4.787500,17.462500,19.456251,28.699,0.57057156,-0.01224799,-0.02783149,-0.82068477
'00:08:48.074,0.063965,0.025391,1.000000,1.341463,2.439024,-0.731707,-4.825000,17.468750,19.568750,28.729,0.57055491,-0.01211954,-0.02784900,-0.82069766
'00:08:48.084,0.063477,0.026855,1.003418,1.158537,2.256098,-0.609756,-5.118750,17.893751,19.856251,28.714,0.57053548,-0.01199555,-0.02785458,-0.82071280
'00:08:48.095,0.064453,0.026367,1.007812,0.243902,1.158537,-0.548781,-5.118750,17.893751,19.856251,28.684,0.57051532,-0.01200455,-0.02784815,-0.82072689
'00:08:48.104,0.065918,0.027344,1.004883,-0.731707,0.182927,-0.487805,-5.081250,17.862501,19.850000,28.653,0.57050109,-0.01212445,-0.02783660,-0.82073542
'00:08:48.114,0.066406,0.023926,1.002441,-0.731707,0.060976,-0.426829,-5.081250,17.862501,19.850000,28.729,0.57048985,-0.01228129,-0.02781362,-0.82074168
'00:08:48.124,0.067383,0.023438,1.000000,-0.304878,0.731707,-0.487805,-4.800000,17.431250,19.506250,28.668,0.57048630,-0.01238470,-0.02780191,-0.82074299
'00:08:48.135,0.068359,0.020020,0.997070,1.097561,2.073171,-0.670732,-4.800000,17.431250,19.506250,28.668,0.57047377,-0.01233556,-0.02781032,-0.82075216
'00:08:48.144,0.064453,0.025391,1.001953,2.134146,3.231707,-0.731707,-4.825000,17.468750,19.506250,28.668,0.57046167,-0.01213434,-0.02784331,-0.82076244
'00:08:48.154,0.060059,0.028809,1.006348,1.219512,2.256098,-0.609756,-4.825000,17.468750,19.506250,28.668,0.57045345,-0.01199037,-0.02786331,-0.82076959
'00:08:48.164,0.062012,0.026855,1.007812,-0.609756,0.304878,-0.487805,-4.812500,17.468750,19.568750,28.699,0.57044849,-0.01209864,-0.02784605,-0.82077204
'00:08:48.175,0.064453,0.023438,1.001953,-0.853659,0.000000,-0.487805,-4.812500,17.468750,19.568750,28.699,0.57044237,-0.01228472,-0.02781627,-0.82077454
'00:08:48.184,0.063965,0.025879,1.002441,-0.304878,0.670732,-0.548781,-5.218750,17.981251,19.887501,28.638,0.57042010,-0.01234110,-0.02779089,-0.82079003
'00:08:48.194,0.062500,0.024902,1.001953,-0.182927,0.792683,-0.487805,-5.218750,17.981251,19.887501,28.684,0.57040040,-0.01238431,-0.02775491,-0.82080429
'00:08:48.204,0.063965,0.024414,1.001953,0.000000,0.914634,-0.548781,-5.306250,18.093750,20.012501,28.714,0.57037346,-0.01241580,-0.02772555,-0.82082353
'00:08:48.216,0.065918,0.022949,0.999512,0.365854,1.341463,-0.548781,-5.306250,18.093750,20.012501,28.668,0.57034322,-0.01241472,-0.02769721,-0.82084551
'00:08:48.224,0.067383,0.023926,0.999023,1.646341,2.682927,-0.670732,-4.843750,17.481251,19.493750,28.684,0.57033422,-0.01230359,-0.02772459,-0.82085251
'00:08:48.234,0.063965,0.026367,1.006836,2.012195,3.048780,-0.670732,-4.843750,17.481251,19.493750,28.668,0.57032413,-0.01209161,-0.02776410,-0.82086134
'00:08:48.244,0.062012,0.027832,1.009766,0.426829,1.402439,-0.609756,-4.775000,17.400000,19.531250,28.638,0.57031552,-0.01206537,-0.02777463,-0.82086735
'00:08:48.257,0.065430,0.025879,1.004883,-0.975610,-0.121951,-0.426829,-4.806250,17.375000,19.575001,28.699,0.57031115,-0.01229832,-0.02775720,-0.82086752
'00:08:48.264,0.065430,0.024414,1.001465,-0.914634,-0.060976,-0.426829,-4.806250,17.375000,19.575001,28.668,0.57030887,-0.01242088,-0.02774376,-0.82086771
'00:08:48.274,0.066895,0.023926,0.999512,-0.426829,0.487805,-0.487805,-4.806250,17.375000,19.575001,28.744,0.57030290,-0.01254101,-0.02773597,-0.82087029
'00:08:48.284,0.066406,0.023438,0.997070,0.182927,1.219512,-0.609756,-4.787500,17.375000,19.543751,28.653,0.57029199,-0.01257733,-0.02773335,-0.82087741
'00:08:48.296,0.065430,0.023438,0.999023,0.975610,2.073171,-0.670732,-5.131250,17.843750,19.750000,28.699,0.57026183,-0.01247590,-0.02772376,-0.82090023
'00:08:48.304,0.065430,0.022461,1.003906,1.463415,2.560976,-0.731707,-5.131250,17.843750,19.750000,28.668,0.57024000,-0.01236404,-0.02772050,-0.82091720
'00:08:48.314,0.063477,0.024902,1.008789,1.219512,2.256098,-0.670732,-5.131250,17.843750,19.750000,28.714,0.57021594,-0.01223894,-0.02771857,-0.82093585
'00:08:48.324,0.061523,0.027832,1.006836,0.243902,1.219512,-0.609756,-4.812500,17.425001,19.562500,28.714,0.57020472,-0.01222913,-0.02772278,-0.82094365
'00:08:48.337,0.064453,0.024902,1.003418,-0.609756,0.304878,-0.487805,-4.793750,17.406250,19.556250,28.699,0.57019920,-0.01239581,-0.02770401,-0.82094562
'00:08:48.344,0.065918,0.024414,0.999512,-0.121951,0.792683,-0.548781,-4.793750,17.406250,19.556250,28.684,0.57019418,-0.01245012,-0.02770457,-0.82094826
'00:08:48.354,0.065430,0.023926,0.998535,0.365854,1.402439,-0.609756,-4.843750,17.481251,19.475000,28.684,0.57018338,-0.01245592,-0.02770376,-0.82095570
'00:08:48.364,0.064941,0.024902,1.000000,0.487805,1.463415,-0.609756,-4.843750,17.481251,19.475000,28.699,0.57017272,-0.01244433,-0.02771176,-0.82096301
'00:08:48.374,0.065430,0.024414,1.001953,0.609756,1.646341,-0.609756,-4.837500,17.406250,19.556250,28.699,0.57016108,-0.01241751,-0.02771610,-0.82097136
'00:08:48.384,0.064941,0.023926,1.005371,0.487805,1.585366,-0.609756,-4.837500,17.406250,19.556250,28.608,0.57014938,-0.01239987,-0.02770875,-0.82097999
'00:08:48.394,0.065918,0.023926,1.003418,0.670732,1.707317,-0.670732,-5.206250,17.918751,19.906250,28.699,0.57011999,-0.01235649,-0.02769702,-0.82100145
'00:08:48.405,0.067871,0.024902,1.003906,0.731707,1.768293,-0.609756,-5.206250,17.918751,19.906250,28.668,0.57009263,-0.01230889,-0.02769974,-0.82102108
'00:08:48.414,0.063965,0.027344,1.001953,0.487805,1.524390,-0.609756,-4.975000,17.625000,19.637501,28.684,0.57007772,-0.01227796,-0.02770669,-0.82103166
'00:08:48.424,0.062988,0.025879,1.003906,0.121951,1.036585,-0.548781,-4.975000,17.625000,19.637501,28.684,0.57006439,-0.01229721,-0.02769965,-0.82104086
'00:08:48.434,0.065430,0.023926,1.002441,-0.121951,0.914634,-0.548781,-4.868750,17.475000,19.575001,28.699,0.57005470,-0.01236270,-0.02768499,-0.82104710
'00:08:48.444,0.065918,0.022461,1.000000,0.731707,1.768293,-0.609756,-4.868750,17.475000,19.575001,28.699,0.57004383,-0.01233268,-0.02768376,-0.82105514
'00:08:48.454,0.065918,0.022949,1.000488,1.768293,2.865854,-0.670732,-4.843750,17.387501,19.543751,28.684,0.57003210,-0.01217115,-0.02770479,-0.82106499
'00:08:48.464,0.063477,0.027832,1.004883,1.951220,3.048780,-0.731707,-4.843750,17.387501,19.543751,28.684,0.57001603,-0.01195576,-0.02774641,-0.82107790
'00:08:48.474,0.061523,0.030273,1.008789,0.853659,1.890244,-0.609756,-4.843750,17.456251,19.525000,28.714,0.57000641,-0.01186094,-0.02777307,-0.82108505
'00:08:48.484,0.062012,0.028809,1.005371,-0.670732,0.182927,-0.487805,-4.843750,17.456251,19.525000,28.699,0.57000022,-0.01197508,-0.02777006,-0.82108780
'00:08:48.494,0.064453,0.024902,1.004395,-1.646341,-0.731707,-0.365854,-5.043750,17.775000,19.756250,28.699,0.56999311,-0.01222391,-0.02772198,-0.82109069
'00:08:48.504,0.068359,0.022461,0.998047,-1.219512,-0.304878,-0.426829,-5.043750,17.775000,19.756250,28.714,0.56998306,-0.01244951,-0.02768745,-0.82109545
'00:08:48.514,0.069336,0.022949,0.997070,0.060976,0.975610,-0.548781,-5.156250,17.937500,19.893751,28.699,0.56996416,-0.01251579,-0.02768329,-0.82110769
'00:08:48.524,0.068848,0.021484,0.999023,1.585366,2.682927,-0.731707,-5.156250,17.937500,19.893751,28.623,0.56993823,-0.01238520,-0.02769291,-0.82112735
'00:08:48.536,0.062988,0.026855,1.005859,2.012195,3.109756,-0.731707,-4.818750,17.375000,19.487501,28.699,0.56992142,-0.01211690,-0.02773743,-0.82114152
'00:08:48.544,0.061523,0.027832,1.008301,0.609756,1.524390,-0.609756,-4.818750,17.375000,19.487501,28.653,0.56991320,-0.01207794,-0.02774865,-0.82114742
'00:08:48.554,0.062988,0.027344,1.005859,-0.609756,0.304878,-0.548781,-4.843750,17.418751,19.556250,28.668,0.56990218,-0.01218782,-0.02773863,-0.82115378
'00:08:48.564,0.064941,0.024414,1.001953,-0.609756,0.365854,-0.548781,-4.843750,17.418751,19.556250,28.638,0.56989164,-0.01231514,-0.02771806,-0.82115989
'00:08:48.574,0.066406,0.023438,1.002441,-0.243902,0.731707,-0.548781,-4.818750,17.400000,19.500000,28.729,0.56988386,-0.01240912,-0.02770727,-0.82116424
'00:08:48.584,0.065918,0.024414,0.999023,0.304878,1.280488,-0.609756,-4.818750,17.400000,19.500000,28.638,0.56987329,-0.01242940,-0.02771360,-0.82117105
'00:08:48.594,0.063965,0.026367,1.000488,0.670732,1.585366,-0.609756,-4.812500,17.418751,19.475000,28.668,0.56986452,-0.01239100,-0.02773483,-0.82117700
'00:08:48.604,0.065430,0.026855,1.003906,0.121951,1.158537,-0.548781,-4.900000,17.487501,19.562500,28.744,0.56985371,-0.01241234,-0.02773930,-0.82118403
'00:08:48.616,0.066406,0.022461,1.003418,0.121951,1.097561,-0.609756,-4.900000,17.487501,19.562500,28.684,0.56983634,-0.01246986,-0.02772331,-0.82119576
'00:08:48.624,0.067871,0.020996,1.002441,0.853659,1.890244,-0.609756,-4.900000,17.487501,19.606251,28.638,0.56982693,-0.01244442,-0.02772132,-0.82120273
'00:08:48.634,0.063477,0.025391,1.004395,1.341463,2.378049,-0.670732,-4.900000,17.487501,19.606251,28.623,0.56981191,-0.01231186,-0.02773678,-0.82121464
'00:08:48.644,0.062500,0.028320,1.005859,0.365854,1.341463,-0.609756,-4.825000,17.450001,19.518751,28.699,0.56980198,-0.01229058,-0.02775129,-0.82122135
'00:08:48.654,0.062988,0.027832,1.003418,-0.853659,0.000000,-0.487805,-4.825000,17.450001,19.518751,28.653,0.56979633,-0.01243178,-0.02774492,-0.82122336
'00:08:48.664,0.063965,0.026367,1.003418,-1.585366,-0.670732,-0.426829,-4.806250,17.412500,19.512501,28.699,0.56979306,-0.01266721,-0.02771534,-0.82122303
'00:08:48.674,0.064453,0.025391,0.998047,-1.951220,-1.036585,-0.365854,-4.806250,17.412500,19.512501,28.653,0.56979261,-0.01295159,-0.02767623,-0.82122023
'00:08:48.684,0.070801,0.019043,0.997559,-0.548781,0.487805,-0.487805,-4.831250,17.450001,19.575001,28.668,0.56978809,-0.01311187,-0.02764958,-0.82122172
'00:08:48.695,0.069336,0.018555,0.999023,1.890244,2.865854,-0.792683,-4.831250,17.450001,19.575001,28.714,0.56976844,-0.01295710,-0.02767306,-0.82123702
'00:08:48.704,0.065430,0.024414,1.006836,2.621951,3.719512,-0.792683,-5.075000,17.750000,19.756250,28.714,0.56974533,-0.01269398,-0.02770420,-0.82125611
'00:08:48.715,0.060059,0.028809,1.009277,1.158537,2.256098,-0.670732,-5.075000,17.750000,19.756250,28.699,0.56972074,-0.01252064,-0.02771010,-0.82127563
'00:08:48.724,0.060059,0.028809,1.009277,1.158537,2.256098,-0.670732,-5.087500,17.812500,19.837500,28.699,0.56970121,-0.01238145,-0.02771552,-0.82129111
'00:08:48.734,0.062988,0.028809,1.005371,-0.853659,0.060976,-0.487805,-5.087500,17.812500,19.837500,28.699,0.56968530,-0.01250349,-0.02769925,-0.82130084
'00:08:48.744,0.065918,0.024902,1.001953,-2.012195,-1.158537,-0.365854,-4.875000,17.431250,19.568750,28.684,0.56968076,-0.01280769,-0.02765896,-0.82130066
'00:08:48.754,0.067383,0.023926,1.000000,-2.073171,-1.097561,-0.365854,-4.875000,17.431250,19.568750,28.699,0.56967589,-0.01311847,-0.02761232,-0.82130070
'00:08:48.764,0.068359,0.022461,0.999023,-1.280488,-0.365854,-0.426829,-4.837500,17.356251,19.568750,28.699,0.56966984,-0.01334551,-0.02758334,-0.82130222
'00:08:48.774,0.069336,0.020020,1.000000,-0.243902,0.792683,-0.548781,-4.837500,17.356251,19.568750,28.744,0.56965915,-0.01344913,-0.02756080,-0.82130870
'00:08:48.784,0.070312,0.019043,1.000488,1.341463,2.317073,-0.670732,-4.843750,17.387501,19.575001,28.729,0.56964558,-0.01337210,-0.02757477,-0.82131890
'00:08:48.794,0.066895,0.023438,1.005859,2.256098,3.292683,-0.792683,-4.843750,17.387501,19.575001,28.638,0.56962614,-0.01314317,-0.02761549,-0.82133471
'00:08:48.804,0.061523,0.026855,1.007812,1.219512,2.195122,-0.670732,-4.893750,17.412500,19.575001,28.714,0.56960872,-0.01300164,-0.02763061,-0.82134853
'00:08:48.814,0.062012,0.027344,1.003418,-0.365854,0.609756,-0.548781,-4.893750,17.412500,19.575001,28.699,0.56959453,-0.01305667,-0.02761724,-0.82135795
'00:08:48.824,0.065430,0.024414,1.000977,-1.280488,-0.304878,-0.426829,-5.225000,17.893751,19.825001,28.668,0.56957469,-0.01324146,-0.02756770,-0.82137041
'00:08:48.834,0.069824,0.021973,0.997070,-0.304878,0.670732,-0.548781,-5.225000,17.893751,19.825001,28.699,0.56954973,-0.01333902,-0.02754490,-0.82138691
'00:08:48.844,0.070801,0.019043,0.997070,1.890244,2.987805,-0.731707,-4.862500,17.356251,19.506250,28.684,0.56953282,-0.01319035,-0.02756694,-0.82140030
'00:08:48.857,0.068359,0.020996,1.002441,3.780488,4.939024,-0.853659,-4.768750,17.381250,19.462500,28.668,0.56951772,-0.01267474,-0.02765563,-0.82141590
'00:08:48.864,0.063965,0.028320,1.010254,3.231707,4.329268,-0.853659,-4.768750,17.381250,19.462500,28.684,0.56950779,-0.01241337,-0.02771179,-0.82142488
'00:08:48.874,0.061035,0.028809,1.011230,0.243902,1.219512,-0.609756,-4.806250,17.387501,19.487501,28.684,0.56949820,-0.01239507,-0.02771989,-0.82143154
'00:08:48.884,0.062988,0.027832,1.005859,-2.195122,-1.280488,-0.365854,-4.806250,17.387501,19.487501,28.714,0.56949749,-0.01269378,-0.02768127,-0.82142877
'00:08:48.894,0.066406,0.023926,1.000000,-2.865854,-2.012195,-0.304878,-5.100000,17.750000,19.743750,28.729,0.56948647,-0.01309773,-0.02761000,-0.82143247
'00:08:48.904,0.069336,0.021484,0.992676,-1.524390,-0.548781,-0.365854,-5.100000,17.750000,19.743750,28.668,0.56947586,-0.01335162,-0.02756310,-0.82143731
'00:08:48.914,0.070801,0.020508,0.994629,0.975610,2.073171,-0.609756,-5.068750,17.712500,19.712500,28.684,0.56945808,-0.01330174,-0.02756658,-0.82145033
'00:08:48.924,0.068359,0.020508,1.003418,2.804878,3.902439,-0.853659,-5.068750,17.712500,19.712500,28.668,0.56942964,-0.01301453,-0.02759799,-0.82147359
'00:08:48.934,0.063477,0.024414,1.007324,3.109756,4.085366,-0.853659,-4.900000,17.525000,19.531250,28.684,0.56940951,-0.01266767,-0.02765251,-0.82149113
'00:08:48.944,0.061035,0.028809,1.011230,1.280488,2.256098,-0.670732,-4.900000,17.525000,19.531250,28.684,0.56939581,-0.01251669,-0.02768017,-0.82150201
'00:08:48.954,0.061523,0.026855,1.007812,-1.036585,-0.121951,-0.487805,-4.881250,17.418751,19.612501,28.729,0.56938595,-0.01266454,-0.02765040,-0.82150758
'00:08:48.964,0.063965,0.025879,1.003418,-2.134146,-1.219512,-0.426829,-4.881250,17.418751,19.612501,28.668,0.56937646,-0.01296200,-0.02760237,-0.82151114
'00:08:48.974,0.063965,0.026367,1.003418,-2.743902,-1.890244,-0.304878,-4.887500,17.381250,19.556250,28.668,0.56937172,-0.01333068,-0.02754561,-0.82151042
'00:08:48.984,0.067383,0.025879,0.997559,-3.292683,-2.378049,-0.243902,-4.887500,17.381250,19.556250,28.684,0.56936879,-0.01377863,-0.02748679,-0.82150703
'00:08:48.995,0.073730,0.018066,0.993652,-1.768293,-0.853659,-0.365854,-4.931250,17.425001,19.562500,28.668,0.56936040,-0.01413103,-0.02743666,-0.82150854
'00:08:49.005,0.073242,0.015625,0.995605,1.158537,2.134146,-0.609756,-4.931250,17.425001,19.562500,28.714,0.56934606,-0.01409261,-0.02743660,-0.82151914
'00:08:49.014,0.072266,0.017578,1.001953,3.536585,4.634146,-0.853659,-5.293750,17.881250,19.875000,28.668,0.56931254,-0.01376394,-0.02746833,-0.82154688
'00:08:49.024,0.065918,0.023438,1.004395,4.390244,5.548780,-0.914634,-5.293750,17.881250,19.875000,28.699,0.56927367,-0.01323912,-0.02752676,-0.82158049
'00:08:49.034,0.062012,0.029297,1.010254,3.231707,4.268293,-0.792683,-5.081250,17.756250,19.768751,28.684,0.56925012,-0.01283611,-0.02759390,-0.82160094
'00:08:49.044,0.058105,0.032715,1.010742,0.182927,1.219512,-0.609756,-5.081250,17.756250,19.768751,28.668,0.56922897,-0.01277432,-0.02759737,-0.82161645
'00:08:49.059,0.060059,0.029297,1.007324,-3.109756,-2.256098,-0.243902,-4.837500,17.337500,19.531250,28.668,0.56923082,-0.01335048,-0.02750567,-0.82160908
'00:08:49.064,0.067871,0.023438,0.998047,-4.207317,-3.414634,-0.182927,-4.837500,17.337500,19.531250,28.684,0.56923149,-0.01364188,-0.02746505,-0.82160519
'00:08:49.074,0.072266,0.018066,0.994629,-2.621951,-1.707317,-0.304878,-4.900000,17.387501,19.575001,28.714,0.56922712,-0.01406183,-0.02739702,-0.82160341
'00:08:49.084,0.072754,0.016113,0.996582,0.121951,1.158537,-0.548781,-4.900000,17.387501,19.575001,28.714,0.56921521,-0.01414316,-0.02737412,-0.82161102
'00:08:49.094,0.071289,0.017578,0.998535,2.804878,3.841464,-0.792683,-4.868750,17.281250,19.493750,28.714,0.56919519,-0.01388352,-0.02741267,-0.82162803
'00:08:49.104,0.067871,0.021484,1.002930,4.085366,5.182927,-0.914634,-4.868750,17.281250,19.493750,28.684,0.56917097,-0.01343260,-0.02748362,-0.82164994
'00:08:49.114,0.062012,0.027832,1.012695,2.987805,4.085366,-0.853659,-5.043750,17.581251,19.631250,28.729,0.56914168,-0.01305655,-0.02753302,-0.82167463
'00:08:49.124,0.059570,0.030762,1.012695,-0.060976,0.853659,-0.548781,-5.125000,17.806250,19.825001,28.714,0.56912224,-0.01304403,-0.02752981,-0.82168840
'00:08:49.134,0.062500,0.028809,1.005859,-3.109756,-2.256098,-0.243902,-5.125000,17.806250,19.825001,28.744,0.56911402,-0.01343165,-0.02746527,-0.82169002
'00:08:49.144,0.068848,0.020996,0.998535,-3.841464,-2.987805,-0.182927,-4.887500,17.362501,19.512501,28.668,0.56911478,-0.01397659,-0.02737638,-0.82168337
'00:08:49.154,0.072266,0.017578,0.995605,-1.829268,-0.975610,-0.365854,-4.887500,17.362501,19.512501,28.668,0.56910925,-0.01430186,-0.02732750,-0.82168323
'00:08:49.164,0.071289,0.019531,0.997559,0.304878,1.219512,-0.548781,-4.868750,17.287500,19.543751,28.714,0.56909703,-0.01434568,-0.02732908,-0.82169088
'00:08:49.174,0.069336,0.021973,1.001465,1.280488,2.317073,-0.670732,-4.868750,17.287500,19.543751,28.684,0.56907949,-0.01424007,-0.02735097,-0.82170413
'00:08:49.184,0.068359,0.020996,1.004883,1.585366,2.621951,-0.731707,-4.900000,17.318750,19.550001,28.699,0.56905778,-0.01409493,-0.02736723,-0.82172113
'00:08:49.194,0.064941,0.024414,1.006836,0.914634,1.951220,-0.670732,-4.900000,17.318750,19.550001,28.668,0.56903777,-0.01400069,-0.02737406,-0.82173637
'00:08:49.204,0.064941,0.022949,1.004883,-0.121951,0.792683,-0.548781,-4.993750,17.400000,19.593750,28.623,0.56901843,-0.01404465,-0.02735125,-0.82174977
'00:08:49.214,0.067871,0.022949,1.000977,-0.365854,0.548781,-0.548781,-4.993750,17.400000,19.593750,28.729,0.56899806,-0.01413481,-0.02733619,-0.82176283
'00:08:49.225,0.067871,0.022461,1.000000,-0.304878,0.670732,-0.487805,-4.950000,17.400000,19.531250,28.729,0.56898440,-0.01422488,-0.02731920,-0.82177130
'00:08:49.234,0.068359,0.021973,1.000977,0.060976,1.036585,-0.548781,-4.950000,17.400000,19.531250,28.668,0.56897048,-0.01426125,-0.02731164,-0.82178056
'00:08:49.244,0.067383,0.023926,1.003418,-0.365854,0.548781,-0.487805,-4.956250,17.312500,19.562500,28.653,0.56895469,-0.01434222,-0.02730038,-0.82179046
'00:08:49.254,0.067383,0.022949,1.002930,-1.280488,-0.243902,-0.426829,-4.956250,17.312500,19.562500,28.699,0.56894035,-0.01452829,-0.02725761,-0.82179854
'00:08:49.264,0.071289,0.018555,1.000977,-0.731707,0.182927,-0.487805,-4.881250,17.343750,19.525000,28.668,0.56892976,-0.01469772,-0.02723124,-0.82180373
'00:08:49.274,0.071777,0.019043,1.000000,0.731707,1.707317,-0.670732,-4.881250,17.343750,19.525000,28.684,0.56891120,-0.01468351,-0.02723952,-0.82181656
'00:08:49.284,0.070801,0.019531,1.001953,1.951220,2.926829,-0.731707,-4.937500,17.300001,19.543751,28.699,0.56888785,-0.01450975,-0.02726743,-0.82183488
'00:08:49.294,0.067383,0.021973,1.003418,2.134146,3.231707,-0.731707,-4.937500,17.300001,19.543751,28.668,0.56886544,-0.01427902,-0.02729328,-0.82185358
'00:08:49.304,0.063965,0.026367,1.005859,1.280488,2.317073,-0.670732,-4.887500,17.350000,19.512501,28.668,0.56884855,-0.01412661,-0.02731927,-0.82186704
'00:08:49.314,0.061035,0.027832,1.006836,-1.036585,-0.121951,-0.487805,-4.887500,17.350000,19.512501,28.668,0.56883620,-0.01424422,-0.02729643,-0.82187431
'00:08:49.324,0.065430,0.023926,1.001953,-2.987805,-2.073171,-0.304878,-5.012500,17.512501,19.625000,28.699,0.56882529,-0.01463356,-0.02722142,-0.82187751
'00:08:49.334,0.070801,0.019043,0.996582,-2.804878,-1.890244,-0.304878,-5.012500,17.512501,19.625000,28.668,0.56881515,-0.01504491,-0.02714629,-0.82187959
'00:08:49.344,0.075684,0.012695,0.996582,-0.609756,0.487805,-0.487805,-5.062500,17.543751,19.675001,28.699,0.56879806,-0.01521851,-0.02709145,-0.82189003
'00:08:49.354,0.076172,0.014160,0.999023,2.560976,3.719512,-0.853659,-5.062500,17.543751,19.675001,28.638,0.56876612,-0.01499626,-0.02711374,-0.82191548
'00:08:49.364,0.069824,0.019531,1.002930,4.512195,5.670732,-1.036585,-4.900000,17.287500,19.543751,28.684,0.56873312,-0.01449062,-0.02718999,-0.82194487
'00:08:49.374,0.062988,0.026855,1.011230,3.536585,4.634146,-0.853659,-4.900000,17.287500,19.543751,28.699,0.56870913,-0.01404684,-0.02725901,-0.82196688
'00:08:49.384,0.058594,0.032715,1.012695,0.060976,1.036585,-0.548781,-4.893750,17.343750,19.556250,28.699,0.56869555,-0.01399388,-0.02727408,-0.82197668
'00:08:49.394,0.060547,0.028809,1.008301,-3.841464,-2.987805,-0.182927,-4.881250,17.312500,19.512501,28.699,0.56869492,-0.01445199,-0.02719605,-0.82197178
'00:08:49.404,0.067871,0.020508,0.998535,-5.365854,-4.573171,-0.121951,-4.881250,17.312500,19.512501,28.714,0.56869340,-0.01516874,-0.02707285,-0.82196398
'00:08:49.414,0.075195,0.013672,0.993164,-3.780488,-2.743902,-0.304878,-5.125000,17.500000,19.756250,28.744,0.56867219,-0.01572121,-0.02695086,-0.82197229
'00:08:49.424,0.077148,0.013672,0.994629,-0.853659,0.121951,-0.487805,-5.125000,17.500000,19.756250,28.699,0.56864776,-0.01592480,-0.02690476,-0.82198678
'00:08:49.434,0.076660,0.013184,0.999512,1.829268,2.926829,-0.792683,-5.162500,17.543751,19.781250,28.699,0.56861025,-0.01578673,-0.02690472,-0.82201539
'00:08:49.444,0.072754,0.018066,1.001465,3.902439,5.060976,-0.914634,-5.162500,17.543751,19.781250,28.638,0.56857136,-0.01535488,-0.02695942,-0.82204868
'00:08:49.454,0.068359,0.022461,1.004395,4.207317,5.304878,-0.914634,-4.937500,17.268751,19.537500,28.714,0.56854267,-0.01486383,-0.02704141,-0.82207485
'00:08:49.464,0.068359,0.022461,1.004395,4.207317,5.304878,-0.914634,-4.937500,17.268751,19.537500,28.714,0.56851466,-0.01438011,-0.02712301,-0.82210014
'00:08:49.474,0.066406,0.025391,1.004883,3.414634,4.573171,-0.853659,-4.925000,17.412500,19.543751,28.653,0.56849273,-0.01397599,-0.02719698,-0.82211983
'00:08:49.484,0.062988,0.026367,1.006348,1.829268,2.865854,-0.731707,-4.925000,17.412500,19.543751,28.668,0.56847414,-0.01375601,-0.02723318,-0.82213519
'00:08:49.494,0.062988,0.027832,1.008789,-0.670732,0.243902,-0.487805,-4.881250,17.268751,19.493750,28.729,0.56846362,-0.01384567,-0.02722699,-0.82214117
'00:08:49.504,0.066895,0.022949,1.001953,-2.195122,-1.280488,-0.365854,-4.881250,17.268751,19.493750,28.684,0.56845700,-0.01416184,-0.02717702,-0.82214201
'00:08:49.514,0.071777,0.017578,0.999023,-1.524390,-0.609756,-0.426829,-5.237500,17.743750,19.812500,28.668,0.56843525,-0.01442600,-0.02711611,-0.82215447
'00:08:49.524,0.073242,0.015625,0.999023,0.792683,1.768293,-0.609756,-5.237500,17.743750,19.812500,28.699,0.56840894,-0.01441584,-0.02709906,-0.82217340
'00:08:49.534,0.069824,0.019531,1.002441,2.378049,3.414634,-0.792683,-5.206250,17.706251,19.825001,28.714,0.56837597,-0.01417639,-0.02712325,-0.82219956
'00:08:49.544,0.067383,0.024414,1.004395,1.951220,2.926829,-0.731707,-5.206250,17.706251,19.825001,28.668,0.56834524,-0.01396444,-0.02715806,-0.82222328
'00:08:49.554,0.065918,0.024414,1.004395,0.670732,1.707317,-0.548781,-4.906250,17.262501,19.543751,28.684,0.56833407,-0.01390933,-0.02716830,-0.82223159
'00:08:49.566,0.067383,0.021973,1.001953,-1.158537,-0.304878,-0.426829,-4.906250,17.262501,19.543751,28.668,0.56832340,-0.01414844,-0.02713395,-0.82223603
'00:08:49.574,0.067383,0.021973,1.001953,-1.158537,-0.304878,-0.426829,-4.993750,17.362501,19.637501,28.668,0.56831290,-0.01430219,-0.02710755,-0.82224150
'00:08:49.584,0.068848,0.021484,1.001465,-1.280488,-0.426829,-0.426829,-4.993750,17.362501,19.637501,28.699,0.56829914,-0.01451697,-0.02707514,-0.82224831
'00:08:49.594,0.069336,0.019531,1.000000,-0.670732,0.243902,-0.487805,-4.987500,17.350000,19.543751,28.668,0.56828395,-0.01466078,-0.02704537,-0.82225724
'00:08:49.604,0.070312,0.020508,1.000977,0.304878,1.280488,-0.548781,-4.987500,17.350000,19.543751,28.729,0.56826768,-0.01468099,-0.02704339,-0.82226818
'00:08:49.614,0.069336,0.020020,1.002930,0.914634,1.951220,-0.609756,-4.900000,17.237501,19.456251,28.744,0.56825314,-0.01462202,-0.02704897,-0.82227910
'00:08:49.624,0.069824,0.018555,1.001953,1.707317,2.743902,-0.731707,-4.900000,17.237501,19.456251,28.623,0.56823313,-0.01447623,-0.02706630,-0.82229494
'00:08:49.635,0.068359,0.019531,1.002930,2.317073,3.414634,-0.792683,-5.231250,17.693750,19.825001,28.684,0.56819529,-0.01420524,-0.02708060,-0.82232534
'00:08:49.644,0.067871,0.021484,1.004883,2.073171,3.109756,-0.731707,-5.012500,17.468750,19.662500,28.699,0.56817616,-0.01401651,-0.02710788,-0.82234089
'00:08:49.654,0.065430,0.024414,1.003418,1.158537,2.134146,-0.731707,-5.012500,17.468750,19.662500,28.729,0.56815132,-0.01390053,-0.02712855,-0.82235935
'00:08:49.666,0.064453,0.027344,1.001953,-0.304878,0.731707,-0.548781,-4.906250,17.243750,19.550001,28.668,0.56813338,-0.01395493,-0.02713017,-0.82237076
'00:08:49.674,0.064453,0.027344,1.000977,-1.585366,-0.609756,-0.426829,-4.906250,17.243750,19.550001,28.668,0.56812458,-0.01411872,-0.02711110,-0.82237468
'00:08:49.684,0.069824,0.021973,1.001465,-2.012195,-1.036585,-0.365854,-4.937500,17.268751,19.475000,28.699,0.56811582,-0.01442192,-0.02706612,-0.82237695
'00:08:49.694,0.073730,0.015625,1.001465,-0.792683,0.182927,-0.487805,-4.937500,17.268751,19.475000,28.653,0.56810333,-0.01461813,-0.02702782,-0.82238337
'00:08:49.704,0.074219,0.013672,1.001465,1.463415,2.500000,-0.731707,-4.906250,17.281250,19.581251,28.699,0.56808374,-0.01454595,-0.02703036,-0.82239810
'00:08:49.714,0.073242,0.015137,1.000000,3.719512,4.817073,-0.914634,-4.906250,17.281250,19.581251,28.729,0.56805926,-0.01418625,-0.02708533,-0.82241949
'00:08:49.724,0.066895,0.021973,1.003418,4.878049,6.036585,-1.036585,-5.150000,17.637501,19.775000,28.699,0.56802130,-0.01361557,-0.02716569,-0.82245270
'00:08:49.734,0.061035,0.030762,1.007812,3.597561,4.756098,-0.853659,-5.150000,17.637501,19.775000,28.699,0.56799115,-0.01314189,-0.02724213,-0.82247870
'00:08:49.744,0.056152,0.034180,1.009766,-0.182927,0.792683,-0.548781,-4.912500,17.412500,19.575001,28.653,0.56798067,-0.01311550,-0.02725637,-0.82248588
'00:08:49.754,0.061523,0.029297,1.004883,-4.024390,-3.231707,-0.121951,-4.912500,17.412500,19.575001,28.684,0.56798762,-0.01361986,-0.02718887,-0.82247512
'00:08:49.764,0.071777,0.019043,0.997559,-4.695122,-3.841464,-0.121951,-4.956250,17.268751,19.537500,28.684,0.56798661,-0.01428761,-0.02708092,-0.82246805
'00:08:49.774,0.080566,0.008789,0.991211,-0.914634,0.060976,-0.487805,-4.956250,17.268751,19.537500,28.684,0.56797361,-0.01456537,-0.02703021,-0.82247383
'00:08:49.784,0.077148,0.010254,0.997070,4.390244,5.487805,-0.975610,-4.900000,17.337500,19.512501,28.668,0.56795020,-0.01416514,-0.02709129,-0.82249498
'00:08:49.794,0.064941,0.023926,1.007324,6.036585,7.195122,-1.097561,-4.900000,17.337500,19.512501,28.699,0.56792266,-0.01344488,-0.02721214,-0.82252209
'00:08:49.804,0.055664,0.036621,1.015625,2.439024,3.414634,-0.792683,-4.875000,17.343750,19.556250,28.638,0.56790419,-0.01308315,-0.02729591,-0.82253790
'00:08:49.814,0.055664,0.035156,1.012695,-3.353659,-2.560976,-0.243902,-4.875000,17.343750,19.556250,28.714,0.56790504,-0.01344969,-0.02725183,-0.82253286
'00:08:49.824,0.068848,0.023438,1.000000,-6.097561,-5.365854,0.000000,-5.025000,17.475000,19.637501,28.714,0.56790713,-0.01426431,-0.02713034,-0.82252171
'00:08:49.834,0.077148,0.013184,0.987305,-3.780488,-2.926829,-0.182927,-5.025000,17.475000,19.637501,28.714,0.56790473,-0.01486496,-0.02703391,-0.82251591
'00:08:49.844,0.081055,0.010254,0.991211,0.975610,2.073171,-0.609756,-5.093750,17.493750,19.706251,28.699,0.56788478,-0.01488814,-0.02702427,-0.82252958
'00:08:49.854,0.073730,0.015625,1.001953,4.512195,5.609756,-0.975610,-5.093750,17.493750,19.706251,28.729,0.56785091,-0.01441923,-0.02709193,-0.82255909
'00:08:49.865,0.066406,0.023438,1.010742,4.573171,5.670732,-0.975610,-4.943750,17.350000,19.593750,28.699,0.56782104,-0.01383086,-0.02719029,-0.82258657
'00:08:49.874,0.062988,0.027832,1.012695,2.012195,3.048780,-0.731707,-4.943750,17.350000,19.593750,28.714,0.56780406,-0.01360828,-0.02723137,-0.82260064
'00:08:49.884,0.063477,0.024902,1.003418,-0.243902,0.670732,-0.548781,-4.881250,17.381250,19.581251,28.653,0.56779596,-0.01366768,-0.02722719,-0.82260539
'00:08:49.894,0.064941,0.023926,1.000977,-1.341463,-0.548781,-0.426829,-4.881250,17.381250,19.581251,28.699,0.56779241,-0.01388097,-0.02720556,-0.82260498
'00:08:49.904,0.067871,0.023438,0.998535,-1.585366,-0.731707,-0.365854,-4.850000,17.287500,19.468750,28.668,0.56779241,-0.01413555,-0.02718533,-0.82260131
'00:08:49.914,0.070801,0.019043,0.998047,-0.609756,0.365854,-0.548781,-5.175000,17.756250,19.856251,28.699,0.56777129,-0.01427999,-0.02715319,-0.82261446
'00:08:49.924,0.070801,0.018555,1.001953,1.097561,2.134146,-0.609756,-5.175000,17.756250,19.856251,28.668,0.56775209,-0.01421160,-0.02715223,-0.82262893
'00:08:49.934,0.069336,0.019531,1.006348,1.951220,3.048780,-0.731707,-5.231250,17.743750,19.812500,28.699,0.56772369,-0.01401967,-0.02716153,-0.82265152
'00:08:49.945,0.067871,0.023438,1.006348,1.585366,2.621951,-0.731707,-5.231250,17.743750,19.812500,28.729,0.56769046,-0.01384045,-0.02718398,-0.82267674
'00:08:49.954,0.066895,0.024414,1.003906,0.670732,1.707317,-0.609756,-4.962500,17.431250,19.643751,28.684,0.56767825,-0.01379842,-0.02719823,-0.82268540
'00:08:49.964,0.066406,0.023926,1.001465,-0.182927,0.853659,-0.548781,-4.962500,17.431250,19.643751,28.699,0.56766619,-0.01385587,-0.02719121,-0.82269298
'00:08:49.974,0.065918,0.024902,1.001953,-0.975610,-0.060976,-0.487805,-4.906250,17.318750,19.537500,28.729,0.56765671,-0.01401230,-0.02717793,-0.82269732
'00:08:49.984,0.066895,0.023926,1.001953,-1.951220,-1.036585,-0.365854,-4.906250,17.318750,19.537500,28.729,0.56765236,-0.01429421,-0.02714099,-0.82269668
'00:08:49.994,0.070801,0.019043,1.003418,-2.012195,-1.097561,-0.365854,-4.875000,17.300001,19.543751,28.699,0.56764976,-0.01462115,-0.02709157,-0.82269437
'00:08:50.004,0.073730,0.014648,1.001465,-0.304878,0.731707,-0.548781,-4.875000,17.300001,19.543751,28.699,0.56764069,-0.01476059,-0.02706169,-0.82269912
'00:08:50.014,0.072266,0.015137,1.000977,2.073171,3.170732,-0.792683,-4.931250,17.331251,19.550001,28.699,0.56761969,-0.01459203,-0.02707605,-0.82271614
'00:08:50.024,0.067383,0.021973,1.001465,2.987805,4.146341,-0.853659,-4.931250,17.331251,19.550001,28.653,0.56759697,-0.01425735,-0.02712758,-0.82273599
'00:08:50.034,0.064453,0.025879,1.002930,2.195122,3.292683,-0.731707,-5.075000,17.525000,19.625000,28.714,0.56757455,-0.01399124,-0.02716789,-0.82275469
'00:08:50.044,0.061035,0.029297,1.004883,0.487805,1.463415,-0.609756,-5.075000,17.525000,19.625000,28.699,0.56755435,-0.01391245,-0.02718130,-0.82276952
'00:08:50.054,0.063477,0.028320,1.003906,-1.951220,-1.036585,-0.365854,-5.156250,17.687500,19.787500,28.714,0.56754086,-0.01415110,-0.02714477,-0.82277596
'00:08:50.064,0.069824,0.020508,1.001465,-2.804878,-1.890244,-0.304878,-5.156250,17.687500,19.787500,28.699,0.56752961,-0.01455519,-0.02707094,-0.82277910
'00:08:50.074,0.076172,0.013672,0.999512,-1.280488,-0.365854,-0.426829,-4.912500,17.237501,19.543751,28.668,0.56752196,-0.01483753,-0.02702612,-0.82278081
'00:08:50.084,0.074707,0.014648,1.000000,1.402439,2.439024,-0.731707,-4.912500,17.237501,19.543751,28.668,0.56750201,-0.01476940,-0.02703536,-0.82279549
'00:08:50.094,0.070312,0.020020,1.003418,2.987805,4.085366,-0.792683,-4.881250,17.250000,19.512501,28.684,0.56748552,-0.01446197,-0.02709206,-0.82281046
'00:08:50.104,0.065430,0.023926,1.007812,2.439024,3.414634,-0.792683,-4.881250,17.250000,19.512501,28.684,0.56746670,-0.01419090,-0.02714389,-0.82282645
'00:08:50.114,0.062500,0.025879,1.007324,0.182927,1.097561,-0.548781,-4.893750,17.256250,19.550001,28.623,0.56745641,-0.01417777,-0.02714692,-0.82283368
'00:08:50.124,0.062988,0.026367,1.001953,-1.951220,-1.097561,-0.365854,-4.893750,17.256250,19.550001,28.744,0.56745125,-0.01443050,-0.02711201,-0.82283399
'00:08:50.134,0.065430,0.024414,0.999512,-2.926829,-2.073171,-0.304878,-4.962500,17.300001,19.575001,28.714,0.56744305,-0.01481659,-0.02705032,-0.82283482
'00:08:50.144,0.071777,0.019531,0.999023,-2.439024,-1.524390,-0.304878,-4.962500,17.300001,19.575001,28.759,0.56743681,-0.01518774,-0.02699376,-0.82283421
'00:08:50.154,0.074707,0.014648,0.998047,-0.487805,0.548781,-0.548781,-4.981250,17.343750,19.537500,28.668,0.56742072,-0.01534174,-0.02695914,-0.82284358
'00:08:50.164,0.073242,0.015137,0.998535,1.890244,2.926829,-0.792683,-4.981250,17.343750,19.537500,28.668,0.56739574,-0.01519490,-0.02697511,-0.82286301
'00:08:50.174,0.069824,0.018555,1.003906,3.048780,4.146341,-0.853659,-4.943750,17.268751,19.550001,28.744,0.56737125,-0.01487333,-0.02701904,-0.82288433
'00:08:50.184,0.065430,0.024902,1.008301,2.317073,3.353659,-0.731707,-4.925000,17.262501,19.562500,28.759,0.56735323,-0.01460072,-0.02706802,-0.82290003
'00:08:50.194,0.063477,0.028809,1.009277,-0.609756,0.304878,-0.487805,-4.925000,17.262501,19.562500,28.699,0.56734148,-0.01466978,-0.02707145,-0.82290679
'00:08:50.204,0.063477,0.028809,1.009277,-0.609756,0.304878,-0.487805,-4.900000,17.200001,19.531250,28.699,0.56732995,-0.01473822,-0.02707525,-0.82291339
'00:08:50.214,0.064941,0.026367,1.003906,-3.414634,-2.560976,-0.243902,-4.900000,17.200001,19.531250,28.684,0.56732579,-0.01516976,-0.02701305,-0.82291045
'00:08:50.224,0.076660,0.012695,0.992676,-1.097561,-0.182927,-0.426829,-5.206250,17.518751,19.718750,28.653,0.56730524,-0.01541586,-0.02695645,-0.82292191
'00:08:50.234,0.076660,0.012695,0.992676,-1.097561,-0.182927,-0.426829,-5.206250,17.518751,19.718750,28.653,0.56728438,-0.01565855,-0.02690041,-0.82293354
'00:08:50.244,0.076172,0.014160,0.997070,2.439024,3.536585,-0.792683,-5.206250,17.587500,19.862501,28.653,0.56725134,-0.01544724,-0.02692107,-0.82295963
'00:08:50.254,0.069824,0.019531,1.005371,3.841464,4.939024,-0.914634,-5.206250,17.587500,19.862501,28.668,0.56721435,-0.01501179,-0.02697596,-0.82299139
'00:08:50.265,0.066406,0.022949,1.008789,2.865854,3.963415,-0.792683,-5.006250,17.393751,19.631250,28.729,0.56718998,-0.01464337,-0.02702949,-0.82301307
'00:08:50.274,0.063477,0.026367,1.009277,0.792683,1.707317,-0.670732,-5.006250,17.393751,19.631250,28.684,0.56717075,-0.01455843,-0.02704657,-0.82302726
'00:08:50.284,0.064941,0.026855,1.006836,-1.951220,-1.036585,-0.426829,-4.956250,17.275000,19.512501,28.729,0.56715791,-0.01480625,-0.02701449,-0.82303274
'00:08:50.294,0.068848,0.020996,1.001465,-3.170732,-2.317073,-0.243902,-4.956250,17.275000,19.512501,28.729,0.56715417,-0.01524897,-0.02694210,-0.82302961
'00:08:50.305,0.072754,0.018066,0.996094,-2.256098,-1.402439,-0.365854,-4.962500,17.200001,19.575001,28.699,0.56714092,-0.01564315,-0.02688322,-0.82303327
'00:08:50.314,0.073242,0.018555,0.995605,-0.792683,0.182927,-0.487805,-4.962500,17.200001,19.575001,28.668,0.56712668,-0.01579360,-0.02686378,-0.82304084
'00:08:50.324,0.074707,0.015625,1.000488,0.670732,1.646341,-0.609756,-4.962500,17.156250,19.600000,28.714,0.56710675,-0.01579815,-0.02686105,-0.82305457
'00:08:50.334,0.073730,0.014648,1.001953,2.012195,3.048780,-0.670732,-4.962500,17.156250,19.600000,28.714,0.56708790,-0.01563356,-0.02687560,-0.82307023
'00:08:50.346,0.070312,0.020020,1.003418,2.560976,3.658537,-0.792683,-5.387500,17.887501,20.000000,28.699,0.56704256,-0.01528994,-0.02690734,-0.82310689
'00:08:50.354,0.065430,0.024414,1.006836,1.646341,2.621951,-0.731707,-5.387500,17.887501,20.000000,28.653,0.56701285,-0.01512566,-0.02692071,-0.82312995
'00:08:50.364,0.066406,0.023438,1.007324,-0.060976,0.853659,-0.548781,-5.131250,17.556250,19.781250,28.699,0.56699246,-0.01515211,-0.02691160,-0.82314381
'00:08:50.374,0.066895,0.022461,1.004883,-1.524390,-0.670732,-0.365854,-5.131250,17.556250,19.781250,28.714,0.56697987,-0.01536749,-0.02687008,-0.82314985
'00:08:50.385,0.069336,0.020996,1.000488,-2.378049,-1.463415,-0.304878,-4.950000,17.218750,19.550001,28.699,0.56697272,-0.01573826,-0.02681008,-0.82314972
'00:08:50.394,0.073730,0.018066,0.996582,-1.829268,-0.853659,-0.365854,-4.950000,17.218750,19.550001,28.684,0.56696465,-0.01600594,-0.02677128,-0.82315138
'00:08:50.404,0.074219,0.014160,0.997070,0.365854,1.341463,-0.548781,-4.968750,17.193750,19.550001,28.729,0.56694925,-0.01604904,-0.02675514,-0.82316167
'00:08:50.414,0.073242,0.015137,1.000000,2.682927,3.780488,-0.792683,-4.968750,17.193750,19.550001,28.653,0.56692516,-0.01579138,-0.02678599,-0.82318225
'00:08:50.425,0.069824,0.019531,1.007324,3.292683,4.329268,-0.853659,-4.906250,17.181250,19.462500,28.699,0.56690064,-0.01539754,-0.02685350,-0.82320439
'00:08:50.434,0.067383,0.023926,1.010742,1.585366,2.621951,-0.670732,-4.906250,17.181250,19.462500,28.744,0.56688661,-0.01523880,-0.02688660,-0.82321593
'00:08:50.444,0.067383,0.023926,1.006348,-0.487805,0.487805,-0.487805,-5.418750,17.925001,19.987501,28.668,0.56685874,-0.01530531,-0.02685975,-0.82323476
'00:08:50.455,0.068848,0.020996,1.001953,-1.768293,-0.792683,-0.365854,-5.125000,17.443750,19.718750,28.699,0.56684242,-0.01558044,-0.02680048,-0.82324277
'00:08:50.466,0.070312,0.020020,0.998047,-2.012195,-1.097561,-0.365854,-5.125000,17.443750,19.718750,28.729,0.56682466,-0.01590278,-0.02674086,-0.82325077
'00:08:50.474,0.072754,0.018066,0.997070,-1.219512,-0.304878,-0.487805,-5.050000,17.237501,19.512501,28.684,0.56680762,-0.01607414,-0.02671196,-0.82326011
'00:08:50.484,0.073242,0.015625,1.000488,0.182927,1.097561,-0.548781,-5.050000,17.237501,19.512501,28.699,0.56678748,-0.01612661,-0.02669445,-0.82327352
'00:08:50.494,0.072754,0.015625,1.001953,1.585366,2.682927,-0.731707,-5.031250,17.175001,19.543751,28.714,0.56675949,-0.01599219,-0.02669701,-0.82329533
'00:08:50.506,0.070801,0.017578,1.001953,2.500000,3.597561,-0.792683,-5.031250,17.175001,19.543751,28.684,0.56672473,-0.01567850,-0.02672925,-0.82332425
'00:08:50.514,0.069824,0.020020,1.004883,2.378049,3.414634,-0.792683,-4.968750,17.218750,19.506250,28.668,0.56670550,-0.01547928,-0.02676311,-0.82334015
'00:08:50.524,0.065430,0.025391,1.008789,0.975610,1.951220,-0.609756,-4.968750,17.218750,19.506250,28.668,0.56668879,-0.01536180,-0.02678861,-0.82335302
'00:08:50.534,0.065430,0.025391,1.010254,-1.524390,-0.609756,-0.426829,-5.143750,17.493750,19.706251,28.729,0.56667024,-0.01554813,-0.02675308,-0.82336345
'00:08:50.545,0.066895,0.023438,1.004883,-3.536585,-2.682927,-0.182927,-5.143750,17.493750,19.706251,28.699,0.56666079,-0.01604245,-0.02666417,-0.82336335
'00:08:50.554,0.073730,0.016602,1.000000,-4.024390,-3.170732,-0.182927,-5.331250,17.587500,19.831251,28.699,0.56664233,-0.01654363,-0.02656218,-0.82336944
'00:08:50.565,0.076660,0.012695,0.997070,-2.804878,-1.890244,-0.304878,-5.331250,17.587500,19.831251,28.699,0.56661520,-0.01701482,-0.02645507,-0.82338195
'00:08:50.574,0.078125,0.010742,0.994629,-0.304878,0.609756,-0.487805,-5.068750,17.193750,19.568750,28.668,0.56659710,-0.01714457,-0.02642382,-0.82339272
'00:08:50.586,0.079102,0.012207,0.993164,2.865854,3.902439,-0.792683,-5.068750,17.193750,19.568750,28.653,0.56656088,-0.01684327,-0.02647596,-0.82342218
'00:08:50.594,0.073730,0.017090,0.998047,5.243903,6.524390,-1.036585,-5.025000,17.218750,19.568750,28.714,0.56653299,-0.01636383,-0.02655115,-0.82344862
'00:08:50.604,0.067871,0.021973,1.004883,5.548780,6.768293,-1.036585,-5.025000,17.218750,19.568750,28.729,0.56649908,-0.01568597,-0.02665716,-0.82348172
'00:08:50.614,0.063477,0.025391,1.009277,3.536585,4.695122,-0.914634,-4.943750,17.200001,19.500000,28.668,0.56647215,-0.01523205,-0.02672738,-0.82350649
'00:08:50.626,0.063965,0.026855,1.009766,0.548781,1.585366,-0.548781,-4.943750,17.200001,19.500000,28.699,0.56645834,-0.01513784,-0.02674956,-0.82351700
'00:08:50.634,0.067871,0.020508,1.006836,-1.524390,-0.609756,-0.426829,-4.956250,17.268751,19.600000,28.699,0.56645117,-0.01532260,-0.02671635,-0.82351960
'00:08:50.644,0.073242,0.016602,1.000000,-1.280488,-0.365854,-0.426829,-4.956250,17.268751,19.600000,28.699,0.56644322,-0.01556792,-0.02668158,-0.82352159
'00:08:50.654,0.073730,0.015625,0.995605,0.548781,1.463415,-0.609756,-5.256250,17.706251,19.887501,28.729,0.56641825,-0.01558390,-0.02667396,-0.82353871
'00:08:50.666,0.069824,0.020996,1.002441,1.707317,2.743902,-0.731707,-5.068750,17.375000,19.606251,28.714,0.56638887,-0.01537795,-0.02671202,-0.82356155
'00:08:50.674,0.066895,0.024414,1.004395,1.280488,2.317073,-0.670732,-5.068750,17.375000,19.606251,28.744,0.56637140,-0.01526071,-0.02673537,-0.82357499
'00:08:50.684,0.067383,0.021484,1.004395,0.121951,1.158537,-0.548781,-5.068750,17.375000,19.606251,28.699,0.56635487,-0.01527062,-0.02672375,-0.82358655
'00:08:50.694,0.070801,0.018555,1.001953,-0.426829,0.609756,-0.487805,-4.893750,17.225000,19.487501,28.774,0.56634979,-0.01538602,-0.02670753,-0.82358842
'00:08:50.704,0.073730,0.016113,1.000000,0.548781,1.585366,-0.609756,-4.925000,17.150000,19.531250,28.684,0.56633552,-0.01540452,-0.02670703,-0.82359791
'00:08:50.714,0.071289,0.017090,1.000488,2.012195,3.109756,-0.731707,-4.925000,17.150000,19.531250,28.729,0.56631798,-0.01522355,-0.02673251,-0.82361250
'00:08:50.724,0.068359,0.022949,1.004883,2.317073,3.353659,-0.792683,-4.912500,17.325001,19.593750,28.714,0.56630119,-0.01497565,-0.02679354,-0.82362661
'00:08:50.734,0.065918,0.024902,1.004395,1.036585,2.073171,-0.670732,-4.912500,17.325001,19.593750,28.684,0.56628859,-0.01486580,-0.02682709,-0.82363617
'00:08:50.746,0.066895,0.023438,1.002441,-0.243902,0.731707,-0.548781,-5.187500,17.718750,19.812500,28.699,0.56626693,-0.01493004,-0.02681692,-0.82365023
'00:08:50.754,0.070801,0.020020,1.000977,-0.426829,0.548781,-0.548781,-5.187500,17.718750,19.812500,28.668,0.56625231,-0.01501762,-0.02680396,-0.82365911
'00:08:50.764,0.073242,0.016602,0.999512,0.731707,1.768293,-0.609756,-5.218750,17.681250,19.793751,28.714,0.56623166,-0.01500496,-0.02679853,-0.82367372
'00:08:50.774,0.071777,0.019531,0.999512,1.951220,3.048780,-0.731707,-5.218750,17.681250,19.793751,28.699,0.56620640,-0.01482126,-0.02682850,-0.82369343
'00:08:50.786,0.068359,0.022461,1.004883,2.012195,3.048780,-0.792683,-4.956250,17.312500,19.512501,28.714,0.56618255,-0.01457430,-0.02688528,-0.82371239
'00:08:50.794,0.065430,0.022949,1.008789,1.219512,2.256098,-0.670732,-4.956250,17.312500,19.512501,28.714,0.56617175,-0.01447435,-0.02690053,-0.82372107
'00:08:50.804,0.064453,0.023926,1.007324,-0.365854,0.548781,-0.548781,-4.937500,17.306250,19.581251,28.729,0.56616185,-0.01454440,-0.02689328,-0.82372688
'00:08:50.814,0.065918,0.023926,1.003418,-2.012195,-1.158537,-0.365854,-4.937500,17.306250,19.581251,28.684,0.56615876,-0.01482692,-0.02685900,-0.82372508
'00:08:50.825,0.070801,0.018555,0.998535,-1.890244,-0.914634,-0.365854,-4.906250,17.312500,19.575001,28.699,0.56615901,-0.01516372,-0.02680975,-0.82372038
'00:08:50.834,0.074707,0.016602,0.995605,0.243902,1.219512,-0.609756,-4.906250,17.312500,19.575001,28.729,0.56615007,-0.01522838,-0.02681752,-0.82372509
'00:08:50.844,0.072266,0.017578,0.996094,2.500000,3.719512,-0.792683,-5.225000,17.712500,19.806250,28.699,0.56612322,-0.01497739,-0.02684607,-0.82374721
'00:08:50.854,0.068848,0.021973,1.002930,3.109756,4.268293,-0.853659,-5.225000,17.712500,19.806250,28.729,0.56609381,-0.01462334,-0.02690039,-0.82377201
'00:08:50.866,0.066406,0.023926,1.005859,2.195122,3.231707,-0.731707,-5.443750,18.025000,20.075001,28.699,0.56605584,-0.01431460,-0.02693757,-0.82380231
'00:08:50.874,0.066895,0.022949,1.006836,0.853659,1.890244,-0.670732,-5.443750,18.025000,20.075001,28.668,0.56603075,-0.01424729,-0.02693513,-0.82382079
'00:08:50.884,0.066406,0.022949,1.005859,-0.121951,0.914634,-0.548781,-4.912500,17.325001,19.531250,28.699,0.56602527,-0.01429956,-0.02693272,-0.82382373
'00:08:50.894,0.067383,0.021484,1.003418,-0.609756,0.426829,-0.548781,-4.912500,17.325001,19.531250,28.653,0.56601817,-0.01442195,-0.02691568,-0.82382703
'00:08:50.906,0.070312,0.019531,1.000488,-0.243902,0.731707,-0.548781,-4.875000,17.243750,19.537500,28.684,0.56601175,-0.01454978,-0.02691137,-0.82382934
'00:08:50.916,0.070801,0.019043,0.999512,0.731707,1.768293,-0.609756,-4.875000,17.243750,19.537500,28.759,0.56600555,-0.01453658,-0.02692612,-0.82383335
'00:08:50.924,0.068848,0.021973,0.999023,1.585366,2.743902,-0.731707,-4.875000,17.350000,19.487501,28.699,0.56599814,-0.01441948,-0.02695814,-0.82383945
'00:08:50.934,0.067871,0.024414,1.000488,1.829268,2.926829,-0.670732,-4.875000,17.350000,19.487501,28.729,0.56599373,-0.01423447,-0.02701585,-0.82384381
'00:08:50.946,0.066895,0.022461,1.002930,1.524390,2.560976,-0.731707,-4.818750,17.287500,19.456251,28.668,0.56598559,-0.01407008,-0.02706452,-0.82385063
'00:08:50.954,0.068848,0.023438,1.000488,1.524390,2.621951,-0.670732,-4.818750,17.287500,19.456251,28.729,0.56598365,-0.01396513,-0.02710533,-0.82385241
'00:08:50.964,0.068848,0.023438,1.000488,1.524390,2.621951,-0.670732,-5.231250,17.856251,19.856251,28.729,0.56596560,-0.01381968,-0.02713680,-0.82386622
'00:08:50.974,0.068359,0.021973,1.010254,2.134146,3.170732,-0.731707,-5.006250,17.543751,19.643751,28.684,0.56595417,-0.01361535,-0.02718109,-0.82387601
'00:08:50.985,0.066895,0.022949,0.999023,2.500000,3.536585,-0.731707,-5.006250,17.543751,19.643751,28.714,0.56594312,-0.01333570,-0.02724311,-0.82388613
'00:08:50.994,0.065918,0.022461,1.004395,2.621951,3.658537,-0.792683,-4.893750,17.437500,19.518751,28.729,0.56593613,-0.01309722,-0.02729406,-0.82389307
'00:08:51.004,0.063965,0.025879,1.003906,2.195122,3.292683,-0.792683,-4.893750,17.437500,19.518751,28.699,0.56592673,-0.01285911,-0.02734976,-0.82390144
'00:08:51.014,0.064453,0.026855,1.004395,1.463415,2.560976,-0.670732,-4.862500,17.406250,19.506250,28.699,0.56592508,-0.01271368,-0.02739739,-0.82390324
'00:08:51.025,0.064453,0.027344,1.001953,0.426829,1.463415,-0.609756,-4.862500,17.406250,19.506250,28.714,0.56592398,-0.01269775,-0.02743093,-0.82390312
'00:08:51.034,0.066895,0.025391,1.003906,-0.365854,0.670732,-0.548781,-4.887500,17.425001,19.575001,28.699,0.56592335,-0.01278912,-0.02743798,-0.82390191
'00:08:51.044,0.066895,0.021973,1.003906,-0.365854,0.609756,-0.548781,-4.887500,17.425001,19.575001,28.729,0.56592302,-0.01290701,-0.02742911,-0.82390059
'00:08:51.054,0.068359,0.020020,1.003418,0.487805,1.524390,-0.548781,-5.093750,17.781250,19.812500,28.714,0.56591951,-0.01292367,-0.02742350,-0.82390293
'00:08:51.064,0.068359,0.021484,0.999512,1.524390,2.682927,-0.731707,-5.093750,17.781250,19.812500,28.729,0.56590646,-0.01280083,-0.02744514,-0.82391309
'00:08:51.074,0.065918,0.022949,1.003906,2.439024,3.475610,-0.731707,-5.187500,17.831251,19.768751,28.668,0.56589155,-0.01255266,-0.02748491,-0.82392582
'00:08:51.084,0.062012,0.026367,1.003418,2.500000,3.536585,-0.792683,-5.187500,17.831251,19.768751,28.759,0.56587231,-0.01226646,-0.02753039,-0.82394183
'00:08:51.094,0.060059,0.028809,1.004395,1.646341,2.682927,-0.731707,-4.850000,17.437500,19.500000,28.789,0.56586913,-0.01208091,-0.02757949,-0.82394511
'00:08:51.106,0.060059,0.028809,1.004883,0.060976,1.036585,-0.548781,-4.850000,17.437500,19.500000,28.729,0.56587464,-0.01209773,-0.02759818,-0.82394046
'00:08:51.114,0.064941,0.025391,1.001465,-0.670732,0.365854,-0.548781,-4.831250,17.450001,19.487501,28.714,0.56587797,-0.01221043,-0.02759671,-0.82393656
'00:08:51.124,0.069824,0.020508,0.997559,0.365854,1.402439,-0.609756,-4.831250,17.450001,19.487501,28.729,0.56588174,-0.01227070,-0.02761039,-0.82393261
'00:08:51.134,0.067871,0.022949,0.997559,2.012195,3.170732,-0.792683,-4.793750,17.437500,19.468750,28.699,0.56588028,-0.01210339,-0.02766414,-0.82393429
'00:08:51.144,0.064453,0.027344,1.003906,2.439024,3.597561,-0.792683,-4.793750,17.437500,19.468750,28.699,0.56587988,-0.01184898,-0.02773646,-0.82393583
'00:08:51.154,0.061035,0.028809,1.008301,1.219512,2.256098,-0.670732,-5.068750,17.893751,19.781250,28.699,0.56587466,-0.01172013,-0.02776868,-0.82394017
'00:08:51.164,0.064453,0.024414,1.008789,0.060976,1.036585,-0.609756,-5.068750,17.893751,19.781250,28.714,0.56587061,-0.01177349,-0.02776567,-0.82394230
'00:08:51.174,0.065430,0.021973,1.002441,0.182927,1.097561,-0.548781,-5.175000,17.993750,19.875000,28.714,0.56586642,-0.01182733,-0.02775505,-0.82394476
'00:08:51.187,0.065918,0.025391,1.000000,0.853659,1.890244,-0.670732,-4.793750,17.468750,19.462500,28.668,0.56587162,-0.01178576,-0.02780482,-0.82394011
'00:08:51.194,0.062012,0.026855,1.002930,1.097561,2.134146,-0.670732,-4.793750,17.468750,19.462500,28.699,0.56587499,-0.01172332,-0.02782950,-0.82393785
'00:08:51.204,0.062012,0.027832,1.002930,0.670732,1.768293,-0.609756,-4.793750,17.468750,19.462500,28.744,0.56588269,-0.01167867,-0.02785736,-0.82393225
'00:08:51.214,0.062988,0.024902,1.002441,0.548781,1.585366,-0.609756,-4.812500,17.425001,19.518751,28.684,0.56588778,-0.01166936,-0.02786955,-0.82392848
'00:08:51.226,0.064453,0.024414,0.998535,0.975610,2.073171,-0.609756,-4.781250,17.487501,19.531250,28.684,0.56590012,-0.01160777,-0.02790188,-0.82391978
'00:08:51.236,0.062500,0.025879,1.002441,1.158537,2.256098,-0.670732,-4.781250,17.487501,19.531250,28.729,0.56590654,-0.01151729,-0.02793188,-0.82391562
'00:08:51.244,0.062988,0.027344,1.004395,0.914634,1.951220,-0.609756,-4.987500,17.818750,19.693750,28.714,0.56590855,-0.01146418,-0.02795422,-0.82391422
'00:08:51.254,0.063965,0.025879,1.004395,0.670732,1.707317,-0.609756,-4.987500,17.818750,19.693750,28.699,0.56591053,-0.01143914,-0.02797183,-0.82391262
'00:08:51.266,0.064941,0.027344,1.002930,0.609756,1.707317,-0.609756,-5.087500,17.937500,19.818750,28.699,0.56590704,-0.01140829,-0.02799629,-0.82391461
'00:08:51.274,0.063477,0.026367,1.001953,0.548781,1.585366,-0.548781,-5.087500,17.937500,19.818750,28.714,0.56590817,-0.01139443,-0.02800510,-0.82391373
'00:08:51.284,0.064941,0.025391,1.000000,0.609756,1.646341,-0.609756,-4.987500,17.793751,19.706251,28.684,0.56590933,-0.01138579,-0.02802268,-0.82391245
'00:08:51.294,0.064941,0.024414,1.000000,1.097561,2.195122,-0.670732,-4.987500,17.793751,19.706251,28.668,0.56590811,-0.01131741,-0.02804248,-0.82391355
'00:08:51.307,0.063965,0.026367,1.001465,1.646341,2.743902,-0.731707,-4.825000,17.543751,19.568750,28.714,0.56591051,-0.01113418,-0.02810201,-0.82391237
'00:08:51.314,0.061523,0.028320,1.002930,1.585366,2.743902,-0.731707,-4.825000,17.543751,19.568750,28.684,0.56591174,-0.01102428,-0.02813139,-0.82391201
'00:08:51.324,0.060059,0.027832,1.004883,1.341463,2.439024,-0.731707,-4.750000,17.581251,19.450001,28.744,0.56591956,-0.01090105,-0.02816843,-0.82390701
'00:08:51.334,0.061523,0.028809,1.004395,1.097561,2.134146,-0.670732,-4.750000,17.581251,19.450001,28.684,0.56593059,-0.01081811,-0.02821393,-0.82389897
'00:08:51.344,0.060059,0.028320,1.004395,0.609756,1.646341,-0.609756,-4.775000,17.568750,19.506250,28.714,0.56594227,-0.01078779,-0.02823693,-0.82389056
'00:08:51.354,0.060547,0.028320,1.003418,0.121951,1.097561,-0.609756,-4.775000,17.568750,19.506250,28.714,0.56595206,-0.01082429,-0.02825386,-0.82388277
'00:08:51.364,0.061523,0.027344,1.000977,0.000000,0.975610,-0.609756,-5.018750,17.900000,19.681250,28.714,0.56595170,-0.01087480,-0.02825533,-0.82388230
'00:08:51.375,0.062500,0.027832,1.000977,0.426829,1.402439,-0.609756,-5.018750,17.900000,19.681250,28.684,0.56595263,-0.01087643,-0.02827447,-0.82388099
'00:08:51.384,0.064941,0.025879,0.999512,0.731707,1.768293,-0.609756,-5.162500,18.056250,19.906250,28.684,0.56594849,-0.01085439,-0.02828544,-0.82388374
'00:08:51.394,0.063965,0.025391,1.001465,0.975610,2.012195,-0.609756,-5.162500,18.056250,19.906250,28.668,0.56594492,-0.01079678,-0.02829582,-0.82388660
'00:08:51.404,0.062988,0.028320,1.003906,0.853659,1.951220,-0.609756,-4.768750,17.581251,19.537500,28.668,0.56595781,-0.01074977,-0.02833216,-0.82387710
'00:08:51.414,0.062012,0.027832,1.005371,0.548781,1.585366,-0.670732,-4.768750,17.581251,19.537500,28.714,0.56596531,-0.01074073,-0.02835700,-0.82387122
'00:08:51.424,0.061035,0.027832,1.004883,0.426829,1.402439,-0.548781,-4.725000,17.481251,19.506250,28.699,0.56598185,-0.01074724,-0.02837918,-0.82385901
'00:08:51.434,0.061035,0.027832,1.003418,0.304878,1.280488,-0.609756,-4.725000,17.481251,19.506250,28.699,0.56599346,-0.01076851,-0.02839882,-0.82385007
'00:08:51.444,0.061035,0.027344,1.002930,0.304878,1.280488,-0.609756,-4.718750,17.512501,19.518751,28.638,0.56600621,-0.01079233,-0.02841665,-0.82384039
'00:08:51.454,0.060547,0.027832,1.002441,0.426829,1.341463,-0.609756,-4.718750,17.512501,19.518751,28.684,0.56601903,-0.01080072,-0.02844096,-0.82383063
'00:08:51.464,0.061523,0.028320,1.001953,0.243902,1.280488,-0.548781,-4.931250,17.768751,19.675001,28.729,0.56602622,-0.01081677,-0.02845038,-0.82382516
'00:08:51.474,0.062012,0.027832,1.003418,-0.060976,0.853659,-0.548781,-4.931250,17.768751,19.675001,28.699,0.56603208,-0.01088251,-0.02845727,-0.82382003
'00:08:51.484,0.062988,0.026855,1.000488,-0.304878,0.670732,-0.548781,-5.112500,18.081251,19.875000,28.744,0.56603149,-0.01097612,-0.02844798,-0.82381951
'00:08:51.494,0.062012,0.027832,1.001465,-0.182927,0.731707,-0.548781,-4.706250,17.606251,19.450001,28.653,0.56604944,-0.01106582,-0.02846700,-0.82380532
'00:08:51.504,0.062012,0.027344,1.001953,0.060976,1.036585,-0.548781,-4.706250,17.606251,19.450001,28.714,0.56606823,-0.01112195,-0.02848496,-0.82379103
'00:08:51.514,0.062500,0.027344,1.003906,0.182927,1.219512,-0.548781,-4.793750,17.575001,19.562500,28.759,0.56607997,-0.01115465,-0.02849538,-0.82378217
'00:08:51.524,0.062012,0.027832,1.004883,-0.304878,0.670732,-0.487805,-4.793750,17.575001,19.562500,28.759,0.56609406,-0.01124555,-0.02849806,-0.82377116
'00:08:51.534,0.062012,0.027344,1.003418,-1.097561,-0.243902,-0.487805,-4.756250,17.450001,19.500000,28.744,0.56610487,-0.01144256,-0.02848658,-0.82376141
'00:08:51.544,0.063965,0.025391,1.002441,-1.219512,-0.304878,-0.426829,-4.756250,17.450001,19.500000,28.684,0.56611966,-0.01166599,-0.02846582,-0.82374883
'00:08:51.554,0.066895,0.024902,0.999023,-0.121951,0.853659,-0.548781,-4.981250,17.793751,19.675001,28.668,0.56612107,-0.01175814,-0.02846686,-0.82374651
'00:08:51.564,0.062988,0.025879,1.001953,0.792683,1.768293,-0.609756,-4.981250,17.793751,19.675001,28.714,0.56612117,-0.01171205,-0.02847781,-0.82374672
'00:08:51.574,0.060059,0.027832,1.003418,0.670732,1.585366,-0.609756,-5.056250,17.912500,19.775000,28.699,0.56611780,-0.01165915,-0.02848510,-0.82374954
'00:08:51.584,0.060547,0.026367,1.002930,0.121951,1.036585,-0.609756,-5.056250,17.912500,19.775000,28.668,0.56611288,-0.01168203,-0.02847386,-0.82375298
'00:08:51.594,0.062988,0.024902,1.002441,0.182927,1.158537,-0.548781,-4.900000,17.675001,19.575001,28.684,0.56611875,-0.01171786,-0.02846896,-0.82374861
'00:08:51.604,0.063965,0.025391,1.003906,0.548781,1.585366,-0.609756,-4.900000,17.675001,19.575001,28.759,0.56612144,-0.01170738,-0.02847529,-0.82374669
'00:08:51.614,0.064453,0.026367,1.003906,0.487805,1.585366,-0.609756,-4.781250,17.568750,19.525000,28.699,0.56612977,-0.01170478,-0.02849145,-0.82374045
'00:08:51.624,0.062012,0.027344,1.004883,0.121951,1.036585,-0.548781,-4.781250,17.568750,19.525000,28.729,0.56614064,-0.01174212,-0.02850385,-0.82373201
'00:08:51.634,0.063477,0.026367,1.002930,-0.182927,0.731707,-0.487805,-4.750000,17.475000,19.468750,28.714,0.56615499,-0.01182895,-0.02851022,-0.82372069
'00:08:51.644,0.064453,0.026367,1.001465,0.000000,0.975610,-0.548781,-4.750000,17.475000,19.468750,28.653,0.56616545,-0.01189352,-0.02852182,-0.82371217
'00:08:51.654,0.064453,0.025391,1.001465,0.304878,1.341463,-0.670732,-4.781250,17.512501,19.487501,28.714,0.56616704,-0.01191785,-0.02852980,-0.82371044
'00:08:51.664,0.062500,0.025879,1.001953,0.426829,1.463415,-0.609756,-4.781250,17.512501,19.487501,28.699,0.56617341,-0.01191424,-0.02853532,-0.82370593
'00:08:51.674,0.062500,0.026367,1.002441,0.365854,1.402439,-0.609756,-4.993750,17.825001,19.818750,28.699,0.56617080,-0.01190823,-0.02853223,-0.82370791
'00:08:51.684,0.062500,0.026367,1.002441,0.365854,1.402439,-0.609756,-4.993750,17.825001,19.818750,28.699,0.56616822,-0.01190232,-0.02852920,-0.82370988
'00:08:51.694,0.062988,0.026367,1.004395,0.243902,1.219512,-0.548781,-5.068750,17.837500,19.787500,28.714,0.56616483,-0.01191367,-0.02852228,-0.82371229
'00:08:51.704,0.062988,0.026367,1.004395,0.243902,1.219512,-0.548781,-5.068750,17.837500,19.787500,28.714,0.56616144,-0.01192488,-0.02851546,-0.82371469
'00:08:51.714,0.062988,0.026367,1.005371,0.060976,1.036585,-0.548781,-4.775000,17.400000,19.468750,28.729,0.56616847,-0.01196880,-0.02851709,-0.82370916
'00:08:51.724,0.062988,0.026367,1.003906,-0.182927,0.853659,-0.487805,-4.775000,17.400000,19.468750,28.744,0.56617905,-0.01203771,-0.02851063,-0.82370111
'00:08:51.734,0.063477,0.026855,1.002930,-0.304878,0.609756,-0.487805,-4.781250,17.425001,19.487501,28.714,0.56618869,-0.01213013,-0.02851256,-0.82369306
'00:08:51.744,0.064453,0.025879,1.001465,-0.304878,0.609756,-0.548781,-4.781250,17.425001,19.487501,28.714,0.56619387,-0.01223064,-0.02851309,-0.82368800
'00:08:51.754,0.065430,0.025391,1.000977,0.060976,1.036585,-0.548781,-4.800000,17.462500,19.518751,28.759,0.56619980,-0.01228781,-0.02851915,-0.82368286
'00:08:51.764,0.064453,0.025391,1.001953,0.487805,1.463415,-0.609756,-5.225000,18.081251,19.937500,28.729,0.56618705,-0.01227067,-0.02851220,-0.82369212
'00:08:51.774,0.062500,0.026367,1.004395,0.487805,1.463415,-0.548781,-5.225000,18.081251,19.937500,28.653,0.56617864,-0.01223905,-0.02850248,-0.82369871
'00:08:51.785,0.063965,0.025391,1.002930,0.365854,1.402439,-0.609756,-5.218750,18.087500,19.943750,28.684,0.56616511,-0.01222986,-0.02848718,-0.82370867
'00:08:51.794,0.063477,0.024414,1.002930,0.487805,1.463415,-0.609756,-5.218750,18.087500,19.943750,28.744,0.56615457,-0.01221412,-0.02847357,-0.82371662
'00:08:51.804,0.062988,0.025391,1.003418,0.670732,1.585366,-0.609756,-4.800000,17.562500,19.543751,28.714,0.56616084,-0.01218929,-0.02848917,-0.82371214
'00:08:51.814,0.063477,0.026367,1.002930,0.670732,1.707317,-0.609756,-4.800000,17.562500,19.543751,28.744,0.56616716,-0.01215501,-0.02850619,-0.82370772
'00:08:51.824,0.062500,0.026855,1.003418,0.548781,1.524390,-0.609756,-4.781250,17.481251,19.493750,28.714,0.56617244,-0.01213276,-0.02852170,-0.82370388
'00:08:51.834,0.061523,0.026367,1.003906,-0.060976,0.914634,-0.548781,-4.781250,17.481251,19.493750,28.699,0.56618011,-0.01218119,-0.02851642,-0.82369807
'00:08:51.844,0.062988,0.025391,1.001953,-0.487805,0.487805,-0.548781,-4.812500,17.512501,19.518751,28.729,0.56618471,-0.01229168,-0.02850062,-0.82369382
'00:08:51.854,0.064941,0.023926,1.000488,-0.121951,0.792683,-0.548781,-4.812500,17.512501,19.518751,28.744,0.56619045,-0.01237758,-0.02849585,-0.82368875
'00:08:51.864,0.064941,0.024902,1.000977,0.609756,1.646341,-0.670732,-4.831250,17.556250,19.525000,28.699,0.56618969,-0.01235988,-0.02850652,-0.82368917
'00:08:51.874,0.063477,0.024902,1.002441,0.975610,2.073171,-0.670732,-4.831250,17.556250,19.525000,28.774,0.56619050,-0.01228523,-0.02851601,-0.82368940
'00:08:51.884,0.062012,0.026367,1.004883,0.670732,1.646341,-0.609756,-5.350000,18.318750,20.068750,28.714,0.56617526,-0.01222498,-0.02850477,-0.82370116
'00:08:51.894,0.062988,0.025879,1.002930,0.243902,1.280488,-0.609756,-5.350000,18.318750,20.068750,28.668,0.56615887,-0.01222059,-0.02848297,-0.82371324
'00:08:51.904,0.063477,0.024902,1.001465,0.304878,1.280488,-0.609756,-4.925000,17.675001,19.650000,28.668,0.56615758,-0.01223484,-0.02847977,-0.82371403
'00:08:51.914,0.062988,0.024902,1.002441,0.548781,1.524390,-0.609756,-4.925000,17.675001,19.650000,28.729,0.56615718,-0.01221638,-0.02847983,-0.82371458
'00:08:51.924,0.062988,0.025879,1.003906,0.548781,1.524390,-0.609756,-4.781250,17.512501,19.468750,28.699,0.56616348,-0.01220010,-0.02849263,-0.82371005
