# FW/GUI: v9.6.1-multi17-dual (PyQt5)
# StartTime: 2026-04-03 16:18:45
# Slot: 13
# DeviceID: 13
# Label: EMG13
# IP: 192.168.137.206
# TCP: 3333
# DeviceFW: EMG_FW_v9.6_MULTI17_DUALCH_RUNTIMECFG_CHEN
# IMU1_RefTime = format(imu_ms) = relative since power-on Time (IMU acquisition time)
IMU1_RefTime,ax_g,ay_g,az_g,gx_dps,gy_dps,gz_dps,mx_uT,my_uT,mz_uT,temp_C,qw,qx,qy,qz
'00:10:39.534,0.059082,0.029297,1.002930,0.365854,1.402439,-0.609756,-4.518750,17.937500,19.912500,29.333,0.57875114,-0.00965091,-0.02892144,-0.81493406
'00:10:39.545,0.059082,0.029785,1.003906,0.365854,1.341463,-0.609756,-4.418750,17.918751,19.781250,29.363,0.57875336,-0.00964919,-0.02892891,-0.81493224
'00:10:39.554,0.058105,0.029297,1.003906,0.304878,1.341463,-0.609756,-4.406250,17.931250,19.843750,29.363,0.57875606,-0.00964840,-0.02892586,-0.81493044
'00:10:39.564,0.058594,0.029297,1.002930,0.365854,1.280488,-0.548781,-4.406250,17.931250,19.843750,29.348,0.57876325,-0.00965193,-0.02893228,-0.81492507
'00:10:39.574,0.058105,0.028809,1.003418,0.365854,1.341463,-0.548781,-4.443750,17.937500,19.762501,29.378,0.57876853,-0.00964766,-0.02892785,-0.81492153
'00:10:39.584,0.059570,0.029297,1.002441,0.365854,1.341463,-0.548781,-4.443750,17.937500,19.762501,29.363,0.57877362,-0.00964993,-0.02893265,-0.81491771
'00:10:39.594,0.059082,0.029785,1.001953,0.426829,1.402439,-0.548781,-4.600000,18.200001,20.000000,29.378,0.57877275,-0.00963429,-0.02893270,-0.81491851
'00:10:39.604,0.058594,0.030273,1.001953,0.365854,1.402439,-0.609756,-4.600000,18.200001,20.000000,29.393,0.57876745,-0.00961708,-0.02892934,-0.81492260
'00:10:39.615,0.059570,0.029297,1.002930,0.304878,1.280488,-0.609756,-4.775000,18.356251,20.118750,29.363,0.57875175,-0.00961248,-0.02891443,-0.81493434
'00:10:39.625,0.059082,0.029785,1.003906,0.243902,1.280488,-0.609756,-4.775000,18.356251,20.118750,29.318,0.57873742,-0.00960665,-0.02889727,-0.81494519
'00:10:39.634,0.059570,0.028809,1.003418,0.365854,1.341463,-0.548781,-4.443750,17.943750,19.781250,29.363,0.57874237,-0.00961115,-0.02889940,-0.81494154
'00:10:39.644,0.059082,0.028809,1.002930,0.426829,1.402439,-0.609756,-4.443750,17.943750,19.781250,29.363,0.57874374,-0.00960584,-0.02890123,-0.81494057
'00:10:39.654,0.059570,0.028809,1.002930,0.426829,1.463415,-0.548781,-4.425000,17.981251,19.856251,29.333,0.57875139,-0.00960108,-0.02890402,-0.81493509
'00:10:39.664,0.059570,0.029785,1.002930,0.426829,1.402439,-0.609756,-4.425000,17.981251,19.856251,29.333,0.57875432,-0.00959651,-0.02891555,-0.81493266
'00:10:39.674,0.059082,0.029785,1.001953,0.365854,1.341463,-0.548781,-4.462500,17.968750,19.812500,29.363,0.57875866,-0.00959431,-0.02892083,-0.81492942
'00:10:39.684,0.059570,0.028809,1.002441,0.304878,1.341463,-0.548781,-4.462500,17.968750,19.812500,29.393,0.57876312,-0.00960189,-0.02891781,-0.81492627
'00:10:39.694,0.059082,0.029785,1.002441,0.304878,1.280488,-0.548781,-4.475000,18.018751,19.906250,29.363,0.57876704,-0.00960698,-0.02892147,-0.81492329
'00:10:39.704,0.060547,0.028809,1.002441,0.304878,1.341463,-0.609756,-4.475000,18.018751,19.906250,29.393,0.57876691,-0.00961979,-0.02892229,-0.81492320
'00:10:39.714,0.058594,0.029785,1.003906,0.365854,1.341463,-0.609756,-4.737500,18.400000,20.112501,29.363,0.57875623,-0.00960336,-0.02891239,-0.81493133
'00:10:39.724,0.058594,0.029297,1.003906,0.426829,1.402439,-0.609756,-4.737500,18.400000,20.112501,29.378,0.57874595,-0.00958179,-0.02890122,-0.81493928
'00:10:39.734,0.058105,0.028809,1.003418,0.365854,1.341463,-0.548781,-4.493750,18.031250,19.856251,29.333,0.57874964,-0.00957702,-0.02889543,-0.81493692
'00:10:39.744,0.060059,0.029297,1.002930,0.365854,1.341463,-0.548781,-4.493750,18.031250,19.856251,29.348,0.57875315,-0.00958143,-0.02890066,-0.81493419
'00:10:39.754,0.059570,0.029297,1.003418,0.365854,1.280488,-0.609756,-4.450000,17.968750,19.843750,29.363,0.57875390,-0.00958903,-0.02890882,-0.81493328
'00:10:39.764,0.060059,0.029785,1.003418,0.304878,1.341463,-0.609756,-4.450000,17.968750,19.843750,29.363,0.57875459,-0.00959597,-0.02891422,-0.81493252
'00:10:39.774,0.059082,0.029785,1.001953,0.304878,1.341463,-0.609756,-4.375000,17.893751,19.750000,29.378,0.57875932,-0.00960118,-0.02892071,-0.81492887
'00:10:39.784,0.059082,0.029297,1.003906,0.304878,1.280488,-0.548781,-4.375000,17.893751,19.750000,29.363,0.57876831,-0.00961238,-0.02892644,-0.81492215
'00:10:39.794,0.059082,0.030273,1.003418,0.243902,1.280488,-0.548781,-4.468750,17.975000,19.912500,29.363,0.57877148,-0.00961796,-0.02892751,-0.81491979
'00:10:39.804,0.061035,0.028809,1.002441,0.304878,1.280488,-0.548781,-4.468750,17.975000,19.912500,29.363,0.57877491,-0.00963769,-0.02893270,-0.81491694
'00:10:39.814,0.059082,0.029297,1.003418,0.304878,1.341463,-0.609756,-4.687500,18.268751,20.056250,29.378,0.57876493,-0.00962996,-0.02891858,-0.81492462
'00:10:39.824,0.058594,0.029297,1.003906,0.365854,1.280488,-0.548781,-4.593750,18.187500,19.975000,29.393,0.57876419,-0.00962544,-0.02891547,-0.81492531
'00:10:39.834,0.059082,0.028809,1.001953,0.304878,1.341463,-0.548781,-4.593750,18.187500,19.975000,29.363,0.57876365,-0.00962487,-0.02890497,-0.81492607
'00:10:39.844,0.059082,0.030273,1.003418,0.243902,1.219512,-0.548781,-4.431250,17.893751,19.843750,29.348,0.57876782,-0.00963580,-0.02891081,-0.81492277
'00:10:39.854,0.060547,0.028809,1.003418,0.243902,1.158537,-0.487805,-4.431250,17.893751,19.843750,29.333,0.57877638,-0.00966540,-0.02891698,-0.81491612
'00:10:39.865,0.060547,0.028809,1.001953,0.304878,1.280488,-0.609756,-4.456250,17.943750,19.843750,29.333,0.57877583,-0.00968342,-0.02892138,-0.81491614
'00:10:39.874,0.059570,0.029297,1.003418,0.243902,1.280488,-0.548781,-4.456250,17.943750,19.843750,29.378,0.57877915,-0.00969375,-0.02891938,-0.81491373
'00:10:39.884,0.060547,0.029297,1.003906,0.304878,1.280488,-0.548781,-4.475000,17.956251,19.875000,29.363,0.57878167,-0.00970644,-0.02892397,-0.81491163
'00:10:39.894,0.060547,0.028809,1.003418,0.365854,1.341463,-0.609756,-4.475000,17.956251,19.875000,29.333,0.57878011,-0.00971347,-0.02892714,-0.81491254
'00:10:39.905,0.057617,0.028809,1.001953,0.365854,1.341463,-0.609756,-4.762500,18.525000,20.200001,29.348,0.57876911,-0.00969293,-0.02890718,-0.81492131
'00:10:39.914,0.058105,0.029785,1.003418,0.304878,1.280488,-0.548781,-4.762500,18.525000,20.200001,29.363,0.57876372,-0.00968191,-0.02889623,-0.81492565
'00:10:39.924,0.060547,0.028809,1.002930,0.304878,1.219512,-0.609756,-4.856250,18.487501,20.218750,29.333,0.57874642,-0.00968563,-0.02888399,-0.81493834
'00:10:39.934,0.060059,0.029297,1.003418,0.304878,1.341463,-0.609756,-4.856250,18.487501,20.218750,29.378,0.57872940,-0.00967597,-0.02886646,-0.81495116
'00:10:39.945,0.059082,0.028809,1.004395,0.243902,1.280488,-0.548781,-4.425000,17.993750,19.843750,29.348,0.57873751,-0.00969084,-0.02886345,-0.81494532
'00:10:39.954,0.060059,0.028320,1.003418,0.304878,1.219512,-0.548781,-4.425000,17.993750,19.843750,29.408,0.57874406,-0.00971087,-0.02886903,-0.81494023
'00:10:39.964,0.060059,0.030273,1.003418,0.243902,1.219512,-0.609756,-4.412500,17.900000,19.837500,29.393,0.57874531,-0.00972723,-0.02888107,-0.81493873
'00:10:39.974,0.060547,0.029785,1.003906,0.243902,1.219512,-0.609756,-4.412500,17.900000,19.837500,29.393,0.57874659,-0.00974799,-0.02889182,-0.81493719
'00:10:39.985,0.059570,0.028809,1.002441,0.365854,1.280488,-0.609756,-4.412500,17.875000,19.762501,29.363,0.57874822,-0.00975704,-0.02889917,-0.81493567
'00:10:39.994,0.059082,0.028809,1.002930,0.426829,1.402439,-0.609756,-4.412500,17.875000,19.762501,29.393,0.57874987,-0.00975114,-0.02890145,-0.81493448
'00:10:40.004,0.059082,0.029297,1.004883,0.365854,1.402439,-0.548781,-4.431250,17.962500,19.893751,29.378,0.57875595,-0.00974574,-0.02890174,-0.81493022
'00:10:40.014,0.059570,0.029297,1.003418,0.304878,1.280488,-0.548781,-4.431250,17.962500,19.893751,29.348,0.57876163,-0.00975523,-0.02890642,-0.81492591
'00:10:40.025,0.059570,0.029297,1.003418,0.243902,1.219512,-0.548781,-4.425000,17.937500,19.743750,29.393,0.57876817,-0.00977326,-0.02891039,-0.81492091
'00:10:40.034,0.059082,0.029297,1.002930,0.243902,1.280488,-0.609756,-4.425000,17.937500,19.743750,29.378,0.57876972,-0.00978131,-0.02890921,-0.81491975
'00:10:40.044,0.059082,0.028320,1.004395,0.365854,1.341463,-0.548781,-4.525000,18.012501,19.925001,29.393,0.57877016,-0.00977860,-0.02890054,-0.81491978
'00:10:40.054,0.059082,0.030273,1.003418,0.365854,1.402439,-0.609756,-4.525000,18.012501,19.925001,29.363,0.57876601,-0.00976364,-0.02890067,-0.81492290
'00:10:40.064,0.058594,0.028809,1.003906,0.365854,1.341463,-0.548781,-4.381250,17.887501,19.787500,29.363,0.57877430,-0.00976375,-0.02890210,-0.81491695
'00:10:40.074,0.058594,0.028809,1.003906,0.365854,1.341463,-0.548781,-4.381250,17.887501,19.787500,29.363,0.57878257,-0.00976383,-0.02890349,-0.81491103
'00:10:40.084,0.059570,0.029785,1.004395,0.304878,1.280488,-0.609756,-4.431250,17.968750,19.887501,29.333,0.57878386,-0.00977062,-0.02891066,-0.81490978
'00:10:40.094,0.059570,0.029297,1.003418,0.304878,1.280488,-0.548781,-4.412500,17.918751,19.800001,29.363,0.57879013,-0.00978000,-0.02891579,-0.81490503
'00:10:40.105,0.060059,0.028809,1.002441,0.426829,1.402439,-0.548781,-4.412500,17.918751,19.800001,29.378,0.57879751,-0.00977933,-0.02892356,-0.81489952
'00:10:40.114,0.060059,0.028809,1.002441,0.426829,1.402439,-0.548781,-4.787500,18.418751,20.131250,29.378,0.57878909,-0.00976445,-0.02891317,-0.81490605
'00:10:40.124,0.059082,0.028809,1.003906,0.426829,1.402439,-0.609756,-4.787500,18.418751,20.131250,29.393,0.57877550,-0.00974232,-0.02889743,-0.81491652
'00:10:40.134,0.059570,0.029297,1.002441,0.426829,1.402439,-0.609756,-4.531250,18.093750,19.843750,29.363,0.57877333,-0.00973228,-0.02890027,-0.81491809
'00:10:40.145,0.060059,0.028809,1.003906,0.243902,1.280488,-0.548781,-4.531250,18.093750,19.843750,29.363,0.57877532,-0.00974611,-0.02889421,-0.81491672
'00:10:40.154,0.060059,0.028809,1.002930,0.243902,1.219512,-0.548781,-4.431250,17.912500,19.806250,29.363,0.57877961,-0.00976488,-0.02889595,-0.81491339
'00:10:40.164,0.059570,0.028809,1.002441,0.243902,1.280488,-0.548781,-4.431250,17.912500,19.806250,29.378,0.57878450,-0.00977843,-0.02889295,-0.81490986
'00:10:40.174,0.060059,0.028809,1.002930,0.426829,1.463415,-0.609756,-4.468750,17.968750,19.887501,29.393,0.57878389,-0.00977059,-0.02889364,-0.81491036
'00:10:40.187,0.059570,0.029785,1.003418,0.487805,1.463415,-0.609756,-4.468750,17.968750,19.887501,29.393,0.57878295,-0.00974758,-0.02890469,-0.81491091
'00:10:40.194,0.059570,0.029785,1.003418,0.487805,1.463415,-0.609756,-4.412500,17.981251,19.856251,29.393,0.57878550,-0.00973799,-0.02891393,-0.81490889
'00:10:40.204,0.057617,0.028809,1.002930,0.426829,1.341463,-0.609756,-4.412500,17.981251,19.856251,29.408,0.57878908,-0.00972921,-0.02891534,-0.81490640
'00:10:40.214,0.060059,0.030273,1.004395,0.304878,1.341463,-0.548781,-4.818750,18.493750,20.237501,29.363,0.57877844,-0.00971705,-0.02890497,-0.81491448
'00:10:40.224,0.060059,0.029785,1.003906,0.365854,1.341463,-0.548781,-4.818750,18.493750,20.237501,29.348,0.57876802,-0.00970410,-0.02889660,-0.81492233
'00:10:40.234,0.059570,0.028809,1.003418,0.365854,1.402439,-0.548781,-4.681250,18.300001,20.006250,29.363,0.57876393,-0.00969353,-0.02888469,-0.81492578
'00:10:40.244,0.059570,0.029785,1.003418,0.365854,1.341463,-0.609756,-4.681250,18.300001,20.006250,29.363,0.57875520,-0.00968339,-0.02888166,-0.81493221
'00:10:40.254,0.059570,0.028320,1.003418,0.426829,1.402439,-0.609756,-4.362500,17.962500,19.868750,29.393,0.57876228,-0.00968738,-0.02888921,-0.81492687
'00:10:40.267,0.061035,0.029297,1.002930,0.426829,1.402439,-0.609756,-4.450000,17.968750,19.768751,29.378,0.57876376,-0.00969038,-0.02890559,-0.81492520
'00:10:40.274,0.061035,0.029297,1.003906,0.487805,1.402439,-0.609756,-4.450000,17.968750,19.768751,29.378,0.57876457,-0.00968964,-0.02891696,-0.81492423
'00:10:40.284,0.059570,0.029297,1.002930,0.426829,1.402439,-0.548781,-4.450000,17.968750,19.768751,29.363,0.57877005,-0.00968378,-0.02892312,-0.81492019
'00:10:40.294,0.059082,0.029297,1.003418,0.365854,1.402439,-0.609756,-4.431250,17.900000,19.743750,29.378,0.57877106,-0.00967830,-0.02892272,-0.81491954
'00:10:40.306,0.059570,0.029297,1.003418,0.365854,1.402439,-0.548781,-4.725000,18.406250,20.131250,29.318,0.57876465,-0.00966250,-0.02890975,-0.81492475
'00:10:40.314,0.059082,0.029297,1.003418,0.426829,1.341463,-0.609756,-4.725000,18.406250,20.131250,29.348,0.57875689,-0.00965090,-0.02890573,-0.81493053
'00:10:40.324,0.058594,0.030273,1.003906,0.365854,1.341463,-0.548781,-4.725000,18.406250,20.131250,29.363,0.57875135,-0.00963310,-0.02889981,-0.81493489
'00:10:40.334,0.059082,0.028320,1.003418,0.365854,1.341463,-0.609756,-4.762500,18.431250,20.131250,29.363,0.57873997,-0.00962422,-0.02888297,-0.81494368
'00:10:40.346,0.060059,0.028809,1.002441,0.426829,1.402439,-0.609756,-4.450000,17.943750,19.812500,29.363,0.57874088,-0.00962402,-0.02888978,-0.81494279
'00:10:40.354,0.059570,0.028809,1.000977,0.426829,1.402439,-0.548781,-4.450000,17.943750,19.812500,29.408,0.57874495,-0.00962204,-0.02889308,-0.81493981
'00:10:40.364,0.059082,0.029297,1.003418,0.365854,1.402439,-0.609756,-4.450000,17.943750,19.825001,29.408,0.57874552,-0.00961724,-0.02889268,-0.81493947
'00:10:40.374,0.059570,0.029785,1.003906,0.365854,1.341463,-0.548781,-4.450000,17.943750,19.825001,29.363,0.57875016,-0.00961764,-0.02889993,-0.81493592
'00:10:40.387,0.059082,0.030273,1.004883,0.365854,1.341463,-0.548781,-4.387500,17.937500,19.806250,29.363,0.57876168,-0.00961666,-0.02891611,-0.81492717
'00:10:40.394,0.059082,0.028809,1.002930,0.304878,1.341463,-0.548781,-4.387500,17.937500,19.806250,29.408,0.57876802,-0.00962280,-0.02891617,-0.81492259
'00:10:40.404,0.059570,0.029297,1.004395,0.365854,1.341463,-0.548781,-4.543750,18.100000,19.956251,29.363,0.57876901,-0.00962134,-0.02891571,-0.81492192
'00:10:40.414,0.059082,0.029785,1.002930,0.426829,1.341463,-0.609756,-4.543750,18.100000,19.956251,29.393,0.57876562,-0.00961224,-0.02892108,-0.81492425
'00:10:40.426,0.059570,0.028809,1.002930,0.426829,1.402439,-0.609756,-4.731250,18.406250,20.162500,29.348,0.57875372,-0.00959593,-0.02890981,-0.81493330
'00:10:40.434,0.060059,0.029785,1.002441,0.365854,1.280488,-0.548781,-4.731250,18.406250,20.162500,29.363,0.57874885,-0.00959391,-0.02891005,-0.81493677
'00:10:40.444,0.058594,0.028809,1.003418,0.304878,1.280488,-0.609756,-4.662500,18.268751,20.043751,29.423,0.57874077,-0.00959204,-0.02889673,-0.81494300
'00:10:40.454,0.060059,0.028809,1.004395,0.304878,1.280488,-0.609756,-4.662500,18.268751,20.043751,29.378,0.57873271,-0.00959820,-0.02888914,-0.81494892
'00:10:40.465,0.060059,0.029785,1.002930,0.304878,1.341463,-0.609756,-4.418750,17.931250,19.768751,29.393,0.57873542,-0.00960735,-0.02889774,-0.81494659
'00:10:40.474,0.060547,0.029785,1.002930,0.426829,1.463415,-0.609756,-4.418750,17.931250,19.768751,29.378,0.57873793,-0.00960382,-0.02890866,-0.81494445
'00:10:40.484,0.060059,0.029785,1.003906,0.426829,1.463415,-0.609756,-4.450000,17.950001,19.850000,29.393,0.57873863,-0.00959544,-0.02891598,-0.81494380
'00:10:40.494,0.059570,0.029785,1.002930,0.426829,1.341463,-0.609756,-4.450000,17.950001,19.850000,29.363,0.57873903,-0.00959329,-0.02892776,-0.81494312
'00:10:40.506,0.059082,0.029297,1.002930,0.304878,1.280488,-0.609756,-4.381250,17.893751,19.825001,29.333,0.57874378,-0.00960677,-0.02893432,-0.81493936
'00:10:40.514,0.059570,0.030273,1.003418,0.243902,1.219512,-0.609756,-4.381250,17.893751,19.825001,29.348,0.57874655,-0.00962038,-0.02894356,-0.81493690
'00:10:40.524,0.060547,0.028320,1.002930,0.365854,1.341463,-0.548781,-4.825000,18.443750,20.175001,29.393,0.57873539,-0.00961654,-0.02892753,-0.81494544
'00:10:40.536,0.058105,0.029297,1.003418,0.426829,1.402439,-0.548781,-4.825000,18.443750,20.175001,29.393,0.57872216,-0.00958221,-0.02890492,-0.81495604
'00:10:40.546,0.059570,0.028809,1.002930,0.426829,1.402439,-0.609756,-4.687500,18.275000,20.081251,29.348,0.57871288,-0.00957000,-0.02889656,-0.81496307
'00:10:40.554,0.060547,0.029785,1.002930,0.426829,1.402439,-0.609756,-4.687500,18.275000,20.081251,29.378,0.57870532,-0.00956160,-0.02889759,-0.81496850
'00:10:40.564,0.059570,0.029785,1.003418,0.426829,1.402439,-0.609756,-4.406250,17.925001,19.868750,29.348,0.57870852,-0.00955822,-0.02890948,-0.81496585
'00:10:40.576,0.059082,0.030273,1.002441,0.304878,1.341463,-0.548781,-4.393750,17.956251,19.768751,29.333,0.57871950,-0.00956256,-0.02892053,-0.81495761
'00:10:40.587,0.059570,0.030273,1.003418,0.304878,1.280488,-0.609756,-4.393750,17.956251,19.768751,29.378,0.57872454,-0.00957382,-0.02893558,-0.81495336
'00:10:40.594,0.060059,0.028809,1.003906,0.243902,1.219512,-0.548781,-4.393750,17.956251,19.768751,29.393,0.57873081,-0.00959223,-0.02893933,-0.81494856
'00:10:40.604,0.060547,0.028320,1.002930,0.365854,1.280488,-0.609756,-4.425000,17.968750,19.800001,29.423,0.57873363,-0.00961077,-0.02894748,-0.81494605
'00:10:40.614,0.059570,0.029785,1.004395,0.365854,1.341463,-0.609756,-4.656250,18.300001,20.006250,29.363,0.57872673,-0.00960318,-0.02894516,-0.81495112
'00:10:40.626,0.059082,0.028809,1.003906,0.426829,1.463415,-0.609756,-4.656250,18.300001,20.006250,29.378,0.57871919,-0.00958177,-0.02893154,-0.81495721
'00:10:40.638,0.059082,0.029297,1.002930,0.487805,1.524390,-0.548781,-4.818750,18.525000,20.243750,29.363,0.57870875,-0.00954251,-0.02891418,-0.81496570
'00:10:40.644,0.059082,0.029785,1.002930,0.365854,1.402439,-0.609756,-4.818750,18.525000,20.243750,29.423,0.57870069,-0.00953089,-0.02890590,-0.81497185
'00:10:40.654,0.058594,0.029785,1.003906,0.304878,1.341463,-0.548781,-4.487500,17.981251,19.875000,29.378,0.57870360,-0.00952855,-0.02890270,-0.81496993
'00:10:40.666,0.059082,0.029785,1.004395,0.243902,1.219512,-0.609756,-4.487500,17.981251,19.875000,29.348,0.57870145,-0.00954287,-0.02890329,-0.81497127
'00:10:40.674,0.060059,0.028320,1.003418,0.182927,1.219512,-0.609756,-4.418750,17.968750,19.800001,29.378,0.57870404,-0.00956734,-0.02890116,-0.81496922
'00:10:40.684,0.060059,0.029297,1.003906,0.304878,1.280488,-0.609756,-4.418750,17.968750,19.800001,29.363,0.57870728,-0.00958291,-0.02890954,-0.81496644
'00:10:40.694,0.060547,0.029297,1.002930,0.365854,1.402439,-0.548781,-4.406250,17.912500,19.775000,29.318,0.57871487,-0.00958962,-0.02891805,-0.81496067
'00:10:40.706,0.060547,0.029785,1.002930,0.487805,1.463415,-0.609756,-4.406250,17.912500,19.775000,29.363,0.57871889,-0.00958231,-0.02893822,-0.81495718
'00:10:40.714,0.060547,0.029297,1.002930,0.365854,1.463415,-0.609756,-4.631250,18.243750,20.012501,29.363,0.57871411,-0.00957654,-0.02893353,-0.81496081
'00:10:40.724,0.061523,0.029297,1.003418,0.304878,1.341463,-0.548781,-4.631250,18.243750,20.012501,29.393,0.57871212,-0.00958665,-0.02893323,-0.81496211
'00:10:40.734,0.059082,0.029297,1.002930,0.243902,1.219512,-0.609756,-4.762500,18.387501,20.093750,29.378,0.57869948,-0.00958889,-0.02891837,-0.81497159
'00:10:40.744,0.059570,0.028320,1.002930,0.304878,1.341463,-0.548781,-4.762500,18.387501,20.093750,29.378,0.57869178,-0.00958619,-0.02889836,-0.81497780
'00:10:40.754,0.059082,0.029297,1.003906,0.304878,1.280488,-0.548781,-4.612500,18.187500,19.975000,29.408,0.57869005,-0.00958726,-0.02889211,-0.81497924
'00:10:40.764,0.059082,0.029785,1.003906,0.304878,1.341463,-0.548781,-4.612500,18.187500,19.975000,29.363,0.57868838,-0.00958201,-0.02888569,-0.81498071
'00:10:40.774,0.058594,0.028320,1.003418,0.365854,1.402439,-0.609756,-4.456250,17.975000,19.787500,29.423,0.57868986,-0.00957920,-0.02887836,-0.81497995
'00:10:40.784,0.059570,0.029297,1.002930,0.365854,1.341463,-0.609756,-4.456250,17.975000,19.787500,29.393,0.57869095,-0.00958236,-0.02888402,-0.81497894
'00:10:40.794,0.059082,0.029297,1.003906,0.304878,1.341463,-0.548781,-4.406250,17.987501,19.775000,29.348,0.57870016,-0.00958904,-0.02888709,-0.81497221
'00:10:40.804,0.059570,0.030273,1.003906,0.304878,1.280488,-0.609756,-4.406250,17.987501,19.775000,29.363,0.57870460,-0.00959849,-0.02890081,-0.81496846
'00:10:40.814,0.059082,0.028809,1.004395,0.304878,1.280488,-0.609756,-4.412500,17.931250,19.856251,29.363,0.57870732,-0.00961006,-0.02890166,-0.81496636
'00:10:40.824,0.059082,0.028809,1.004395,0.304878,1.280488,-0.609756,-4.412500,17.931250,19.856251,29.363,0.57871001,-0.00962144,-0.02890247,-0.81496429
'00:10:40.834,0.058105,0.030273,1.002930,0.365854,1.341463,-0.609756,-4.593750,18.193750,20.025000,29.378,0.57870505,-0.00960640,-0.02890084,-0.81496805
'00:10:40.845,0.059082,0.029785,1.003418,0.365854,1.402439,-0.609756,-4.593750,18.193750,20.025000,29.393,0.57869989,-0.00959351,-0.02889678,-0.81497201
'00:10:40.854,0.059570,0.029785,1.003418,0.365854,1.341463,-0.548781,-4.737500,18.387501,20.137501,29.348,0.57869410,-0.00958431,-0.02889180,-0.81497641
'00:10:40.864,0.060059,0.029297,1.003418,0.304878,1.280488,-0.609756,-4.737500,18.387501,20.137501,29.408,0.57868326,-0.00958619,-0.02888437,-0.81498434
'00:10:40.874,0.060547,0.029297,1.002930,0.304878,1.280488,-0.609756,-4.387500,17.937500,19.775000,29.408,0.57868815,-0.00960609,-0.02889731,-0.81498018
'00:10:40.884,0.059570,0.028320,1.003906,0.365854,1.341463,-0.609756,-4.400000,17.925001,19.806250,29.393,0.57869215,-0.00961566,-0.02889985,-0.81497714
'00:10:40.895,0.060059,0.029785,1.003418,0.365854,1.341463,-0.609756,-4.400000,17.925001,19.806250,29.378,0.57869612,-0.00962249,-0.02891434,-0.81497372
'00:10:40.904,0.059082,0.028809,1.004883,0.426829,1.463415,-0.548781,-4.425000,17.900000,19.806250,29.378,0.57870172,-0.00961416,-0.02891274,-0.81496990
'00:10:40.914,0.060059,0.028809,1.002930,0.426829,1.402439,-0.548781,-4.425000,17.900000,19.806250,29.378,0.57870772,-0.00961530,-0.02891884,-0.81496541
'00:10:40.924,0.058594,0.029297,1.004395,0.365854,1.341463,-0.548781,-4.731250,18.418751,20.100000,29.393,0.57870256,-0.00960173,-0.02890713,-0.81496965
'00:10:40.934,0.058594,0.029785,1.002441,0.304878,1.280488,-0.548781,-4.731250,18.418751,20.100000,29.333,0.57869714,-0.00959425,-0.02889793,-0.81497392
'00:10:40.944,0.058594,0.028809,1.003418,0.243902,1.280488,-0.609756,-4.762500,18.431250,20.131250,29.408,0.57868566,-0.00959195,-0.02887660,-0.81498285
'00:10:40.954,0.059570,0.028809,1.002441,0.365854,1.280488,-0.609756,-4.762500,18.431250,20.131250,29.393,0.57867433,-0.00958922,-0.02886859,-0.81499121
'00:10:40.964,0.060547,0.028320,1.004395,0.365854,1.341463,-0.609756,-4.437500,18.012501,19.818750,29.333,0.57867764,-0.00960323,-0.02887439,-0.81498849
'00:10:40.974,0.060547,0.030273,1.002441,0.426829,1.341463,-0.548781,-4.437500,18.012501,19.818750,29.348,0.57868484,-0.00960647,-0.02889643,-0.81498256
'00:10:40.984,0.059570,0.029297,1.003418,0.365854,1.402439,-0.548781,-4.412500,17.975000,19.775000,29.393,0.57869347,-0.00960767,-0.02890193,-0.81497622
'00:10:40.994,0.060059,0.029785,1.002930,0.426829,1.402439,-0.548781,-4.412500,17.975000,19.775000,29.378,0.57870197,-0.00960657,-0.02891664,-0.81496968
'00:10:41.004,0.059082,0.028809,1.003418,0.426829,1.402439,-0.609756,-4.425000,17.937500,19.806250,29.393,0.57870452,-0.00960252,-0.02891940,-0.81496782
'00:10:41.014,0.059082,0.029785,1.002930,0.365854,1.402439,-0.609756,-4.425000,17.937500,19.806250,29.363,0.57870679,-0.00959765,-0.02892366,-0.81496611
'00:10:41.024,0.059570,0.029785,1.003906,0.365854,1.341463,-0.609756,-4.400000,18.000000,19.868750,29.393,0.57871176,-0.00960231,-0.02893574,-0.81496210
'00:10:41.034,0.059570,0.028809,1.002930,0.365854,1.341463,-0.548781,-4.400000,18.000000,19.868750,29.318,0.57872122,-0.00961128,-0.02894225,-0.81495504
'00:10:41.044,0.058105,0.029297,1.003418,0.304878,1.341463,-0.609756,-4.606250,18.231251,20.043751,29.393,0.57871621,-0.00960304,-0.02892963,-0.81495914
'00:10:41.054,0.059082,0.029297,1.002930,0.304878,1.341463,-0.609756,-4.606250,18.231251,20.043751,29.378,0.57871122,-0.00960055,-0.02892138,-0.81496301
'00:10:41.064,0.060059,0.030273,1.002930,0.304878,1.341463,-0.548781,-4.550000,18.093750,20.012501,29.363,0.57871134,-0.00960141,-0.02892417,-0.81496282
'00:10:41.074,0.059082,0.029785,1.003418,0.365854,1.341463,-0.609756,-4.550000,18.093750,20.012501,29.393,0.57870731,-0.00959541,-0.02892433,-0.81496574
'00:10:41.084,0.058594,0.028809,1.003418,0.304878,1.280488,-0.548781,-4.412500,17.912500,19.806250,29.378,0.57871413,-0.00960419,-0.02892284,-0.81496085
'00:10:41.094,0.059570,0.028809,1.003418,0.304878,1.280488,-0.548781,-4.412500,17.912500,19.806250,29.363,0.57872086,-0.00961835,-0.02892532,-0.81495582
'00:10:41.104,0.059570,0.029297,1.002441,0.365854,1.341463,-0.609756,-4.406250,17.912500,19.712500,29.393,0.57872413,-0.00962301,-0.02893297,-0.81495317
'00:10:41.114,0.059570,0.029785,1.001465,0.426829,1.341463,-0.548781,-4.406250,17.912500,19.712500,29.363,0.57873164,-0.00962285,-0.02894799,-0.81494730
'00:10:41.124,0.058594,0.029297,1.004395,0.426829,1.402439,-0.548781,-4.406250,17.943750,19.843750,29.333,0.57873956,-0.00961493,-0.02895202,-0.81494163
'00:10:41.134,0.060059,0.029785,1.002930,0.304878,1.402439,-0.548781,-4.750000,18.381250,20.087500,29.348,0.57873218,-0.00960479,-0.02893920,-0.81494744
'00:10:41.144,0.057617,0.029785,1.002930,0.365854,1.402439,-0.548781,-4.750000,18.381250,20.087500,29.363,0.57872498,-0.00957823,-0.02892126,-0.81495351
'00:10:41.154,0.059082,0.028809,1.002441,0.304878,1.341463,-0.548781,-4.743750,18.387501,20.112501,29.393,0.57871829,-0.00957221,-0.02890347,-0.81495896
'00:10:41.164,0.058594,0.028809,1.002930,0.304878,1.341463,-0.548781,-4.743750,18.387501,20.112501,29.393,0.57871169,-0.00956352,-0.02888386,-0.81496444
'00:10:41.174,0.058594,0.029785,1.002930,0.426829,1.341463,-0.609756,-4.406250,17.893751,19.843750,29.333,0.57871420,-0.00955853,-0.02889462,-0.81496233
'00:10:41.184,0.060059,0.029785,1.003418,0.365854,1.341463,-0.609756,-4.406250,17.893751,19.843750,29.393,0.57871658,-0.00956489,-0.02890664,-0.81496015
'00:10:41.194,0.058594,0.029297,1.003418,0.304878,1.341463,-0.548781,-4.425000,17.975000,19.912500,29.393,0.57872355,-0.00956808,-0.02890537,-0.81495520
'00:10:41.204,0.060059,0.027832,1.002930,0.304878,1.280488,-0.609756,-4.425000,17.975000,19.912500,29.318,0.57872626,-0.00958988,-0.02890486,-0.81495304
'00:10:41.214,0.060547,0.029297,1.003418,0.365854,1.341463,-0.609756,-4.456250,17.931250,19.825001,29.378,0.57872600,-0.00959766,-0.02891262,-0.81495286
'00:10:41.224,0.059082,0.030273,1.003418,0.365854,1.402439,-0.548781,-4.456250,17.931250,19.825001,29.408,0.57873005,-0.00958882,-0.02891684,-0.81494994
'00:10:41.234,0.060059,0.030762,1.002441,0.426829,1.341463,-0.548781,-4.950000,18.725000,20.368750,29.333,0.57871573,-0.00956700,-0.02891422,-0.81496046
'00:10:41.244,0.059570,0.029785,1.004395,0.426829,1.402439,-0.609756,-4.950000,18.725000,20.368750,29.378,0.57869754,-0.00954186,-0.02890058,-0.81497415
'00:10:41.255,0.059570,0.028809,1.002930,0.426829,1.463415,-0.548781,-4.700000,18.293751,20.100000,29.393,0.57869188,-0.00952409,-0.02888756,-0.81497884
'00:10:41.264,0.058105,0.029297,1.004395,0.487805,1.524390,-0.609756,-4.700000,18.293751,20.100000,29.393,0.57868356,-0.00949361,-0.02887502,-0.81498555
'00:10:41.274,0.060059,0.028320,1.003906,0.182927,1.219512,-0.609756,-4.437500,17.925001,19.850000,29.393,0.57868453,-0.00952337,-0.02887020,-0.81498468
'00:10:41.284,0.060059,0.028320,1.001465,0.426829,1.402439,-0.609756,-4.437500,17.925001,19.850000,29.393,0.57868608,-0.00952791,-0.02887451,-0.81498337
'00:10:41.294,0.058594,0.030273,1.003906,0.487805,1.402439,-0.609756,-4.468750,17.893751,19.800001,29.378,0.57868466,-0.00950984,-0.02888439,-0.81498424
'00:10:41.304,0.060059,0.030273,1.001953,0.304878,1.280488,-0.609756,-4.468750,17.893751,19.800001,29.363,0.57868273,-0.00951864,-0.02889404,-0.81498517
'00:10:41.314,0.059570,0.030273,1.004883,0.426829,1.402439,-0.609756,-4.431250,17.918751,19.768751,29.363,0.57868452,-0.00951172,-0.02890646,-0.81498354
'00:10:41.324,0.059570,0.028809,1.002930,0.182927,1.219512,-0.548781,-4.431250,17.918751,19.768751,29.378,0.57869027,-0.00953680,-0.02890284,-0.81497929
'00:10:41.334,0.059570,0.029297,1.003418,0.365854,1.280488,-0.548781,-4.450000,17.893751,19.812500,29.408,0.57869412,-0.00954439,-0.02890961,-0.81497623
'00:10:41.344,0.059082,0.028809,1.004395,0.365854,1.280488,-0.548781,-4.450000,17.893751,19.812500,29.378,0.57869807,-0.00955089,-0.02891102,-0.81497330
'00:10:41.354,0.058594,0.030273,1.002441,0.243902,1.219512,-0.548781,-4.631250,18.231251,20.118750,29.393,0.57869504,-0.00955320,-0.02890672,-0.81497558
'00:10:41.364,0.058594,0.029297,1.002441,0.121951,1.158537,-0.609756,-4.631250,18.231251,20.118750,29.348,0.57868765,-0.00956982,-0.02889136,-0.81498117
'00:10:41.374,0.059570,0.029297,1.004395,0.121951,1.097561,-0.548781,-4.556250,18.131250,19.856251,29.363,0.57868845,-0.00959847,-0.02888665,-0.81498043
'00:10:41.384,0.059570,0.029785,1.003418,0.243902,1.158537,-0.609756,-4.556250,18.131250,19.856251,29.363,0.57868502,-0.00961426,-0.02889079,-0.81498253
'00:10:41.394,0.059082,0.028320,1.004883,0.304878,1.280488,-0.548781,-4.362500,17.900000,19.775000,29.378,0.57869543,-0.00963034,-0.02889225,-0.81497490
'00:10:41.404,0.059570,0.028809,1.003418,0.304878,1.280488,-0.609756,-4.481250,17.906250,19.931250,29.393,0.57869243,-0.00963990,-0.02888938,-0.81497702
'00:10:41.414,0.059082,0.029297,1.003906,0.365854,1.341463,-0.548781,-4.481250,17.906250,19.931250,29.363,0.57869388,-0.00963717,-0.02888841,-0.81497606
'00:10:41.424,0.058594,0.029785,1.002930,0.365854,1.280488,-0.548781,-4.462500,18.031250,19.875000,29.408,0.57869937,-0.00963690,-0.02889623,-0.81497189
'00:10:41.434,0.059570,0.028809,1.000977,0.426829,1.402439,-0.609756,-4.462500,18.031250,19.875000,29.378,0.57870100,-0.00963468,-0.02890123,-0.81497058
'00:10:41.444,0.058594,0.028809,1.001953,0.548781,1.585366,-0.548781,-4.862500,18.600000,20.187500,29.393,0.57869158,-0.00959164,-0.02888288,-0.81497843
'00:10:41.454,0.059570,0.028809,1.002930,0.731707,1.646341,-0.670732,-4.862500,18.600000,20.187500,29.393,0.57867392,-0.00954059,-0.02887842,-0.81499172
'00:10:41.464,0.058594,0.029297,1.003906,0.670732,1.585366,-0.548781,-4.637500,18.212500,20.031250,29.393,0.57867208,-0.00949853,-0.02887979,-0.81499348
'00:10:41.476,0.060059,0.029785,1.005371,0.426829,1.402439,-0.609756,-4.637500,18.212500,20.031250,29.393,0.57866379,-0.00948610,-0.02888152,-0.81499944
'00:10:41.484,0.060059,0.029297,1.003906,0.304878,1.280488,-0.609756,-4.425000,17.950001,19.837500,29.393,0.57866583,-0.00949929,-0.02888793,-0.81499761
'00:10:41.494,0.060547,0.029785,1.002441,0.365854,1.280488,-0.548781,-4.425000,17.950001,19.837500,29.363,0.57867258,-0.00951368,-0.02890549,-0.81499203
'00:10:41.504,0.058594,0.028809,1.001465,0.182927,1.158537,-0.548781,-4.431250,17.875000,19.818750,29.363,0.57867707,-0.00953747,-0.02890050,-0.81498874
'00:10:41.514,0.059082,0.029785,1.002930,0.060976,1.036585,-0.548781,-4.431250,17.875000,19.818750,29.363,0.57868089,-0.00957410,-0.02890011,-0.81498562
'00:10:41.524,0.061035,0.029297,1.001953,0.243902,1.219512,-0.548781,-4.493750,17.993750,19.831251,29.393,0.57868343,-0.00959872,-0.02890655,-0.81498329
'00:10:41.534,0.060059,0.026855,1.002441,0.670732,1.646341,-0.609756,-4.493750,17.993750,19.831251,29.363,0.57868359,-0.00957534,-0.02890345,-0.81498356
'00:10:41.544,0.059082,0.029297,1.004395,0.975610,1.951220,-0.670732,-4.525000,18.100000,19.956251,29.393,0.57867965,-0.00949894,-0.02891573,-0.81498682
'00:10:41.554,0.059082,0.029297,1.004395,0.975610,1.951220,-0.670732,-4.525000,18.100000,19.956251,29.393,0.57867585,-0.00942373,-0.02892796,-0.81498996
'00:10:41.564,0.058594,0.029785,1.006348,-0.060976,0.853659,-0.487805,-4.693750,18.262501,20.081251,29.378,0.57867300,-0.00946732,-0.02891210,-0.81499203
'00:10:41.574,0.060547,0.027832,1.002441,0.487805,1.463415,-0.609756,-4.693750,18.262501,20.081251,29.423,0.57866377,-0.00945855,-0.02890303,-0.81499902
'00:10:41.584,0.055664,0.032715,1.006348,0.487805,1.463415,-0.609756,-4.443750,17.881250,19.812500,29.393,0.57866367,-0.00941137,-0.02891249,-0.81499930
'00:10:41.594,0.061523,0.027344,1.000488,0.243902,1.219512,-0.609756,-4.443750,17.881250,19.812500,29.378,0.57866370,-0.00945132,-0.02891187,-0.81499883
'00:10:41.604,0.058105,0.032227,1.005371,0.487805,1.524390,-0.609756,-4.418750,17.968750,19.768751,29.378,0.57866763,-0.00941874,-0.02892963,-0.81499579
'00:10:41.614,0.060059,0.028809,1.001953,0.121951,1.036585,-0.548781,-4.418750,17.968750,19.768751,29.378,0.57867499,-0.00946575,-0.02893521,-0.81498982
'00:10:41.624,0.061035,0.029785,1.003418,0.426829,1.463415,-0.609756,-4.387500,17.906250,19.812500,29.363,0.57867963,-0.00946869,-0.02895083,-0.81498594
'00:10:41.634,0.058105,0.030762,1.004883,0.487805,1.463415,-0.548781,-4.387500,17.906250,19.812500,29.423,0.57868855,-0.00944762,-0.02896362,-0.81497939
'00:10:41.644,0.059570,0.028809,1.003418,0.243902,1.280488,-0.548781,-4.631250,18.293751,19.993750,29.393,0.57868795,-0.00945886,-0.02895247,-0.81498009
'00:10:41.654,0.060059,0.028809,1.004883,0.548781,1.463415,-0.609756,-4.631250,18.293751,19.993750,29.363,0.57868373,-0.00944381,-0.02895534,-0.81498316
'00:10:41.664,0.059082,0.029297,1.001465,0.243902,1.219512,-0.609756,-4.787500,18.450001,20.168751,29.363,0.57867078,-0.00944807,-0.02894037,-0.81499283
'00:10:41.674,0.058594,0.030273,1.003418,0.487805,1.402439,-0.609756,-4.556250,18.068750,19.962500,29.393,0.57866653,-0.00942849,-0.02894618,-0.81499587
'00:10:41.684,0.059082,0.030762,1.002441,0.243902,1.219512,-0.548781,-4.556250,18.068750,19.962500,29.408,0.57866587,-0.00943562,-0.02894898,-0.81499616
'00:10:41.694,0.059570,0.029297,1.002930,0.182927,1.158537,-0.548781,-4.456250,17.937500,19.850000,29.393,0.57866981,-0.00946306,-0.02894898,-0.81499304
'00:10:41.704,0.060547,0.028320,1.002930,0.365854,1.341463,-0.548781,-4.456250,17.937500,19.850000,29.393,0.57867446,-0.00947738,-0.02895099,-0.81498950
'00:10:41.715,0.061035,0.028809,1.003418,0.731707,1.707317,-0.609756,-4.362500,17.906250,19.768751,29.393,0.57868284,-0.00945049,-0.02897421,-0.81498304
'00:10:41.724,0.058594,0.031250,1.005859,0.182927,1.097561,-0.609756,-4.362500,17.906250,19.768751,29.348,0.57868754,-0.00947070,-0.02898842,-0.81497896
'00:10:41.734,0.061035,0.027832,1.002930,0.487805,1.463415,-0.548781,-4.450000,17.918751,19.856251,29.378,0.57869254,-0.00947491,-0.02899140,-0.81497526
'00:10:41.744,0.058105,0.031250,1.005859,0.243902,1.219512,-0.609756,-4.450000,17.918751,19.856251,29.333,0.57869177,-0.00947718,-0.02899607,-0.81497561
'00:10:41.755,0.060059,0.028809,1.001953,0.365854,1.402439,-0.609756,-4.775000,18.468750,20.268751,29.378,0.57867898,-0.00946948,-0.02898032,-0.81498535
'00:10:41.764,0.058105,0.031250,1.003906,0.304878,1.280488,-0.548781,-4.775000,18.468750,20.268751,29.408,0.57867175,-0.00945504,-0.02897406,-0.81499087
'00:10:41.774,0.059570,0.029297,1.001465,0.365854,1.341463,-0.548781,-4.625000,18.262501,20.018751,29.378,0.57867095,-0.00945420,-0.02897165,-0.81499153
'00:10:41.784,0.057129,0.031250,1.003906,0.426829,1.280488,-0.548781,-4.625000,18.262501,20.018751,29.363,0.57866974,-0.00943251,-0.02897708,-0.81499245
'00:10:41.795,0.060059,0.028320,1.002930,0.426829,1.402439,-0.609756,-4.450000,17.968750,19.843750,29.408,0.57867161,-0.00943823,-0.02897942,-0.81499097
'00:10:41.804,0.058594,0.029297,1.003418,0.365854,1.219512,-0.548781,-4.450000,17.968750,19.843750,29.363,0.57867643,-0.00944626,-0.02898521,-0.81498725
'00:10:41.815,0.057617,0.030273,1.004395,0.426829,1.341463,-0.609756,-4.412500,17.975000,19.868750,29.438,0.57868067,-0.00943483,-0.02899498,-0.81498402
'00:10:41.824,0.061035,0.029297,1.002930,0.365854,1.341463,-0.548781,-4.412500,17.975000,19.868750,29.408,0.57868801,-0.00944988,-0.02900683,-0.81497822
'00:10:41.835,0.059570,0.029297,1.003418,0.304878,1.219512,-0.548781,-4.418750,18.000000,19.837500,29.378,0.57869685,-0.00947146,-0.02901640,-0.81497134
'00:10:41.844,0.060547,0.029297,1.002930,0.365854,1.280488,-0.548781,-4.418750,18.000000,19.837500,29.348,0.57870415,-0.00948716,-0.02902891,-0.81496554
'00:10:41.854,0.060059,0.029297,1.002930,0.365854,1.341463,-0.548781,-4.812500,18.575001,20.243750,29.408,0.57869638,-0.00948129,-0.02901906,-0.81497147
'00:10:41.864,0.059570,0.029297,1.002441,0.304878,1.341463,-0.609756,-4.812500,18.575001,20.243750,29.393,0.57868428,-0.00947588,-0.02900340,-0.81498068
'00:10:41.875,0.059570,0.029785,1.003906,0.426829,1.463415,-0.609756,-4.856250,18.550001,20.262501,29.378,0.57866760,-0.00944821,-0.02898743,-0.81499342
'00:10:41.884,0.059082,0.028809,1.003906,0.426829,1.341463,-0.548781,-4.856250,18.550001,20.262501,29.363,0.57865788,-0.00943504,-0.02897352,-0.81500096
'00:10:41.894,0.058594,0.029297,1.003418,0.426829,1.341463,-0.548781,-4.431250,17.912500,19.818750,29.363,0.57866384,-0.00943273,-0.02897857,-0.81499658
'00:10:41.904,0.058594,0.029297,1.004395,0.426829,1.402439,-0.609756,-4.431250,17.912500,19.818750,29.393,0.57866561,-0.00942573,-0.02898009,-0.81499535
'00:10:41.915,0.058105,0.028809,1.002930,0.365854,1.219512,-0.548781,-4.443750,17.887501,19.787500,29.363,0.57867046,-0.00943418,-0.02898080,-0.81499178
'00:10:41.924,0.059082,0.030273,1.002441,0.365854,1.341463,-0.609756,-4.425000,17.993750,19.875000,29.333,0.57867341,-0.00943517,-0.02899056,-0.81498933
'00:10:41.934,0.059082,0.029785,1.002930,0.365854,1.341463,-0.609756,-4.425000,17.993750,19.875000,29.378,0.57867676,-0.00943814,-0.02899819,-0.81498665
'00:10:41.944,0.061035,0.030273,1.001953,0.304878,1.341463,-0.609756,-4.625000,18.293751,20.087500,29.378,0.57867169,-0.00944510,-0.02900288,-0.81499000
'00:10:41.955,0.060547,0.029297,1.002930,0.304878,1.341463,-0.609756,-4.625000,18.293751,20.087500,29.363,0.57866636,-0.00945379,-0.02899923,-0.81499381
'00:10:41.964,0.059570,0.029297,1.003906,0.365854,1.341463,-0.548781,-4.818750,18.481251,20.118750,29.348,0.57865787,-0.00944485,-0.02898692,-0.81500038
'00:10:41.974,0.059570,0.027344,1.003906,0.365854,1.341463,-0.609756,-4.818750,18.481251,20.118750,29.348,0.57864457,-0.00944271,-0.02896261,-0.81501072
'00:10:41.984,0.059570,0.028320,1.003906,0.365854,1.341463,-0.548781,-4.550000,18.068750,19.981251,29.363,0.57864520,-0.00944774,-0.02895543,-0.81501046
'00:10:41.995,0.060059,0.030273,1.003906,0.365854,1.341463,-0.609756,-4.550000,18.068750,19.981251,29.378,0.57864065,-0.00944724,-0.02896226,-0.81501346
'00:10:42.005,0.059082,0.030273,1.000977,0.365854,1.341463,-0.609756,-4.443750,17.950001,19.818750,29.393,0.57864197,-0.00944666,-0.02897177,-0.81501219
'00:10:42.014,0.059082,0.029785,1.002930,0.304878,1.280488,-0.609756,-4.443750,17.950001,19.818750,29.378,0.57864307,-0.00945424,-0.02897578,-0.81501118
'00:10:42.024,0.059082,0.029785,1.002930,0.304878,1.341463,-0.548781,-4.418750,17.900000,19.850000,29.408,0.57864928,-0.00945940,-0.02897781,-0.81500664
'00:10:42.035,0.059082,0.029297,1.002930,0.304878,1.280488,-0.548781,-4.418750,17.900000,19.850000,29.318,0.57865602,-0.00947196,-0.02898023,-0.81500162
'00:10:42.044,0.059570,0.029297,1.002930,0.304878,1.280488,-0.548781,-4.462500,18.031250,19.887501,29.348,0.57866116,-0.00948359,-0.02898335,-0.81499772
'00:10:42.054,0.058105,0.028809,1.003906,0.365854,1.341463,-0.548781,-4.462500,18.031250,19.887501,29.438,0.57866722,-0.00948243,-0.02897880,-0.81499360
'00:10:42.064,0.059082,0.028809,1.003906,0.365854,1.341463,-0.548781,-4.818750,18.462500,20.187500,29.348,0.57865720,-0.00947126,-0.02896010,-0.81500150
'00:10:42.075,0.059082,0.029297,1.003418,0.426829,1.402439,-0.609756,-4.818750,18.462500,20.187500,29.408,0.57864162,-0.00944888,-0.02894459,-0.81501338
'00:10:42.084,0.058594,0.028320,1.001953,0.365854,1.341463,-0.548781,-4.618750,18.237501,20.031250,29.393,0.57864112,-0.00944701,-0.02893412,-0.81501412
'00:10:42.094,0.059570,0.029297,1.003418,0.365854,1.341463,-0.609756,-4.618750,18.237501,20.031250,29.378,0.57863603,-0.00944599,-0.02893165,-0.81501784
'00:10:42.104,0.059570,0.029785,1.001953,0.304878,1.341463,-0.609756,-4.362500,17.925001,19.775000,29.363,0.57864283,-0.00945796,-0.02894215,-0.81501250
'00:10:42.116,0.061523,0.029297,1.002441,0.426829,1.341463,-0.670732,-4.362500,17.925001,19.775000,29.378,0.57864584,-0.00948002,-0.02897078,-0.81500909
'00:10:42.124,0.059570,0.029297,1.003906,0.304878,1.341463,-0.548781,-4.443750,17.987501,19.775000,29.363,0.57865122,-0.00948692,-0.02897154,-0.81500516
'00:10:42.134,0.059570,0.029297,1.003906,0.304878,1.280488,-0.548781,-4.443750,17.987501,19.775000,29.378,0.57865777,-0.00949974,-0.02897553,-0.81500022
'00:10:42.144,0.058594,0.029785,1.004395,0.365854,1.341463,-0.609756,-4.387500,17.937500,19.893751,29.378,0.57866245,-0.00950044,-0.02898246,-0.81499664
'00:10:42.155,0.059570,0.029297,1.002441,0.304878,1.280488,-0.548781,-4.525000,18.056250,19.931250,29.378,0.57866427,-0.00951038,-0.02898146,-0.81499527
'00:10:42.164,0.059082,0.030273,1.002441,0.304878,1.280488,-0.609756,-4.525000,18.056250,19.931250,29.423,0.57866167,-0.00951213,-0.02898399,-0.81499701
'00:10:42.175,0.059570,0.029297,1.003906,0.304878,1.280488,-0.548781,-4.806250,18.518751,20.268751,29.363,0.57865213,-0.00951012,-0.02896919,-0.81500433
'00:10:42.184,0.059082,0.030273,1.003418,0.182927,1.158537,-0.548781,-4.806250,18.518751,20.268751,29.378,0.57864383,-0.00951602,-0.02895846,-0.81501053
'00:10:42.195,0.059082,0.029297,1.003418,-0.121951,0.792683,-0.548781,-4.450000,17.875000,19.743750,29.348,0.57864624,-0.00958646,-0.02895158,-0.81500824
'00:10:42.204,0.059082,0.027832,1.001953,-0.060976,0.853659,-0.548781,-4.450000,17.875000,19.743750,29.363,0.57864855,-0.00964217,-0.02893996,-0.81500635
'00:10:42.214,0.060547,0.028809,1.002930,0.182927,1.219512,-0.609756,-4.425000,18.031250,19.831251,29.378,0.57865237,-0.00967259,-0.02894251,-0.81500320
'00:10:42.224,0.060059,0.029297,1.003418,0.304878,1.219512,-0.609756,-4.425000,18.031250,19.831251,29.378,0.57865614,-0.00969151,-0.02895426,-0.81499988
'00:10:42.237,0.058594,0.030762,1.002930,0.060976,0.975610,-0.548781,-4.418750,17.881250,19.812500,29.393,0.57866156,-0.00973378,-0.02896261,-0.81499522
'00:10:42.244,0.058594,0.030273,1.002930,-0.304878,0.609756,-0.548781,-4.418750,17.881250,19.812500,29.378,0.57866362,-0.00978861,-0.02895967,-0.81499321
'00:10:42.254,0.061523,0.027832,1.001953,-0.304878,0.670732,-0.487805,-4.662500,18.181250,19.981251,29.393,0.57866043,-0.00987759,-0.02893777,-0.81499518
'00:10:42.264,0.062012,0.025879,1.000977,0.548781,1.463415,-0.548781,-4.662500,18.181250,19.981251,29.333,0.57865590,-0.00987653,-0.02892803,-0.81499875
'00:10:42.275,0.061035,0.028320,1.001465,1.341463,2.378049,-0.670732,-4.668750,18.275000,20.050001,29.333,0.57864566,-0.00974379,-0.02894120,-0.81500716
'00:10:42.284,0.057617,0.032227,1.004883,1.158537,2.195122,-0.670732,-4.668750,18.275000,20.050001,29.393,0.57863631,-0.00962493,-0.02895509,-0.81501472
'00:10:42.294,0.057617,0.032227,1.004883,1.158537,2.195122,-0.670732,-4.518750,18.012501,19.881250,29.393,0.57863135,-0.00949989,-0.02897676,-0.81501893
'00:10:42.304,0.057129,0.032227,1.006348,-0.060976,0.914634,-0.609756,-4.518750,18.012501,19.881250,29.348,0.57862673,-0.00952638,-0.02897363,-0.81502202
'00:10:42.317,0.062012,0.026367,1.000488,-0.365854,0.609756,-0.487805,-4.481250,17.893751,19.931250,29.393,0.57863165,-0.00967906,-0.02894621,-0.81501770
'00:10:42.324,0.062012,0.026367,1.000488,-0.365854,0.609756,-0.487805,-4.481250,17.893751,19.931250,29.393,0.57863413,-0.00975967,-0.02893156,-0.81501550
'00:10:42.334,0.062012,0.026367,1.000488,0.914634,1.890244,-0.609756,-4.468750,17.950001,19.912500,29.393,0.57863536,-0.00971907,-0.02893955,-0.81501483
'00:10:42.344,0.060547,0.028320,1.003418,1.707317,2.804878,-0.670732,-4.468750,17.950001,19.912500,29.378,0.57863496,-0.00955698,-0.02896191,-0.81501623
'00:10:42.355,0.057617,0.031250,1.007324,0.000000,1.036585,-0.548781,-4.450000,17.956251,19.843750,29.393,0.57863924,-0.00958345,-0.02895679,-0.81501306
'00:10:42.364,0.057617,0.031250,1.007324,0.000000,1.036585,-0.548781,-4.450000,17.956251,19.843750,29.393,0.57864270,-0.00960473,-0.02895263,-0.81501051
'00:10:42.374,0.060059,0.030273,1.004395,-0.670732,0.243902,-0.487805,-4.531250,18.087500,19.956251,29.363,0.57864510,-0.00973367,-0.02894198,-0.81500765
'00:10:42.384,0.061035,0.027344,1.003418,-0.548781,0.426829,-0.487805,-4.531250,18.087500,19.956251,29.363,0.57864842,-0.00985915,-0.02891817,-0.81500463
'00:10:42.396,0.061523,0.027832,1.000977,0.182927,1.097561,-0.548781,-4.537500,18.025000,19.912500,29.393,0.57864762,-0.00990572,-0.02891644,-0.81500469
'00:10:42.404,0.061035,0.028320,1.002441,0.731707,1.768293,-0.609756,-4.537500,18.025000,19.912500,29.423,0.57864523,-0.00987174,-0.02891961,-0.81500669
'00:10:42.414,0.059082,0.030762,1.002930,0.731707,1.768293,-0.609756,-4.443750,17.893751,19.843750,29.363,0.57864577,-0.00981264,-0.02893425,-0.81500650
'00:10:42.424,0.059082,0.029785,1.003906,0.304878,1.280488,-0.609756,-4.443750,17.893751,19.843750,29.408,0.57864502,-0.00981448,-0.02893693,-0.81500691
'00:10:42.436,0.059082,0.029785,1.004395,-0.060976,0.914634,-0.548781,-4.412500,17.925001,19.762501,29.363,0.57865171,-0.00987268,-0.02893482,-0.81500154
'00:10:42.444,0.060059,0.027832,1.002441,0.000000,1.036585,-0.548781,-4.412500,17.925001,19.762501,29.423,0.57865665,-0.00991257,-0.02892662,-0.81499784
'00:10:42.454,0.060547,0.027344,1.003418,0.426829,1.402439,-0.548781,-4.443750,17.925001,19.818750,29.408,0.57866169,-0.00991697,-0.02892444,-0.81499428
'00:10:42.464,0.060059,0.028809,1.002930,0.609756,1.585366,-0.609756,-4.818750,18.431250,20.193750,29.393,0.57864676,-0.00987473,-0.02891450,-0.81500575
'00:10:42.476,0.060059,0.029297,1.001465,0.548781,1.585366,-0.609756,-4.818750,18.431250,20.193750,29.393,0.57862882,-0.00982661,-0.02890174,-0.81501952
'00:10:42.484,0.060547,0.029785,1.002441,0.487805,1.524390,-0.609756,-4.700000,18.306250,20.068750,29.363,0.57862128,-0.00980563,-0.02890110,-0.81502515
'00:10:42.494,0.058594,0.028809,1.002930,0.670732,1.707317,-0.609756,-4.700000,18.306250,20.068750,29.393,0.57861280,-0.00975050,-0.02889061,-0.81503220
'00:10:42.504,0.059570,0.029297,1.004395,0.426829,1.402439,-0.609756,-4.412500,17.937500,19.837500,29.363,0.57861605,-0.00974593,-0.02889921,-0.81502964
'00:10:42.516,0.061035,0.028809,1.003906,0.182927,1.219512,-0.548781,-4.412500,17.937500,19.837500,29.363,0.57862435,-0.00978353,-0.02890354,-0.81502315
'00:10:42.524,0.061523,0.028320,1.001953,0.548781,1.585366,-0.609756,-4.425000,17.943750,19.800001,29.393,0.57862690,-0.00977589,-0.02891170,-0.81502114
'00:10:42.534,0.060547,0.029297,1.002930,1.036585,2.073171,-0.670732,-4.425000,17.943750,19.800001,29.363,0.57862724,-0.00969727,-0.02893319,-0.81502108
'00:10:42.544,0.059082,0.030762,1.002441,1.402439,2.500000,-0.731707,-4.443750,17.968750,19.812500,29.378,0.57862366,-0.00955583,-0.02896075,-0.81502431
'00:10:42.556,0.053223,0.036133,1.010742,0.060976,1.097561,-0.548781,-4.443750,17.968750,19.812500,29.363,0.57862855,-0.00952145,-0.02896855,-0.81502096
'00:10:42.564,0.062012,0.027344,1.000977,0.914634,2.012195,-0.609756,-4.793750,18.462500,20.200001,29.393,0.57862029,-0.00947106,-0.02896300,-0.81502761
'00:10:42.574,0.062500,0.025391,0.999512,-0.060976,0.792683,-0.426829,-4.793750,18.462500,20.200001,29.408,0.57861958,-0.00955602,-0.02893981,-0.81502794
'00:10:42.584,0.055176,0.034180,1.009766,0.243902,1.280488,-0.548781,-4.800000,18.456251,20.162500,29.408,0.57860958,-0.00951110,-0.02892988,-0.81503592
'00:10:42.596,0.060059,0.029297,1.005371,0.731707,1.768293,-0.670732,-4.800000,18.456251,20.162500,29.393,0.57859039,-0.00944349,-0.02892287,-0.81505058
'00:10:42.604,0.063477,0.025391,1.000488,0.243902,1.158537,-0.548781,-4.475000,17.975000,19.850000,29.408,0.57859391,-0.00949329,-0.02892173,-0.81504755
'00:10:42.614,0.058594,0.029785,1.004883,0.121951,1.036585,-0.548781,-4.475000,17.975000,19.850000,29.378,0.57859713,-0.00952318,-0.02892159,-0.81504492
'00:10:42.624,0.057617,0.031738,1.005371,0.487805,1.402439,-0.609756,-4.468750,17.900000,19.806250,29.393,0.57859576,-0.00949358,-0.02893504,-0.81504576
'00:10:42.637,0.060547,0.028320,1.002441,0.487805,1.463415,-0.609756,-4.468750,17.900000,19.806250,29.393,0.57859500,-0.00949073,-0.02893958,-0.81504617
'00:10:42.644,0.060059,0.027832,1.002441,0.243902,1.219512,-0.548781,-4.431250,17.937500,19.806250,29.348,0.57859955,-0.00951160,-0.02893772,-0.81504276
'00:10:42.654,0.058105,0.030762,1.003418,0.243902,1.219512,-0.548781,-4.431250,17.937500,19.806250,29.348,0.57860547,-0.00951766,-0.02894372,-0.81503827
'00:10:42.664,0.057617,0.030273,1.003906,0.365854,1.341463,-0.609756,-4.431250,17.875000,19.806250,29.393,0.57860618,-0.00950695,-0.02894571,-0.81503782
'00:10:42.676,0.061035,0.029785,1.002441,0.365854,1.341463,-0.548781,-4.618750,18.150000,20.000000,29.423,0.57860292,-0.00951115,-0.02895109,-0.81503990
'00:10:42.684,0.060059,0.029785,1.002441,0.304878,1.219512,-0.487805,-4.618750,18.150000,20.000000,29.393,0.57860394,-0.00951906,-0.02895290,-0.81503901
'00:10:42.694,0.060059,0.030762,1.004883,0.365854,1.402439,-0.609756,-4.618750,18.150000,20.000000,29.393,0.57859686,-0.00950792,-0.02895489,-0.81504410
'00:10:42.704,0.060547,0.029297,1.004883,0.426829,1.402439,-0.548781,-4.562500,18.181250,19.962500,29.363,0.57859917,-0.00950653,-0.02895990,-0.81504230
'00:10:42.716,0.060059,0.028809,1.004395,0.365854,1.341463,-0.609756,-4.468750,17.825001,19.837500,29.393,0.57859566,-0.00951411,-0.02895843,-0.81504476
'00:10:42.724,0.060059,0.029785,1.004395,0.304878,1.341463,-0.609756,-4.468750,17.825001,19.837500,29.363,0.57859310,-0.00951831,-0.02895854,-0.81504652
'00:10:42.734,0.058105,0.029297,1.003418,0.365854,1.341463,-0.609756,-4.381250,17.900000,19.850000,29.363,0.57859791,-0.00951820,-0.02896127,-0.81504301
'00:10:42.744,0.058105,0.029785,1.004395,0.365854,1.341463,-0.609756,-4.381250,17.900000,19.850000,29.363,0.57860260,-0.00951583,-0.02896639,-0.81503952
'00:10:42.756,0.060059,0.029297,1.002930,0.365854,1.341463,-0.609756,-4.393750,17.950001,19.850000,29.363,0.57860845,-0.00952894,-0.02897941,-0.81503475
'00:10:42.764,0.058594,0.030273,1.004883,0.243902,1.219512,-0.548781,-4.393750,17.950001,19.850000,29.363,0.57861535,-0.00953922,-0.02898497,-0.81502954
'00:10:42.774,0.058105,0.029785,1.003418,0.243902,1.219512,-0.609756,-4.768750,18.431250,20.175001,29.393,0.57860313,-0.00953527,-0.02896862,-0.81503884
'00:10:42.784,0.059570,0.029297,1.002930,0.243902,1.219512,-0.548781,-4.768750,18.431250,20.175001,29.393,0.57859539,-0.00954179,-0.02895581,-0.81504472
'00:10:42.796,0.059082,0.030273,1.002930,0.060976,1.036585,-0.548781,-4.606250,18.150000,19.975000,29.423,0.57859194,-0.00957502,-0.02894837,-0.81504704
'00:10:42.804,0.060059,0.028809,1.001465,0.060976,1.036585,-0.548781,-4.606250,18.150000,19.975000,29.363,0.57858983,-0.00960621,-0.02894037,-0.81504846
'00:10:42.814,0.062012,0.027344,1.000488,1.097561,2.134146,-0.670732,-4.512500,17.968750,19.825001,29.393,0.57858543,-0.00953444,-0.02895228,-0.81505200
'00:10:42.824,0.058594,0.032227,1.007812,-0.182927,0.731707,-0.487805,-4.512500,17.968750,19.825001,29.408,0.57858870,-0.00958774,-0.02895505,-0.81504895
'00:10:42.834,0.054688,0.033691,1.008789,0.670732,1.768293,-0.670732,-4.475000,17.943750,19.781250,29.393,0.57858425,-0.00949652,-0.02896098,-0.81505297
'00:10:42.844,0.064453,0.025391,0.998535,0.487805,1.524390,-0.609756,-4.475000,17.943750,19.781250,29.363,0.57858482,-0.00952465,-0.02896198,-0.81505220
'00:10:42.854,0.060547,0.028320,1.002441,0.060976,1.036585,-0.548781,-4.450000,17.993750,19.856251,29.408,0.57859022,-0.00957651,-0.02895961,-0.81504784
'00:10:42.864,0.056641,0.031738,1.007324,0.304878,1.341463,-0.609756,-4.450000,17.993750,19.856251,29.408,0.57859163,-0.00955617,-0.02896113,-0.81504703
'00:10:42.875,0.059082,0.028809,1.002441,0.426829,1.463415,-0.609756,-4.868750,18.568750,20.237501,29.378,0.57857506,-0.00952862,-0.02893818,-0.81505993
'00:10:42.884,0.060059,0.028320,1.000000,0.182927,1.158537,-0.548781,-4.868750,18.568750,20.237501,29.393,0.57856472,-0.00954429,-0.02891989,-0.81506774
'00:10:42.894,0.057129,0.030273,1.004883,0.365854,1.341463,-0.609756,-4.787500,18.450001,20.168751,29.393,0.57855230,-0.00951717,-0.02890464,-0.81507741
'00:10:42.904,0.060059,0.029785,1.002930,0.426829,1.402439,-0.609756,-4.787500,18.450001,20.168751,29.393,0.57854022,-0.00950170,-0.02890064,-0.81508631
'00:10:42.916,0.061523,0.028809,1.001953,0.304878,1.280488,-0.609756,-4.443750,17.962500,19.837500,29.408,0.57854245,-0.00953316,-0.02891356,-0.81508390
'00:10:42.924,0.060059,0.029785,1.004883,0.243902,1.219512,-0.609756,-4.443750,17.962500,19.837500,29.363,0.57854361,-0.00954932,-0.02891976,-0.81508267
'00:10:42.934,0.059570,0.029785,1.004395,0.365854,1.402439,-0.609756,-4.437500,17.962500,19.818750,29.363,0.57854611,-0.00954780,-0.02892558,-0.81508070
'00:10:42.944,0.060547,0.029297,1.004395,0.365854,1.341463,-0.548781,-4.437500,17.962500,19.818750,29.393,0.57855284,-0.00955828,-0.02893544,-0.81507545
'00:10:42.957,0.059082,0.029785,1.003418,0.304878,1.280488,-0.548781,-4.443750,17.931250,19.843750,29.408,0.57855958,-0.00956723,-0.02894121,-0.81507035
'00:10:42.964,0.059082,0.029785,1.001953,0.365854,1.402439,-0.548781,-4.443750,17.931250,19.843750,29.393,0.57856342,-0.00956392,-0.02894338,-0.81506759
'00:10:42.974,0.060059,0.028809,1.001953,0.365854,1.402439,-0.609756,-4.681250,18.256250,20.100000,29.408,0.57855448,-0.00955860,-0.02893297,-0.81507437
'00:10:42.984,0.059570,0.029297,1.001953,0.365854,1.341463,-0.609756,-4.593750,18.137501,19.912500,29.408,0.57854946,-0.00955639,-0.02893121,-0.81507802
'00:10:42.995,0.059570,0.030273,1.005859,0.304878,1.341463,-0.548781,-4.593750,18.137501,19.912500,29.393,0.57854848,-0.00955230,-0.02892890,-0.81507885
'00:10:43.004,0.059082,0.029297,1.005371,0.304878,1.219512,-0.609756,-4.625000,18.162500,19.943750,29.423,0.57854217,-0.00955651,-0.02892432,-0.81508344
'00:10:43.014,0.060059,0.028320,1.002930,0.365854,1.280488,-0.548781,-4.625000,18.162500,19.943750,29.438,0.57853987,-0.00956383,-0.02891984,-0.81508514
'00:10:43.024,0.060547,0.030273,1.002441,0.304878,1.280488,-0.609756,-4.481250,17.906250,19.843750,29.378,0.57853744,-0.00957430,-0.02893026,-0.81508638
'00:10:43.036,0.059570,0.029785,1.004395,0.365854,1.402439,-0.609756,-4.481250,17.906250,19.843750,29.393,0.57853511,-0.00956787,-0.02893125,-0.81508807
'00:10:43.045,0.059570,0.028809,1.003906,0.365854,1.402439,-0.548781,-4.450000,17.887501,19.850000,29.378,0.57853903,-0.00956860,-0.02892887,-0.81508536
'00:10:43.054,0.059570,0.028809,1.003906,0.365854,1.402439,-0.548781,-4.450000,17.887501,19.850000,29.378,0.57854295,-0.00956931,-0.02892650,-0.81508266
'00:10:43.064,0.059570,0.029785,1.001465,0.304878,1.280488,-0.548781,-4.456250,17.912500,19.850000,29.348,0.57854681,-0.00957823,-0.02893247,-0.81507960
'00:10:43.075,0.060059,0.029297,1.002930,0.365854,1.280488,-0.548781,-4.456250,17.912500,19.850000,29.393,0.57855118,-0.00958939,-0.02894206,-0.81507603
'00:10:43.084,0.059082,0.030273,1.004395,0.365854,1.280488,-0.548781,-4.750000,18.331251,20.162500,29.378,0.57854360,-0.00957881,-0.02893798,-0.81508168
'00:10:43.094,0.060547,0.030273,1.004883,0.243902,1.219512,-0.609756,-4.750000,18.331251,20.162500,29.363,0.57853061,-0.00958560,-0.02893366,-0.81509097
'00:10:43.104,0.059082,0.029297,1.004395,0.243902,1.219512,-0.609756,-4.706250,18.225000,20.062500,29.378,0.57851892,-0.00958926,-0.02891944,-0.81509973
'00:10:43.114,0.059082,0.028809,1.003418,0.182927,1.219512,-0.609756,-4.706250,18.225000,20.062500,29.393,0.57850733,-0.00959818,-0.02889877,-0.81510859
'00:10:43.124,0.060059,0.029297,1.003418,0.182927,1.219512,-0.548781,-4.487500,17.968750,19.856251,29.408,0.57851018,-0.00962039,-0.02889680,-0.81510637
'00:10:43.134,0.058594,0.030273,1.003906,-0.121951,0.853659,-0.548781,-4.487500,17.968750,19.856251,29.393,0.57851166,-0.00967121,-0.02889112,-0.81510492
'00:10:43.144,0.060547,0.028809,1.002930,-0.182927,0.792683,-0.487805,-4.456250,17.931250,19.812500,29.423,0.57851894,-0.00974747,-0.02888570,-0.81509904
'00:10:43.154,0.060547,0.028320,1.000000,0.121951,1.097561,-0.548781,-4.456250,17.931250,19.812500,29.378,0.57852283,-0.00978800,-0.02888492,-0.81509582
'00:10:43.164,0.060059,0.028809,1.001953,0.426829,1.402439,-0.548781,-4.418750,17.937500,19.850000,29.393,0.57853020,-0.00978824,-0.02889344,-0.81509028
'00:10:43.174,0.061523,0.028320,1.003418,0.853659,1.829268,-0.670732,-4.418750,17.937500,19.850000,29.408,0.57853035,-0.00974623,-0.02891319,-0.81508998
'00:10:43.184,0.059570,0.029297,1.004395,0.914634,1.951220,-0.609756,-4.731250,18.306250,20.118750,29.393,0.57852066,-0.00966404,-0.02891154,-0.81509789
'00:10:43.194,0.059570,0.029785,1.004395,0.792683,1.829268,-0.670732,-4.731250,18.306250,20.118750,29.408,0.57850631,-0.00959583,-0.02891040,-0.81510892
'00:10:43.204,0.058105,0.030273,1.004883,0.365854,1.280488,-0.548781,-4.762500,18.393751,20.100000,29.393,0.57849888,-0.00957861,-0.02890312,-0.81511466
'00:10:43.214,0.060059,0.030273,1.004883,-0.182927,0.792683,-0.548781,-4.762500,18.393751,20.100000,29.423,0.57848977,-0.00963484,-0.02888935,-0.81512095
'00:10:43.224,0.060059,0.030273,1.002441,-0.609756,0.304878,-0.487805,-4.500000,17.937500,19.787500,29.363,0.57849250,-0.00975648,-0.02888178,-0.81511783
'00:10:43.234,0.061035,0.027344,1.000000,-0.365854,0.609756,-0.548781,-4.500000,17.937500,19.787500,29.363,0.57849220,-0.00986017,-0.02886417,-0.81511742
'00:10:43.246,0.061523,0.027344,1.000488,0.670732,1.707317,-0.670732,-4.443750,17.918751,19.812500,29.393,0.57848969,-0.00983335,-0.02887212,-0.81511924
'00:10:43.254,0.058594,0.029297,1.004883,1.097561,2.195122,-0.670732,-4.537500,17.968750,19.843750,29.438,0.57848468,-0.00974623,-0.02887501,-0.81512374
'00:10:43.264,0.057129,0.031738,1.008301,0.000000,0.975610,-0.548781,-4.537500,17.968750,19.843750,29.378,0.57848281,-0.00976208,-0.02886888,-0.81512510
'00:10:43.274,0.059082,0.030273,1.003418,-1.097561,-0.182927,-0.426829,-4.693750,18.200001,20.050001,29.333,0.57847951,-0.00992769,-0.02883720,-0.81512657
'00:10:43.284,0.062988,0.026367,1.000488,-0.670732,0.304878,-0.487805,-4.693750,18.200001,20.050001,29.363,0.57847390,-0.01007264,-0.02880611,-0.81512987
'00:10:43.294,0.062988,0.026367,1.000488,0.731707,1.707317,-0.609756,-4.750000,18.325001,20.031250,29.423,0.57846321,-0.01004272,-0.02880302,-0.81513793
'00:10:43.305,0.059570,0.028809,1.005859,0.975610,2.012195,-0.609756,-4.750000,18.325001,20.031250,29.363,0.57845223,-0.00994028,-0.02879983,-0.81514709
'00:10:43.314,0.060059,0.028809,1.003418,0.487805,1.402439,-0.548781,-4.506250,17.975000,19.868750,29.378,0.57845419,-0.00993106,-0.02880661,-0.81514557
'00:10:43.324,0.063477,0.025879,0.999512,1.036585,2.073171,-0.609756,-4.506250,17.975000,19.868750,29.408,0.57845462,-0.00987751,-0.02881772,-0.81514552
'00:10:43.334,0.060547,0.027832,1.001953,2.073171,3.170732,-0.731707,-4.512500,18.062500,19.893751,29.378,0.57845123,-0.00967000,-0.02884704,-0.81514938
'00:10:43.344,0.049805,0.038086,1.013184,0.975610,2.073171,-0.670732,-4.512500,18.062500,19.893751,29.393,0.57844699,-0.00949392,-0.02886455,-0.81515384
'00:10:43.354,0.061523,0.027344,1.000000,-0.609756,0.365854,-0.548781,-4.525000,18.031250,19.918751,29.363,0.57844632,-0.00963423,-0.02884459,-0.81515338
'00:10:43.364,0.058594,0.030762,1.004883,-0.426829,0.609756,-0.487805,-4.525000,18.031250,19.918751,29.423,0.57844995,-0.00971440,-0.02883128,-0.81515032
'00:10:43.374,0.058105,0.029785,1.005859,-0.975610,-0.121951,-0.487805,-4.531250,17.981251,19.875000,29.378,0.57845002,-0.00987291,-0.02880642,-0.81514924
'00:10:43.384,0.060547,0.026367,1.002930,-1.097561,-0.182927,-0.426829,-4.531250,17.981251,19.875000,29.408,0.57845451,-0.01006800,-0.02876740,-0.81514505
'00:10:43.394,0.063477,0.026367,1.000000,-0.243902,0.731707,-0.487805,-4.718750,18.287500,20.106251,29.393,0.57845027,-0.01016165,-0.02874819,-0.81514758
'00:10:43.404,0.062988,0.026367,0.998047,1.158537,2.256098,-0.670732,-4.718750,18.287500,20.106251,29.393,0.57843796,-0.01007219,-0.02875093,-0.81515732
'00:10:43.414,0.059570,0.028809,1.004395,1.951220,2.987805,-0.670732,-4.675000,18.200001,20.062500,29.378,0.57842923,-0.00986329,-0.02877240,-0.81516532
'00:10:43.424,0.058594,0.031250,1.005371,1.158537,2.256098,-0.670732,-4.675000,18.200001,20.062500,29.393,0.57841785,-0.00973399,-0.02878410,-0.81517453
'00:10:43.434,0.060059,0.028809,1.003906,0.609756,1.585366,-0.548781,-4.437500,17.893751,19.800001,29.393,0.57842441,-0.00971102,-0.02879541,-0.81516975
'00:10:43.444,0.060547,0.027832,1.004883,0.548781,1.524390,-0.609756,-4.437500,17.893751,19.800001,29.378,0.57842664,-0.00970218,-0.02880126,-0.81516807
'00:10:43.454,0.060547,0.028809,1.006348,0.609756,1.585366,-0.548781,-4.487500,17.968750,19.825001,29.423,0.57843125,-0.00967967,-0.02881094,-0.81516472
'00:10:43.464,0.057617,0.031738,1.004883,0.060976,0.975610,-0.548781,-4.487500,17.968750,19.825001,29.393,0.57843335,-0.00970024,-0.02881791,-0.81516274
'00:10:43.474,0.059082,0.031250,1.002930,-0.853659,0.121951,-0.487805,-4.443750,17.893751,19.856251,29.393,0.57843811,-0.00983993,-0.02880841,-0.81515802
'00:10:43.484,0.061523,0.026367,1.000000,-0.792683,0.121951,-0.426829,-4.443750,17.893751,19.856251,29.363,0.57844789,-0.01000924,-0.02878578,-0.81514982
'00:10:43.494,0.062988,0.025391,1.000488,0.548781,1.524390,-0.609756,-4.718750,18.231251,20.118750,29.408,0.57843672,-0.01000767,-0.02877383,-0.81515819
'00:10:43.504,0.060059,0.028809,1.002930,1.463415,2.500000,-0.670732,-4.875000,18.456251,20.256250,29.393,0.57841792,-0.00985396,-0.02877782,-0.81517326
'00:10:43.514,0.059570,0.030273,1.002441,1.524390,2.560976,-0.670732,-4.875000,18.456251,20.256250,29.363,0.57839934,-0.00968678,-0.02878983,-0.81518802
'00:10:43.524,0.058594,0.029785,1.006836,1.158537,2.256098,-0.670732,-4.487500,17.943750,19.887501,29.378,0.57839664,-0.00957370,-0.02880194,-0.81519085
'00:10:43.534,0.058105,0.031250,1.007812,0.182927,1.158537,-0.548781,-4.487500,17.943750,19.887501,29.423,0.57839894,-0.00958089,-0.02880607,-0.81518899
'00:10:43.544,0.059082,0.030762,1.004883,-0.792683,0.000000,-0.426829,-4.456250,17.962500,19.837500,29.393,0.57840899,-0.00973002,-0.02880443,-0.81518015
'00:10:43.554,0.061035,0.029785,1.001465,-1.158537,-0.304878,-0.487805,-4.456250,17.962500,19.837500,29.363,0.57841338,-0.00993254,-0.02879560,-0.81517490
'00:10:43.564,0.063477,0.026367,0.998535,-0.609756,0.426829,-0.487805,-4.468750,17.931250,19.843750,29.408,0.57841870,-0.01007952,-0.02877820,-0.81516994
'00:10:43.574,0.061523,0.026367,1.000977,0.670732,1.768293,-0.609756,-4.468750,17.931250,19.843750,29.393,0.57841969,-0.01005248,-0.02877539,-0.81516967
'00:10:43.584,0.060059,0.027832,1.004395,1.036585,2.134146,-0.670732,-4.593750,18.081251,19.993750,29.408,0.57841147,-0.00996065,-0.02877469,-0.81517665
'00:10:43.594,0.060059,0.029297,1.004883,1.036585,2.073171,-0.670732,-4.593750,18.081251,19.993750,29.408,0.57840297,-0.00986853,-0.02878548,-0.81518342
'00:10:43.605,0.057617,0.029785,1.006348,0.975610,1.951220,-0.670732,-4.650000,18.162500,19.943750,29.363,0.57839138,-0.00976145,-0.02878843,-0.81519283
'00:10:43.614,0.056152,0.032715,1.008789,-0.304878,0.609756,-0.548781,-4.650000,18.162500,19.943750,29.348,0.57838538,-0.00980104,-0.02877873,-0.81519696
'00:10:43.624,0.055664,0.031250,1.004883,-2.012195,-1.219512,-0.365854,-4.462500,17.931250,19.875000,29.363,0.57839405,-0.01007285,-0.02873964,-0.81518887
'00:10:43.634,0.059082,0.028809,0.999512,-2.560976,-1.707317,-0.304878,-4.462500,17.931250,19.875000,29.408,0.57840518,-0.01043370,-0.02868815,-0.81517825
'00:10:43.644,0.064453,0.025391,0.997070,-1.768293,-0.792683,-0.426829,-4.500000,17.881250,19.812500,29.423,0.57840696,-0.01072540,-0.02864618,-0.81517467
'00:10:43.655,0.067383,0.023438,0.998047,0.182927,1.158537,-0.548781,-4.500000,17.881250,19.812500,29.393,0.57840650,-0.01080656,-0.02864478,-0.81517398
'00:10:43.664,0.065430,0.024902,0.999023,2.012195,3.109756,-0.792683,-4.493750,17.843750,19.875000,29.363,0.57839556,-0.01064839,-0.02867189,-0.81518287
'00:10:43.674,0.061035,0.028320,1.002930,2.987805,4.085366,-0.792683,-4.493750,17.843750,19.875000,29.333,0.57838650,-0.01031685,-0.02872242,-0.81519178
'00:10:43.684,0.059082,0.031250,1.010254,2.378049,3.414634,-0.731707,-4.462500,17.887501,19.850000,29.393,0.57838281,-0.01004679,-0.02877274,-0.81519600
'00:10:43.694,0.055176,0.033691,1.011719,-0.060976,0.914634,-0.609756,-4.462500,17.887501,19.850000,29.393,0.57837941,-0.01004924,-0.02877301,-0.81519837
'00:10:43.704,0.059570,0.029785,1.004883,-1.768293,-0.914634,-0.365854,-4.712500,18.250000,20.187500,29.378,0.57837734,-0.01030108,-0.02872984,-0.81519822
'00:10:43.714,0.062012,0.026367,1.000488,-1.585366,-0.670732,-0.426829,-4.712500,18.250000,20.187500,29.378,0.57837190,-0.01055090,-0.02867973,-0.81520065
'00:10:43.724,0.062988,0.024414,0.998535,-0.182927,0.731707,-0.548781,-4.631250,18.118750,20.012501,29.393,0.57836590,-0.01064296,-0.02865632,-0.81520453
'00:10:43.734,0.062988,0.024902,0.998047,1.646341,2.743902,-0.670732,-4.631250,18.118750,20.012501,29.423,0.57835773,-0.01049627,-0.02866481,-0.81521193
'00:10:43.744,0.060059,0.028320,1.003906,2.743902,3.902439,-0.792683,-4.475000,17.856251,19.812500,29.378,0.57835027,-0.01018800,-0.02870536,-0.81521971
'00:10:43.754,0.056152,0.032715,1.008301,1.951220,2.987805,-0.731707,-4.475000,17.856251,19.812500,29.393,0.57834387,-0.00994836,-0.02874332,-0.81522587
'00:10:43.764,0.056641,0.032715,1.007812,0.060976,0.975610,-0.548781,-4.512500,17.893751,19.875000,29.393,0.57834210,-0.00995241,-0.02874793,-0.81522691
'00:10:43.774,0.056641,0.032715,1.007812,0.060976,0.975610,-0.548781,-4.606250,18.106251,19.981251,29.393,0.57833811,-0.00995392,-0.02874960,-0.81522967
'00:10:43.784,0.061035,0.028809,1.005371,-1.036585,-0.121951,-0.487805,-4.606250,18.106251,19.981251,29.393,0.57833542,-0.01013003,-0.02872481,-0.81523028
'00:10:43.794,0.063477,0.027344,1.001465,-0.853659,0.060976,-0.426829,-4.987500,18.625000,20.337500,29.333,0.57832225,-0.01028631,-0.02868906,-0.81523892
'00:10:43.804,0.063477,0.026367,1.000488,-0.365854,0.609756,-0.548781,-4.987500,18.625000,20.337500,29.408,0.57830224,-0.01038053,-0.02865575,-0.81525310
'00:10:43.815,0.062500,0.026855,1.000977,1.585366,2.560976,-0.670732,-4.700000,18.106251,20.037500,29.408,0.57828751,-0.01022426,-0.02867392,-0.81526488
'00:10:43.824,0.062500,0.026855,1.000977,1.585366,2.560976,-0.670732,-4.700000,18.106251,20.037500,29.408,0.57827571,-0.01009856,-0.02868881,-0.81527429
'00:10:43.834,0.060547,0.027832,1.002441,2.256098,3.353659,-0.731707,-4.450000,17.918751,19.843750,29.348,0.57827475,-0.00986809,-0.02872598,-0.81527649
'00:10:43.844,0.059570,0.028809,1.002441,2.682927,3.780488,-0.792683,-4.450000,17.918751,19.843750,29.393,0.57827106,-0.00957960,-0.02877352,-0.81528087
'00:10:43.854,0.057129,0.032227,1.008789,2.073171,3.231707,-0.792683,-4.493750,17.956251,19.856251,29.333,0.57826303,-0.00933384,-0.02880973,-0.81528814
'00:10:43.864,0.057617,0.030762,1.007324,-0.731707,0.000000,-0.365854,-4.493750,17.956251,19.856251,29.363,0.57827564,-0.00947317,-0.02880313,-0.81527782
'00:10:43.874,0.061035,0.028320,1.001465,-0.426829,0.426829,-0.487805,-4.468750,17.968750,19.843750,29.393,0.57828299,-0.00959656,-0.02880098,-0.81527124
'00:10:43.884,0.060547,0.030273,1.003418,-0.487805,0.487805,-0.487805,-4.468750,17.968750,19.843750,29.408,0.57828981,-0.00970551,-0.02879973,-0.81526516
'00:10:43.894,0.061035,0.028809,1.002441,-0.670732,0.304878,-0.487805,-4.718750,18.268751,20.068750,29.408,0.57828461,-0.00983278,-0.02877518,-0.81526818
'00:10:43.904,0.062988,0.025879,1.000977,-0.243902,0.731707,-0.548781,-4.718750,18.268751,20.068750,29.363,0.57827688,-0.00992904,-0.02875144,-0.81527334
'00:10:43.914,0.062988,0.026367,1.000488,0.975610,2.012195,-0.670732,-4.825000,18.437500,20.243750,29.408,0.57826044,-0.00986542,-0.02874853,-0.81528588
'00:10:43.924,0.061523,0.028320,1.002930,1.951220,2.987805,-0.670732,-4.825000,18.437500,20.243750,29.378,0.57824710,-0.00966787,-0.02877024,-0.81529694
'00:10:43.934,0.058105,0.032227,1.005859,1.890244,2.987805,-0.731707,-4.575000,18.050001,19.956251,29.363,0.57823853,-0.00945008,-0.02880626,-0.81530429
'00:10:43.944,0.053223,0.036621,1.010254,0.182927,1.219512,-0.609756,-4.575000,18.050001,19.956251,29.348,0.57823235,-0.00940114,-0.02881353,-0.81530899
'00:10:43.954,0.057129,0.029297,1.005371,-1.219512,-0.304878,-0.426829,-4.412500,17.868750,19.800001,29.408,0.57824375,-0.00959314,-0.02878252,-0.81529976
'00:10:43.965,0.061035,0.026855,1.000488,-1.341463,-0.426829,-0.426829,-4.412500,17.868750,19.800001,29.454,0.57825575,-0.00985399,-0.02874982,-0.81528929
'00:10:43.974,0.063477,0.024902,1.001465,-0.121951,0.853659,-0.548781,-4.462500,17.943750,19.768751,29.423,0.57825986,-0.00994324,-0.02873951,-0.81528566
'00:10:43.984,0.059082,0.028320,1.004395,0.731707,1.707317,-0.609756,-4.462500,17.943750,19.768751,29.408,0.57826235,-0.00989792,-0.02874658,-0.81528420
'00:10:43.994,0.057617,0.031738,1.003906,0.426829,1.402439,-0.609756,-4.462500,17.856251,19.812500,29.393,0.57826105,-0.00986693,-0.02875929,-0.81528504
'00:10:44.004,0.059082,0.031250,1.005371,-0.304878,0.670732,-0.548781,-4.462500,17.856251,19.812500,29.378,0.57826173,-0.00993552,-0.02875917,-0.81528373
'00:10:44.014,0.062500,0.027344,1.000488,-0.121951,0.914634,-0.548781,-4.875000,18.531250,20.312500,29.423,0.57824857,-0.00999728,-0.02873520,-0.81529316
'00:10:44.024,0.062988,0.026367,1.000000,1.402439,2.500000,-0.670732,-4.875000,18.531250,20.312500,29.393,0.57823219,-0.00987502,-0.02873672,-0.81530621
'00:10:44.034,0.059082,0.029785,1.005859,1.768293,2.743902,-0.731707,-4.662500,18.193750,20.068750,29.363,0.57821988,-0.00968990,-0.02876271,-0.81531625
'00:10:44.044,0.058105,0.031250,1.005859,0.609756,1.646341,-0.609756,-4.475000,18.012501,19.868750,29.408,0.57822230,-0.00964159,-0.02877708,-0.81531460
'00:10:44.054,0.058105,0.030762,1.006836,-0.487805,0.426829,-0.548781,-4.475000,18.012501,19.868750,29.378,0.57822524,-0.00973798,-0.02877147,-0.81531156
'00:10:44.064,0.060059,0.027344,1.006348,-1.341463,-0.426829,-0.487805,-4.487500,17.881250,19.875000,29.393,0.57822631,-0.00995944,-0.02873243,-0.81530951
'00:10:44.074,0.061523,0.027344,1.000488,-0.975610,-0.121951,-0.487805,-4.487500,17.881250,19.875000,29.393,0.57822797,-0.01014698,-0.02871261,-0.81530671
'00:10:44.084,0.061035,0.027832,0.999512,0.060976,1.036585,-0.609756,-4.506250,17.868750,19.856251,29.363,0.57822286,-0.01019073,-0.02870769,-0.81530997
'00:10:44.094,0.062012,0.027832,1.000000,0.792683,1.829268,-0.609756,-4.506250,17.868750,19.856251,29.378,0.57822029,-0.01014600,-0.02871861,-0.81531197
'00:10:44.104,0.060547,0.027344,0.998535,1.951220,3.048780,-0.670732,-4.743750,18.325001,20.018751,29.393,0.57821084,-0.00994236,-0.02873393,-0.81532063
'00:10:44.114,0.059082,0.030762,1.002930,2.317073,3.475610,-0.731707,-4.743750,18.325001,20.018751,29.393,0.57819814,-0.00967009,-0.02876566,-0.81533180
'00:10:44.124,0.056641,0.031738,1.008301,1.219512,2.317073,-0.670732,-4.800000,18.375000,20.156250,29.378,0.57818309,-0.00951887,-0.02876792,-0.81534417
'00:10:44.134,0.057617,0.030762,1.010254,0.060976,1.036585,-0.548781,-4.800000,18.375000,20.156250,29.423,0.57817305,-0.00952869,-0.02875015,-0.81535180
'00:10:44.144,0.058594,0.030273,1.007812,-1.463415,-0.487805,-0.426829,-4.518750,17.937500,19.818750,29.423,0.57817758,-0.00974227,-0.02871575,-0.81534728
'00:10:44.154,0.061523,0.028809,1.003418,-2.134146,-1.280488,-0.365854,-4.518750,17.937500,19.818750,29.423,0.57818364,-0.01006624,-0.02867890,-0.81534034
'00:10:44.164,0.063477,0.026367,1.000977,-1.890244,-0.975610,-0.365854,-4.475000,17.881250,19.843750,29.408,0.57819216,-0.01037498,-0.02864094,-0.81533176
'00:10:44.174,0.065430,0.023926,0.997070,-0.365854,0.548781,-0.487805,-4.475000,17.881250,19.843750,29.393,0.57819700,-0.01051533,-0.02862999,-0.81532692
'00:10:44.184,0.063477,0.025879,0.997070,1.646341,2.804878,-0.670732,-4.481250,17.918751,19.812500,29.408,0.57819626,-0.01037225,-0.02865230,-0.81532849
'00:10:44.194,0.061035,0.028320,1.001953,2.621951,3.780488,-0.792683,-4.481250,17.918751,19.812500,29.378,0.57819002,-0.01008763,-0.02869705,-0.81533491
'00:10:44.204,0.056152,0.032227,1.006348,2.195122,3.292683,-0.670732,-4.918750,18.443750,20.256250,29.393,0.57817085,-0.00980177,-0.02871397,-0.81535140
'00:10:44.214,0.054199,0.033691,1.009766,0.060976,1.097561,-0.548781,-4.918750,18.443750,20.256250,29.378,0.57815330,-0.00976688,-0.02868915,-0.81536513
'00:10:44.224,0.061035,0.027344,1.005859,-1.158537,-0.304878,-0.426829,-4.893750,18.475000,20.275000,29.378,0.57814345,-0.00995971,-0.02864422,-0.81537137
'00:10:44.234,0.063965,0.023926,1.000977,-0.182927,0.792683,-0.548781,-4.893750,18.475000,20.275000,29.408,0.57812886,-0.01005288,-0.02860817,-0.81538183
'00:10:44.244,0.062500,0.027832,1.002441,1.219512,2.195122,-0.670732,-4.406250,17.900000,19.775000,29.378,0.57813197,-0.00997185,-0.02864311,-0.81537940
'00:10:44.254,0.059570,0.031738,1.003906,1.219512,2.195122,-0.670732,-4.406250,17.900000,19.775000,29.363,0.57813448,-0.00985901,-0.02868783,-0.81537742
'00:10:44.264,0.059570,0.031738,1.004883,0.304878,1.341463,-0.609756,-4.493750,17.887501,19.943750,29.363,0.57813141,-0.00984926,-0.02870190,-0.81537922
'00:10:44.274,0.061035,0.029297,1.005371,-0.487805,0.426829,-0.487805,-4.493750,17.887501,19.943750,29.393,0.57813452,-0.00996324,-0.02869696,-0.81537580
'00:10:44.284,0.062500,0.024902,1.003418,-0.548781,0.426829,-0.487805,-4.443750,17.850000,19.837500,29.408,0.57814130,-0.01010772,-0.02867215,-0.81537009
'00:10:44.294,0.061523,0.026367,0.999512,0.304878,1.280488,-0.609756,-4.475000,17.893751,19.737501,29.393,0.57814095,-0.01013349,-0.02867016,-0.81537009
'00:10:44.304,0.059570,0.028809,1.002930,0.731707,1.707317,-0.609756,-4.475000,17.893751,19.737501,29.423,0.57814160,-0.01008524,-0.02868184,-0.81536981
'00:10:44.314,0.059082,0.029785,1.007812,0.000000,0.975610,-0.548781,-4.737500,18.300001,20.112501,29.408,0.57813345,-0.01010916,-0.02866777,-0.81537579
'00:10:44.325,0.058594,0.030762,1.006348,-1.036585,-0.121951,-0.426829,-4.737500,18.300001,20.112501,29.438,0.57812977,-0.01027174,-0.02863680,-0.81537745
'00:10:44.334,0.058594,0.031250,1.001465,-1.768293,-0.914634,-0.365854,-4.681250,18.250000,20.050001,29.363,0.57813058,-0.01048803,-0.02860806,-0.81537514
'00:10:44.344,0.062500,0.028809,1.000977,-1.951220,-1.036585,-0.365854,-4.681250,18.250000,20.050001,29.408,0.57813099,-0.01077474,-0.02857120,-0.81537240
'00:10:44.354,0.063965,0.026367,1.000977,-1.402439,-0.426829,-0.426829,-4.531250,17.893751,19.843750,29.408,0.57813230,-0.01100828,-0.02853883,-0.81536949
'00:10:44.365,0.065430,0.023438,1.000977,-0.243902,0.731707,-0.548781,-4.531250,17.893751,19.843750,29.423,0.57812875,-0.01112816,-0.02851779,-0.81537111
'00:10:44.374,0.068848,0.020508,1.000000,1.768293,2.926829,-0.731707,-4.450000,17.881250,19.875000,29.393,0.57812567,-0.01102521,-0.02853289,-0.81537416
'00:10:44.384,0.063477,0.022461,1.002930,3.902439,5.060976,-0.914634,-4.450000,17.881250,19.875000,29.363,0.57811670,-0.01061425,-0.02858234,-0.81538425
'00:10:44.394,0.054688,0.032715,1.008789,3.353659,4.451220,-0.853659,-4.506250,17.937500,19.943750,29.408,0.57810588,-0.01018467,-0.02864143,-0.81539532
'00:10:44.404,0.053223,0.037109,1.012207,0.000000,0.914634,-0.548781,-4.506250,17.937500,19.943750,29.363,0.57810469,-0.01015582,-0.02865795,-0.81539594
'00:10:44.414,0.055664,0.035156,1.008789,-3.475610,-2.621951,-0.243902,-4.675000,18.218750,20.087500,29.378,0.57810760,-0.01057182,-0.02859775,-0.81539071
'00:10:44.424,0.063477,0.026367,0.999023,-4.207317,-3.475610,-0.243902,-4.675000,18.218750,20.087500,29.408,0.57810841,-0.01116059,-0.02851389,-0.81538522
'00:10:44.434,0.067871,0.021484,0.993164,-2.073171,-1.219512,-0.365854,-4.912500,18.443750,20.268751,29.363,0.57809654,-0.01150617,-0.02844761,-0.81539115
'00:10:44.445,0.068848,0.020508,0.996582,1.097561,2.195122,-0.670732,-4.912500,18.443750,20.268751,29.363,0.57807211,-0.01144611,-0.02843101,-0.81540989
'00:10:44.454,0.063965,0.022461,1.000977,3.475610,4.573171,-0.853659,-4.518750,17.900000,19.868750,29.423,0.57806225,-0.01112037,-0.02846946,-0.81542005
'00:10:44.464,0.058105,0.029785,1.008301,3.231707,4.390244,-0.853659,-4.518750,17.900000,19.868750,29.378,0.57804985,-0.01072410,-0.02851966,-0.81543240
'00:10:44.474,0.055664,0.033203,1.009277,0.853659,1.890244,-0.609756,-4.531250,18.012501,19.893751,29.393,0.57804786,-0.01060494,-0.02853738,-0.81543475
'00:10:44.484,0.060059,0.029785,1.006348,-1.036585,-0.060976,-0.426829,-4.531250,18.012501,19.893751,29.393,0.57805300,-0.01076154,-0.02851806,-0.81542973
'00:10:44.494,0.062012,0.026367,1.001465,-1.585366,-0.731707,-0.426829,-4.475000,17.850000,19.837500,29.348,0.57805681,-0.01101848,-0.02848459,-0.81542476
'00:10:44.504,0.062988,0.026367,1.000000,-1.036585,-0.121951,-0.487805,-4.475000,17.850000,19.837500,29.423,0.57805781,-0.01120616,-0.02846411,-0.81542222
'00:10:44.514,0.066406,0.023438,0.998535,0.487805,1.524390,-0.548781,-4.618750,18.018751,20.012501,29.378,0.57805329,-0.01122182,-0.02845870,-0.81542539
'00:10:44.524,0.066406,0.023438,0.998535,0.487805,1.524390,-0.548781,-4.618750,18.018751,20.012501,29.378,0.57804877,-0.01123726,-0.02845336,-0.81542857
'00:10:44.534,0.065430,0.023438,0.999512,2.378049,3.475610,-0.731707,-4.756250,18.281250,20.087500,29.393,0.57803419,-0.01100718,-0.02847545,-0.81544127
'00:10:44.544,0.060059,0.028809,1.005859,2.987805,4.146341,-0.792683,-4.756250,18.281250,20.087500,29.378,0.57801701,-0.01064945,-0.02851377,-0.81545686
'00:10:44.554,0.057617,0.032715,1.009766,1.341463,2.317073,-0.609756,-4.481250,17.875000,19.862501,29.378,0.57801738,-0.01049065,-0.02855088,-0.81545736
'00:10:44.564,0.059570,0.028809,1.005371,-0.670732,0.243902,-0.426829,-4.437500,17.862501,19.818750,29.423,0.57802768,-0.01061418,-0.02853933,-0.81544886
'00:10:44.574,0.062988,0.025879,1.000977,-0.975610,-0.060976,-0.487805,-4.437500,17.862501,19.818750,29.423,0.57803276,-0.01080506,-0.02852008,-0.81544343
'00:10:44.584,0.063965,0.024902,1.000977,-0.243902,0.731707,-0.548781,-4.425000,17.837500,19.837500,29.408,0.57803620,-0.01090969,-0.02851159,-0.81543989
'00:10:44.594,0.061035,0.028809,1.002441,0.304878,1.280488,-0.548781,-4.425000,17.837500,19.837500,29.378,0.57804068,-0.01091295,-0.02852467,-0.81543622
'00:10:44.604,0.060059,0.029785,1.004883,-0.304878,0.731707,-0.548781,-4.706250,18.168751,20.012501,29.393,0.57803027,-0.01096340,-0.02850744,-0.81544352
'00:10:44.614,0.062988,0.027344,1.004395,-0.853659,0.121951,-0.487805,-4.706250,18.168751,20.012501,29.393,0.57802254,-0.01111050,-0.02848009,-0.81544796
'00:10:44.624,0.063965,0.025879,1.001953,-0.548781,0.365854,-0.548781,-4.675000,18.050001,19.956251,29.393,0.57801115,-0.01123469,-0.02845877,-0.81545508
'00:10:44.634,0.064453,0.023926,0.998535,0.487805,1.524390,-0.609756,-4.675000,18.050001,19.956251,29.393,0.57799952,-0.01123374,-0.02844520,-0.81546381
'00:10:44.645,0.063477,0.026367,0.999512,1.707317,2.804878,-0.670732,-4.593750,17.956251,19.918751,29.378,0.57799026,-0.01105193,-0.02847026,-0.81547199
'00:10:44.654,0.060547,0.029785,1.002930,2.012195,3.109756,-0.731707,-4.593750,17.956251,19.918751,29.423,0.57797946,-0.01084408,-0.02850227,-0.81548131
'00:10:44.664,0.058105,0.030762,1.008301,1.097561,2.134146,-0.670732,-4.506250,17.900000,19.850000,29.393,0.57797387,-0.01071745,-0.02852119,-0.81548628
'00:10:44.674,0.058594,0.028320,1.007324,-0.304878,0.609756,-0.548781,-4.506250,17.900000,19.850000,29.363,0.57797258,-0.01078515,-0.02850532,-0.81548687
'00:10:44.684,0.062012,0.027832,1.005371,-1.219512,-0.365854,-0.426829,-4.525000,17.856251,19.887501,29.378,0.57797406,-0.01098763,-0.02848280,-0.81548390
'00:10:44.694,0.062500,0.025391,1.002441,-1.280488,-0.365854,-0.426829,-4.525000,17.856251,19.887501,29.408,0.57797560,-0.01120353,-0.02844500,-0.81548119
'00:10:44.704,0.063965,0.026367,1.001953,-0.670732,0.243902,-0.487805,-4.537500,17.900000,19.881250,29.393,0.57797440,-0.01134596,-0.02843192,-0.81548052
'00:10:44.714,0.064941,0.025879,1.000000,-0.182927,0.853659,-0.548781,-4.537500,17.900000,19.881250,29.393,0.57797065,-0.01142607,-0.02842472,-0.81548231
'00:10:44.726,0.063965,0.026367,0.999023,0.426829,1.524390,-0.609756,-4.575000,17.962500,19.893751,29.393,0.57796197,-0.01141597,-0.02842489,-0.81548861
'00:10:44.734,0.063477,0.024902,1.000000,1.219512,2.317073,-0.609756,-4.575000,17.962500,19.893751,29.423,0.57795869,-0.01133473,-0.02842956,-0.81549190
'00:10:44.745,0.063965,0.025391,1.003906,2.012195,3.048780,-0.670732,-4.743750,18.168751,20.193750,29.363,0.57794344,-0.01111522,-0.02845111,-0.81550498
'00:10:44.754,0.062012,0.028320,1.006836,2.073171,3.109756,-0.731707,-4.743750,18.168751,20.193750,29.423,0.57792711,-0.01091079,-0.02847694,-0.81551841
'00:10:44.766,0.056641,0.032715,1.011230,0.548781,1.463415,-0.609756,-4.606250,17.993750,20.012501,29.423,0.57791607,-0.01082273,-0.02849142,-0.81552690
'00:10:44.775,0.056641,0.031738,1.009277,-1.890244,-1.036585,-0.426829,-4.606250,17.993750,20.012501,29.393,0.57791215,-0.01103284,-0.02845506,-0.81552813
'00:10:44.784,0.061035,0.029785,1.004395,-3.109756,-2.378049,-0.243902,-4.475000,17.868750,19.918751,29.454,0.57792175,-0.01141777,-0.02841624,-0.81551738
'00:10:44.794,0.066895,0.022461,0.996582,-2.195122,-1.280488,-0.365854,-4.475000,17.868750,19.918751,29.363,0.57792778,-0.01178016,-0.02836722,-0.81550967
'00:10:44.806,0.068848,0.020020,0.994141,0.426829,1.463415,-0.609756,-4.493750,17.787500,19.912500,29.378,0.57792159,-0.01183822,-0.02835635,-0.81551359
'00:10:44.814,0.065918,0.022949,0.998535,2.621951,3.780488,-0.853659,-4.493750,17.787500,19.912500,29.408,0.57790959,-0.01163180,-0.02838355,-0.81552411
'00:10:44.824,0.063477,0.026367,1.003906,3.414634,4.512195,-0.792683,-4.668750,18.050001,20.000000,29.378,0.57789481,-0.01124875,-0.02843683,-0.81553810
'00:10:44.834,0.059570,0.029785,1.008789,2.682927,3.780488,-0.792683,-4.918750,18.468750,20.331251,29.363,0.57786881,-0.01091561,-0.02846652,-0.81556002
'00:10:44.846,0.057129,0.033203,1.013184,0.426829,1.402439,-0.548781,-4.918750,18.468750,20.331251,29.393,0.57784871,-0.01082844,-0.02846264,-0.81557556
'00:10:44.854,0.058105,0.031250,1.008789,-2.378049,-1.524390,-0.304878,-4.487500,17.856251,19.887501,29.378,0.57785562,-0.01107541,-0.02843061,-0.81556846
'00:10:44.864,0.062988,0.026855,1.001953,-3.292683,-2.439024,-0.243902,-4.487500,17.856251,19.887501,29.423,0.57786559,-0.01153886,-0.02836874,-0.81555713
'00:10:44.874,0.069336,0.020996,0.997070,-1.463415,-0.548781,-0.487805,-4.493750,17.781250,19.825001,29.393,0.57786286,-0.01182704,-0.02833370,-0.81555615
'00:10:44.887,0.068359,0.021484,0.996094,1.463415,2.439024,-0.670732,-4.493750,17.781250,19.825001,29.423,0.57785524,-0.01171840,-0.02836244,-0.81556212
'00:10:44.894,0.062500,0.027344,1.003418,2.865854,3.963415,-0.792683,-4.612500,18.006250,19.981251,29.438,0.57784553,-0.01149153,-0.02839576,-0.81557107
'00:10:44.904,0.057617,0.030273,1.007812,1.768293,2.926829,-0.731707,-4.612500,18.006250,19.981251,29.408,0.57783228,-0.01125969,-0.02841276,-0.81558310
'00:10:44.914,0.058105,0.028320,1.010742,-0.243902,0.792683,-0.548781,-4.687500,18.087500,20.000000,29.393,0.57782227,-0.01129190,-0.02837992,-0.81559089
'00:10:44.926,0.060059,0.027832,1.005859,-1.829268,-0.975610,-0.426829,-4.687500,18.087500,20.000000,29.423,0.57781354,-0.01159383,-0.02832096,-0.81559489
'00:10:44.934,0.063477,0.025391,1.000000,-2.012195,-1.097561,-0.365854,-4.731250,18.118750,20.068750,29.393,0.57780868,-0.01182862,-0.02827589,-0.81559652
'00:10:44.944,0.066895,0.024414,0.998535,-0.731707,0.243902,-0.487805,-4.731250,18.118750,20.068750,29.423,0.57779827,-0.01198155,-0.02825212,-0.81560249
'00:10:44.954,0.065918,0.022461,1.000488,0.731707,1.768293,-0.548781,-4.656250,17.968750,19.962500,29.423,0.57779121,-0.01195436,-0.02824263,-0.81560822
'00:10:44.968,0.064453,0.025391,1.003418,1.341463,2.439024,-0.670732,-4.656250,17.968750,19.962500,29.393,0.57777178,-0.01177783,-0.02825681,-0.81562406
'00:10:44.974,0.062500,0.026855,1.003418,1.158537,2.195122,-0.609756,-4.525000,17.843750,19.875000,29.393,0.57776958,-0.01171343,-0.02826742,-0.81562618
'00:10:44.984,0.062988,0.027832,1.002930,0.975610,2.073171,-0.609756,-4.525000,17.843750,19.875000,29.408,0.57776529,-0.01162388,-0.02828598,-0.81562985
'00:10:44.994,0.062012,0.026367,1.004883,0.609756,1.768293,-0.609756,-4.512500,17.787500,19.818750,29.393,0.57776026,-0.01157576,-0.02828041,-0.81563429
'00:10:45.005,0.060059,0.027344,1.006348,0.182927,1.097561,-0.548781,-4.512500,17.787500,19.818750,29.378,0.57775721,-0.01158301,-0.02827508,-0.81563653
'00:10:45.014,0.062988,0.025879,1.001953,-0.182927,0.792683,-0.548781,-4.506250,17.806250,19.887501,29.408,0.57775434,-0.01164697,-0.02826650,-0.81563796
'00:10:45.024,0.063965,0.023438,1.000000,0.609756,1.707317,-0.609756,-4.506250,17.806250,19.887501,29.423,0.57775023,-0.01162799,-0.02825794,-0.81564144
'00:10:45.034,0.065918,0.023926,1.002930,1.951220,2.987805,-0.670732,-4.793750,18.218750,20.131250,29.423,0.57773486,-0.01144651,-0.02827680,-0.81565423
'00:10:45.044,0.061523,0.027832,1.007324,2.012195,3.109756,-0.731707,-4.793750,18.218750,20.131250,29.408,0.57771521,-0.01121508,-0.02829689,-0.81567067
'00:10:45.054,0.058594,0.030273,1.006348,0.609756,1.646341,-0.609756,-4.668750,18.106251,20.118750,29.393,0.57770519,-0.01114188,-0.02830059,-0.81567865
'00:10:45.064,0.059082,0.029297,1.004883,-0.975610,0.000000,-0.487805,-4.668750,18.106251,20.118750,29.393,0.57769857,-0.01127413,-0.02827141,-0.81568252
'00:10:45.074,0.062988,0.024902,1.000000,-1.341463,-0.426829,-0.426829,-4.481250,17.806250,19.812500,29.438,0.57770292,-0.01150146,-0.02823891,-0.81567740
'00:10:45.086,0.067871,0.021973,0.995605,0.121951,1.158537,-0.548781,-4.537500,17.762501,19.818750,29.393,0.57769822,-0.01158942,-0.02822813,-0.81567986
'00:10:45.094,0.066895,0.022949,0.996094,2.500000,3.597561,-0.731707,-4.537500,17.762501,19.818750,29.378,0.57769117,-0.01140443,-0.02825935,-0.81568637
'00:10:45.104,0.063477,0.026855,1.004395,3.780488,4.878049,-0.914634,-4.506250,17.862501,19.862501,29.423,0.57767764,-0.01098628,-0.02833506,-0.81569907
'00:10:45.114,0.058594,0.032227,1.013184,2.439024,3.475610,-0.792683,-4.506250,17.862501,19.862501,29.378,0.57766778,-0.01069064,-0.02839311,-0.81570796
'00:10:45.124,0.054688,0.034180,1.015137,-0.914634,0.000000,-0.487805,-4.668750,18.187500,20.000000,29.363,0.57766350,-0.01078139,-0.02837590,-0.81571040
'00:10:45.134,0.057129,0.030273,1.006836,-3.841464,-3.048780,-0.243902,-4.668750,18.187500,20.000000,29.393,0.57766677,-0.01126660,-0.02829489,-0.81570434
'00:10:45.145,0.066406,0.022461,0.999023,-3.719512,-2.865854,-0.182927,-4.900000,18.381250,20.237501,29.378,0.57766288,-0.01185242,-0.02818604,-0.81570256
'00:10:45.154,0.070801,0.017578,0.989258,0.000000,0.975610,-0.548781,-4.900000,18.381250,20.237501,29.393,0.57764808,-0.01194990,-0.02815627,-0.81571264
'00:10:45.166,0.067383,0.022461,0.993652,4.024390,5.243903,-0.853659,-4.550000,17.850000,19.893751,29.408,0.57763439,-0.01144038,-0.02823588,-0.81572689
'00:10:45.174,0.061035,0.027832,0.999512,5.304878,6.585366,-1.036585,-4.550000,17.850000,19.893751,29.378,0.57761844,-0.01093112,-0.02831012,-0.81574259
'00:10:45.184,0.057617,0.031738,1.003418,4.451220,5.731708,-0.914634,-4.487500,17.875000,19.881250,29.393,0.57760923,-0.01037422,-0.02839759,-0.81575335
'00:10:45.194,0.059570,0.030762,1.007324,3.231707,4.390244,-0.792683,-4.487500,17.875000,19.881250,29.393,0.57760522,-0.00999747,-0.02846594,-0.81575851
'00:10:45.206,0.059082,0.030762,1.014160,1.646341,2.743902,-0.731707,-4.418750,17.906250,19.856251,29.408,0.57760658,-0.00978953,-0.02851334,-0.81575841
'00:10:45.214,0.057617,0.029297,1.011719,-0.182927,0.792683,-0.487805,-4.418750,17.906250,19.856251,29.393,0.57761677,-0.00983723,-0.02850823,-0.81575080
'00:10:45.224,0.059082,0.027832,1.005859,-1.341463,-0.426829,-0.487805,-4.675000,18.225000,20.081251,29.393,0.57761387,-0.01004529,-0.02846724,-0.81575175
'00:10:45.234,0.061035,0.026855,1.000488,-1.158537,-0.243902,-0.426829,-4.675000,18.225000,20.081251,29.423,0.57761568,-0.01024419,-0.02843467,-0.81574913
'00:10:45.248,0.063477,0.026367,0.996582,-0.060976,0.914634,-0.548781,-4.743750,18.281250,20.087500,29.408,0.57760620,-0.01034331,-0.02842344,-0.81575499
'00:10:45.255,0.061035,0.026855,0.994629,1.585366,2.682927,-0.670732,-4.743750,18.281250,20.087500,29.393,0.57759938,-0.01023504,-0.02843326,-0.81576084
'00:10:45.264,0.061523,0.027832,0.997070,2.926829,4.146341,-0.792683,-4.481250,18.031250,19.918751,29.393,0.57759893,-0.00995244,-0.02848512,-0.81576285
'00:10:45.274,0.061523,0.027832,0.997070,2.926829,4.146341,-0.792683,-4.481250,18.031250,19.918751,29.393,0.57759881,-0.00964280,-0.02854238,-0.81576465
'00:10:45.284,0.056152,0.033691,1.004883,2.865854,4.024390,-0.792683,-4.400000,17.856251,19.812500,29.393,0.57760012,-0.00929570,-0.02861309,-0.81576528
'00:10:45.294,0.054688,0.032715,1.010254,1.280488,2.378049,-0.670732,-4.400000,17.856251,19.812500,29.408,0.57760554,-0.00914589,-0.02863939,-0.81576220
'00:10:45.304,0.058594,0.030273,1.012207,-0.670732,0.304878,-0.487805,-4.368750,17.937500,19.850000,29.423,0.57762169,-0.00927979,-0.02863606,-0.81574938
'00:10:45.314,0.061523,0.026855,1.003906,-0.975610,-0.121951,-0.487805,-4.368750,17.937500,19.850000,29.393,0.57763667,-0.00948968,-0.02862760,-0.81573665
'00:10:45.324,0.063477,0.026855,1.000488,-0.182927,0.731707,-0.548781,-4.387500,17.875000,19.743750,29.378,0.57764724,-0.00960472,-0.02863891,-0.81572742
'00:10:45.334,0.061523,0.028809,1.000977,0.426829,1.463415,-0.548781,-4.387500,17.875000,19.743750,29.378,0.57765958,-0.00961607,-0.02865960,-0.81571782
'00:10:45.344,0.061035,0.029297,0.999023,0.670732,1.707317,-0.609756,-4.850000,18.468750,20.206251,29.393,0.57764774,-0.00957305,-0.02866285,-0.81572660
'00:10:45.354,0.060547,0.026855,0.999512,1.219512,2.256098,-0.670732,-4.537500,18.131250,19.937500,29.378,0.57764884,-0.00948519,-0.02867843,-0.81572630
'00:10:45.364,0.062012,0.027832,1.000488,2.012195,3.231707,-0.731707,-4.537500,18.131250,19.937500,29.393,0.57764855,-0.00929315,-0.02871230,-0.81572753
'00:10:45.374,0.042969,0.044434,1.020996,0.365854,1.463415,-0.670732,-4.437500,17.968750,19.887501,29.454,0.57764779,-0.00913595,-0.02873269,-0.81572912
'00:10:45.384,0.064941,0.022949,0.997070,0.609756,1.707317,-0.609756,-4.437500,17.968750,19.887501,29.378,0.57765616,-0.00917019,-0.02873244,-0.81572282
'00:10:45.394,0.048828,0.037598,1.015137,-0.426829,0.609756,-0.548781,-4.400000,17.925001,19.806250,29.393,0.57766500,-0.00918014,-0.02872831,-0.81571659
'00:10:45.404,0.059570,0.028320,1.003906,0.487805,1.524390,-0.548781,-4.400000,17.925001,19.806250,29.363,0.57767833,-0.00918093,-0.02873748,-0.81570682
'00:10:45.414,0.056641,0.032227,1.004883,0.426829,1.402439,-0.548781,-4.475000,17.993750,19.856251,29.378,0.57768656,-0.00915660,-0.02875411,-0.81570068
'00:10:45.424,0.060059,0.030762,1.002441,-0.731707,0.182927,-0.487805,-4.475000,17.993750,19.856251,29.378,0.57769526,-0.00930373,-0.02875576,-0.81569279
'00:10:45.434,0.063477,0.026855,0.998535,-0.609756,0.365854,-0.487805,-4.831250,18.450001,20.200001,29.423,0.57768925,-0.00944948,-0.02873130,-0.81569624
'00:10:45.444,0.064941,0.026367,0.999023,0.914634,2.012195,-0.609756,-4.831250,18.450001,20.200001,29.363,0.57767979,-0.00940871,-0.02873540,-0.81570326
'00:10:45.455,0.061523,0.028320,1.003906,2.134146,3.292683,-0.731707,-4.637500,18.243750,20.056250,29.423,0.57767425,-0.00917602,-0.02877111,-0.81570858
'00:10:45.464,0.054688,0.035645,1.012207,-0.792683,0.121951,-0.365854,-4.637500,18.243750,20.056250,29.393,0.57768306,-0.00926259,-0.02876634,-0.81570153
'00:10:45.474,0.061523,0.025391,1.000488,1.036585,2.073171,-0.670732,-4.456250,17.962500,19.837500,29.378,0.57768645,-0.00921563,-0.02877468,-0.81569936
'00:10:45.484,0.053711,0.034180,1.009766,-0.487805,0.365854,-0.426829,-4.456250,17.962500,19.837500,29.363,0.57770029,-0.00928575,-0.02877595,-0.81568872
'00:10:45.494,0.059570,0.028320,1.002441,0.060976,1.036585,-0.548781,-4.406250,17.975000,19.850000,29.348,0.57771211,-0.00934153,-0.02877932,-0.81567959
'00:10:45.504,0.056152,0.030762,1.003906,0.304878,1.219512,-0.609756,-4.406250,17.975000,19.850000,29.393,0.57771977,-0.00934103,-0.02879041,-0.81567379
'00:10:45.514,0.056641,0.030762,1.004395,-0.487805,0.548781,-0.487805,-4.425000,17.975000,19.818750,29.393,0.57773250,-0.00942987,-0.02877897,-0.81566415
'00:10:45.524,0.059082,0.028809,1.001953,-0.670732,0.304878,-0.487805,-4.425000,17.975000,19.818750,29.378,0.57774455,-0.00956630,-0.02876633,-0.81565447
'00:10:45.534,0.061035,0.026367,0.999512,0.243902,1.280488,-0.548781,-4.443750,17.881250,19.856251,29.454,0.57775205,-0.00960444,-0.02876057,-0.81564891
'00:10:45.544,0.062012,0.025879,1.001465,1.402439,2.500000,-0.670732,-4.443750,17.881250,19.856251,29.393,0.57775489,-0.00950362,-0.02877621,-0.81564754
'00:10:45.554,0.061035,0.028320,1.004883,1.768293,2.865854,-0.731707,-4.693750,18.362501,20.112501,29.363,0.57774658,-0.00933431,-0.02879891,-0.81565457
'00:10:45.564,0.054199,0.036621,1.012695,0.304878,1.341463,-0.548781,-4.693750,18.362501,20.112501,29.378,0.57774505,-0.00927703,-0.02881087,-0.81565589
'00:10:45.574,0.062988,0.028320,1.000977,-0.121951,0.975610,-0.548781,-4.525000,18.093750,20.012501,29.408,0.57774980,-0.00936010,-0.02881081,-0.81565158
'00:10:45.584,0.062012,0.029297,1.003418,0.731707,1.829268,-0.609756,-4.525000,18.093750,20.012501,29.408,0.57775275,-0.00932798,-0.02882906,-0.81564921
'00:10:45.594,0.058105,0.031250,1.006836,0.365854,1.402439,-0.548781,-4.381250,17.943750,19.918751,29.408,0.57776566,-0.00932147,-0.02884507,-0.81563957
'00:10:45.604,0.058594,0.029785,1.006348,-0.731707,0.243902,-0.426829,-4.381250,17.943750,19.918751,29.438,0.57778367,-0.00946196,-0.02883459,-0.81562557
'00:10:45.614,0.059082,0.027344,1.002441,-1.219512,-0.243902,-0.426829,-4.337500,17.956251,19.781250,29.363,0.57780416,-0.00967581,-0.02880724,-0.81560951
'00:10:45.624,0.060547,0.026367,1.000977,-0.426829,0.548781,-0.487805,-4.400000,17.906250,19.825001,29.423,0.57781692,-0.00979790,-0.02879104,-0.81559958
'00:10:45.634,0.060059,0.027344,1.000977,0.609756,1.646341,-0.548781,-4.400000,17.906250,19.825001,29.378,0.57782856,-0.00978083,-0.02879704,-0.81559133
'00:10:45.644,0.058105,0.028320,1.003418,0.975610,2.073171,-0.670732,-4.812500,18.412500,20.187500,29.363,0.57781412,-0.00968125,-0.02878315,-0.81560324
'00:10:45.654,0.056641,0.030762,1.004883,0.670732,1.768293,-0.609756,-4.812500,18.412500,20.187500,29.378,0.57780278,-0.00960219,-0.02877074,-0.81561265
'00:10:45.664,0.057617,0.030273,1.004883,0.182927,1.158537,-0.548781,-4.618750,18.206251,20.087500,29.438,0.57780307,-0.00960844,-0.02876612,-0.81561253
'00:10:45.674,0.060059,0.030273,1.003906,-0.243902,0.731707,-0.548781,-4.618750,18.206251,20.087500,29.408,0.57780183,-0.00968040,-0.02876291,-0.81561267
'00:10:45.684,0.059082,0.030273,1.001465,-0.426829,0.609756,-0.487805,-4.431250,17.943750,19.812500,29.423,0.57781274,-0.00977196,-0.02875940,-0.81560397
'00:10:45.694,0.060059,0.030273,1.003418,-0.487805,0.487805,-0.487805,-4.431250,17.943750,19.812500,29.363,0.57782305,-0.00987892,-0.02876068,-0.81559534
'00:10:45.704,0.059570,0.028320,1.002930,-0.548781,0.365854,-0.487805,-4.475000,17.931250,19.906250,29.378,0.57782946,-0.00999862,-0.02874642,-0.81558984
'00:10:45.714,0.062012,0.027344,1.002930,-0.548781,0.487805,-0.548781,-4.475000,17.931250,19.906250,29.378,0.57783170,-0.01012545,-0.02873030,-0.81558725
'00:10:45.724,0.062012,0.028809,1.002441,-0.487805,0.487805,-0.548781,-4.431250,17.918751,19.906250,29.438,0.57783623,-0.01024398,-0.02873049,-0.81558256
'00:10:45.734,0.062012,0.026855,1.002930,-0.426829,0.243902,-0.548781,-4.431250,17.918751,19.906250,29.393,0.57784039,-0.01038287,-0.02873548,-0.81557768
'00:10:45.744,0.062012,0.029297,1.005371,-0.060976,1.158537,-0.792683,-4.725000,18.262501,20.081251,29.408,0.57781573,-0.01041140,-0.02871771,-0.81559541
'00:10:45.754,0.057129,0.029297,1.015625,-0.121951,1.097561,-0.731707,-4.725000,18.262501,20.081251,29.408,0.57779549,-0.01041791,-0.02867554,-0.81561115
'00:10:45.764,0.061035,0.027832,1.007812,0.365854,1.402439,-0.609756,-4.912500,18.493750,20.312500,29.423,0.57777713,-0.01040018,-0.02865429,-0.81562513
'00:10:45.774,0.061523,0.025879,1.000977,0.670732,1.707317,-0.609756,-4.912500,18.493750,20.312500,29.438,0.57776027,-0.01035777,-0.02863347,-0.81563834
'00:10:45.784,0.059570,0.028320,1.002441,0.609756,1.585366,-0.609756,-4.406250,17.887501,19.775000,29.393,0.57776604,-0.01032857,-0.02864679,-0.81563416
'00:10:45.794,0.058594,0.031250,1.005859,0.182927,1.219512,-0.548781,-4.406250,17.887501,19.775000,29.408,0.57777429,-0.01032903,-0.02865961,-0.81562786
'00:10:45.804,0.059570,0.029297,1.002930,-0.487805,0.548781,-0.487805,-4.425000,17.875000,19.775000,29.454,0.57778330,-0.01042397,-0.02865026,-0.81562060
'00:10:45.814,0.061523,0.027832,1.003906,-1.219512,-0.243902,-0.426829,-4.425000,17.875000,19.775000,29.393,0.57779401,-0.01062767,-0.02862770,-0.81561118
'00:10:45.824,0.063477,0.025879,1.000488,-1.097561,-0.243902,-0.487805,-4.456250,17.893751,19.856251,29.363,0.57779825,-0.01084020,-0.02860953,-0.81560601
'00:10:45.835,0.063477,0.026367,1.000488,-0.182927,0.792683,-0.548781,-4.456250,17.893751,19.856251,29.423,0.57780140,-0.01093621,-0.02860674,-0.81560259
'00:10:45.844,0.063477,0.025391,1.003418,0.731707,1.768293,-0.609756,-4.562500,18.075001,20.000000,29.408,0.57779954,-0.01090863,-0.02860839,-0.81560423
'00:10:45.854,0.062500,0.026367,1.001953,0.975610,2.073171,-0.670732,-4.562500,18.075001,20.000000,29.423,0.57779400,-0.01083522,-0.02861457,-0.81560891
'00:10:45.864,0.061035,0.027832,1.004395,0.975610,1.951220,-0.609756,-4.850000,18.387501,20.200001,29.408,0.57777913,-0.01074429,-0.02861319,-0.81562070
'00:10:45.874,0.059570,0.029785,1.003418,0.609756,1.585366,-0.609756,-4.531250,17.950001,19.881250,29.423,0.57777603,-0.01069594,-0.02862539,-0.81562310
'00:10:45.884,0.059082,0.029297,1.002930,0.182927,1.158537,-0.609756,-4.531250,17.950001,19.881250,29.393,0.57777166,-0.01069952,-0.02862405,-0.81562619
'00:10:45.894,0.060059,0.028320,1.001953,-0.182927,0.792683,-0.548781,-4.475000,17.887501,19.850000,29.423,0.57777321,-0.01076006,-0.02861690,-0.81562455
'00:10:45.904,0.061523,0.025879,1.004883,-0.182927,0.670732,-0.548781,-4.475000,17.887501,19.850000,29.378,0.57777483,-0.01084598,-0.02860650,-0.81562263
'00:10:45.914,0.061523,0.025879,1.003418,-0.121951,0.792683,-0.548781,-4.475000,17.837500,19.837500,29.438,0.57777559,-0.01091850,-0.02859377,-0.81562157
'00:10:45.924,0.063477,0.027344,1.002441,0.243902,1.158537,-0.548781,-4.475000,17.837500,19.837500,29.438,0.57777706,-0.01095068,-0.02860550,-0.81561969
'00:10:45.934,0.062500,0.027344,1.001465,0.670732,1.646341,-0.548781,-4.656250,18.137501,19.975000,29.423,0.57777373,-0.01091376,-0.02861148,-0.81562234
'00:10:45.944,0.062988,0.026367,1.004395,0.792683,1.890244,-0.548781,-4.656250,18.137501,19.975000,29.363,0.57777139,-0.01085986,-0.02860904,-0.81562479
'00:10:45.954,0.062500,0.026367,1.003418,1.036585,2.012195,-0.670732,-4.818750,18.312500,20.168751,29.378,0.57775324,-0.01077601,-0.02860772,-0.81563881
'00:10:45.964,0.061035,0.027832,1.000977,1.097561,2.134146,-0.609756,-4.818750,18.312500,20.168751,29.423,0.57773971,-0.01066851,-0.02860820,-0.81564979
'00:10:45.974,0.061035,0.028320,1.001953,1.219512,2.256098,-0.670732,-4.750000,18.243750,20.150000,29.423,0.57772552,-0.01054865,-0.02861750,-0.81566107
'00:10:45.984,0.061035,0.028809,1.004883,1.158537,2.195122,-0.670732,-4.750000,18.243750,20.150000,29.393,0.57771129,-0.01043543,-0.02862725,-0.81567227
'00:10:45.994,0.062012,0.027344,1.003906,1.097561,2.134146,-0.609756,-4.468750,17.931250,19.856251,29.378,0.57771521,-0.01035584,-0.02864718,-0.81566980
'00:10:46.004,0.062012,0.027344,1.003906,1.097561,2.134146,-0.609756,-4.468750,17.931250,19.856251,29.378,0.57771923,-0.01027745,-0.02866690,-0.81566725
'00:10:46.015,0.061523,0.027344,1.002441,1.463415,2.500000,-0.670732,-4.437500,17.937500,19.925001,29.393,0.57772261,-0.01014340,-0.02869796,-0.81566545
'00:10:46.024,0.061035,0.027832,1.003906,1.829268,2.926829,-0.731707,-4.437500,17.937500,19.925001,29.378,0.57772281,-0.00998689,-0.02872747,-0.81566620
'00:10:46.034,0.059570,0.029785,1.003418,1.951220,3.048780,-0.792683,-4.456250,17.981251,19.856251,29.393,0.57771892,-0.00978335,-0.02876786,-0.81567000
'00:10:46.044,0.057129,0.030762,1.005371,1.402439,2.439024,-0.609756,-4.456250,17.981251,19.856251,29.378,0.57772627,-0.00963609,-0.02879447,-0.81566561
'00:10:46.054,0.058105,0.030273,1.004883,0.548781,1.524390,-0.548781,-4.550000,18.156250,19.950001,29.408,0.57773211,-0.00960360,-0.02880377,-0.81566153
'00:10:46.064,0.058105,0.029785,1.002930,0.000000,0.975610,-0.548781,-4.550000,18.156250,19.950001,29.378,0.57773622,-0.00964064,-0.02879955,-0.81565833
'00:10:46.074,0.060059,0.028809,1.002441,0.121951,1.158537,-0.548781,-4.712500,18.325001,20.081251,29.423,0.57773301,-0.00966548,-0.02878817,-0.81566070
'00:10:46.084,0.061523,0.027832,1.000488,0.609756,1.646341,-0.670732,-4.712500,18.325001,20.081251,29.378,0.57772289,-0.00964289,-0.02878822,-0.81566814
'00:10:46.095,0.061035,0.028809,1.002930,0.914634,2.012195,-0.609756,-4.412500,17.918751,19.781250,29.393,0.57773201,-0.00957948,-0.02881136,-0.81566161
'00:10:46.104,0.061523,0.029297,1.003906,0.853659,1.951220,-0.670732,-4.412500,17.918751,19.781250,29.378,0.57773532,-0.00953540,-0.02883288,-0.81565902
'00:10:46.114,0.059570,0.028809,1.005859,0.609756,1.646341,-0.670732,-4.418750,17.962500,19.818750,29.423,0.57773866,-0.00951189,-0.02884338,-0.81565656
'00:10:46.124,0.061523,0.028320,1.003418,0.426829,1.463415,-0.548781,-4.418750,17.962500,19.818750,29.454,0.57775004,-0.00952479,-0.02885588,-0.81564791
'00:10:46.134,0.061035,0.028809,1.002441,0.426829,1.463415,-0.609756,-4.362500,17.937500,19.818750,29.423,0.57776035,-0.00953614,-0.02887340,-0.81563985
'00:10:46.144,0.059082,0.029785,1.001953,0.670732,1.585366,-0.609756,-4.687500,18.356251,20.100000,29.408,0.57775642,-0.00949692,-0.02888288,-0.81564276
'00:10:46.154,0.058594,0.027832,1.001465,0.914634,1.829268,-0.609756,-4.687500,18.356251,20.100000,29.423,0.57775381,-0.00943397,-0.02888443,-0.81564528
'00:10:46.164,0.052246,0.035156,1.009277,0.243902,1.280488,-0.609756,-4.918750,18.631250,20.331251,29.408,0.57773767,-0.00936930,-0.02886747,-0.81565806
'00:10:46.174,0.059082,0.030273,1.000977,0.365854,1.402439,-0.609756,-4.918750,18.631250,20.331251,29.438,0.57772301,-0.00934976,-0.02885638,-0.81566906
'00:10:46.184,0.056641,0.031250,1.006348,0.243902,1.280488,-0.548781,-4.437500,18.037500,19.818750,29.393,0.57773409,-0.00934693,-0.02886144,-0.81566107
'00:10:46.194,0.062012,0.025879,1.003418,0.060976,1.158537,-0.548781,-4.437500,18.037500,19.818750,29.423,0.57774550,-0.00941485,-0.02885127,-0.81565256
'00:10:46.204,0.059570,0.027832,1.005859,0.792683,1.829268,-0.670732,-4.412500,17.925001,19.837500,29.438,0.57774936,-0.00937500,-0.02885937,-0.81565000
'00:10:46.214,0.056641,0.031250,1.003906,-0.121951,0.792683,-0.487805,-4.412500,17.925001,19.837500,29.423,0.57776229,-0.00942553,-0.02886322,-0.81564012
'00:10:46.224,0.060059,0.029297,0.999512,0.731707,1.768293,-0.670732,-4.450000,18.037500,19.806250,29.393,0.57776540,-0.00938977,-0.02888242,-0.81563765
'00:10:46.234,0.060547,0.029297,1.002441,-0.121951,0.792683,-0.487805,-4.450000,18.037500,19.806250,29.423,0.57777839,-0.00946947,-0.02889040,-0.81562725
'00:10:46.244,0.060547,0.029297,1.003418,0.792683,1.768293,-0.670732,-4.393750,17.918751,19.800001,29.378,0.57778276,-0.00943393,-0.02891562,-0.81562367
'00:10:46.254,0.060547,0.028320,1.001953,0.060976,0.975610,-0.487805,-4.393750,17.918751,19.800001,29.378,0.57779774,-0.00949694,-0.02892312,-0.81561206
'00:10:46.264,0.058594,0.030762,1.003418,0.609756,1.646341,-0.670732,-4.781250,18.500000,20.187500,29.408,0.57778574,-0.00944623,-0.02892326,-0.81562114
'00:10:46.275,0.061523,0.026367,1.000488,0.304878,1.219512,-0.487805,-4.781250,18.500000,20.187500,29.363,0.57778642,-0.00947995,-0.02890993,-0.81562074
'00:10:46.284,0.056152,0.030762,1.006836,0.243902,1.280488,-0.609756,-4.575000,18.262501,20.050001,29.408,0.57778704,-0.00946983,-0.02890310,-0.81562066
'00:10:46.294,0.056641,0.030273,1.002930,0.548781,1.585366,-0.609756,-4.575000,18.262501,20.050001,29.393,0.57778883,-0.00942724,-0.02890269,-0.81561990
'00:10:46.304,0.059570,0.029785,1.001953,0.060976,1.097561,-0.548781,-4.431250,17.956251,19.768751,29.393,0.57779785,-0.00946788,-0.02890677,-0.81561290
'00:10:46.314,0.059570,0.028320,1.005371,0.426829,1.402439,-0.609756,-4.431250,17.956251,19.768751,29.363,0.57780384,-0.00947289,-0.02891150,-0.81560843
'00:10:46.324,0.061523,0.030273,1.002930,0.487805,1.524390,-0.609756,-4.325000,17.918751,19.875000,29.393,0.57781583,-0.00947641,-0.02894216,-0.81559881
'00:10:46.335,0.059082,0.029785,1.000977,0.182927,1.219512,-0.548781,-4.325000,17.918751,19.875000,29.438,0.57783283,-0.00950844,-0.02895505,-0.81558593
'00:10:46.344,0.059082,0.029785,1.003418,0.426829,1.463415,-0.609756,-4.431250,17.950001,19.850000,29.423,0.57783740,-0.00950090,-0.02896193,-0.81558254
'00:10:46.354,0.059082,0.024414,1.002441,0.365854,1.402439,-0.548781,-4.431250,17.950001,19.850000,29.438,0.57784773,-0.00952256,-0.02893721,-0.81557585
'00:10:46.364,0.056152,0.029297,1.006348,0.243902,1.219512,-0.609756,-4.712500,18.431250,20.162500,29.393,0.57784208,-0.00951502,-0.02891681,-0.81558066
'00:10:46.374,0.056152,0.035645,1.006348,0.365854,1.402439,-0.609756,-4.712500,18.431250,20.162500,29.393,0.57783567,-0.00946279,-0.02893228,-0.81558526
'00:10:46.384,0.062988,0.024902,0.999023,0.365854,1.402439,-0.548781,-4.725000,18.337500,20.081251,29.408,0.57783317,-0.00949220,-0.02891391,-0.81558734
'00:10:46.394,0.062012,0.029785,1.003418,0.304878,1.280488,-0.609756,-4.725000,18.337500,20.081251,29.363,0.57782501,-0.00950683,-0.02891968,-0.81559275
'00:10:46.405,0.060059,0.030762,1.004883,0.426829,1.463415,-0.548781,-4.418750,17.856251,19.737501,29.408,0.57783440,-0.00949842,-0.02893772,-0.81558555
'00:10:46.416,0.062988,0.027344,1.002930,0.304878,1.280488,-0.548781,-4.393750,17.950001,19.806250,29.438,0.57784761,-0.00954855,-0.02895237,-0.81557509
'00:10:46.424,0.060059,0.029297,1.003906,0.243902,1.341463,-0.548781,-4.393750,17.950001,19.806250,29.438,0.57785699,-0.00956354,-0.02895610,-0.81556813
'00:10:46.434,0.061035,0.026855,1.003418,0.365854,1.341463,-0.548781,-4.400000,17.900000,19.818750,29.423,0.57786762,-0.00959059,-0.02895760,-0.81556023
'00:10:46.444,0.058594,0.028320,1.005859,0.304878,1.341463,-0.548781,-4.400000,17.900000,19.818750,29.408,0.57787795,-0.00959984,-0.02895228,-0.81555299
'00:10:46.454,0.056641,0.030762,1.002441,0.426829,1.402439,-0.548781,-4.587500,18.237501,20.006250,29.438,0.57788155,-0.00957108,-0.02895259,-0.81555077
'00:10:46.464,0.057129,0.030762,1.004883,0.304878,1.402439,-0.609756,-4.587500,18.237501,20.006250,29.423,0.57788076,-0.00955103,-0.02894530,-0.81555182
'00:10:46.475,0.057129,0.028320,1.002930,0.243902,1.341463,-0.609756,-4.737500,18.412500,20.081251,29.438,0.57787292,-0.00954161,-0.02891324,-0.81555863
'00:10:46.484,0.057617,0.029297,1.003418,0.365854,1.341463,-0.548781,-4.737500,18.412500,20.081251,29.423,0.57787039,-0.00952753,-0.02890183,-0.81556099
'00:10:46.494,0.060059,0.030762,1.000977,0.426829,1.402439,-0.548781,-4.418750,17.987501,19.775000,29.393,0.57788131,-0.00952638,-0.02892582,-0.81555241
'00:10:46.504,0.060547,0.031250,1.002930,0.304878,1.280488,-0.548781,-4.418750,17.987501,19.775000,29.408,0.57789164,-0.00954030,-0.02895081,-0.81554405
'00:10:46.514,0.060059,0.029297,1.004883,0.304878,1.341463,-0.548781,-4.412500,17.968750,19.887501,29.438,0.57790204,-0.00955502,-0.02895803,-0.81553625
'00:10:46.524,0.060547,0.026855,1.006836,0.304878,1.341463,-0.609756,-4.412500,17.968750,19.887501,29.393,0.57790855,-0.00958171,-0.02895209,-0.81553153
'00:10:46.535,0.059570,0.026855,1.005371,0.426829,1.341463,-0.609756,-4.393750,17.943750,19.843750,29.423,0.57791685,-0.00959899,-0.02895255,-0.81552543
'00:10:46.544,0.058105,0.030762,1.002441,0.426829,1.341463,-0.609756,-4.393750,17.943750,19.843750,29.393,0.57792287,-0.00959133,-0.02896909,-0.81552066
'00:10:46.554,0.058594,0.032227,1.004395,0.365854,1.341463,-0.548781,-4.406250,18.012501,19.850000,29.393,0.57793408,-0.00958253,-0.02899297,-0.81551198
'00:10:46.564,0.058105,0.030273,1.002930,0.365854,1.341463,-0.548781,-4.406250,18.012501,19.850000,29.423,0.57794566,-0.00957943,-0.02900369,-0.81550342
'00:10:46.575,0.060059,0.029297,1.001465,0.304878,1.341463,-0.548781,-4.731250,18.318750,20.131250,29.408,0.57793992,-0.00957914,-0.02899258,-0.81550789
'00:10:46.584,0.058594,0.028320,1.002930,0.243902,1.341463,-0.609756,-4.731250,18.318750,20.131250,29.393,0.57793154,-0.00957749,-0.02896901,-0.81551469
'00:10:46.594,0.059082,0.029785,1.003906,0.304878,1.341463,-0.548781,-4.456250,18.056250,19.931250,29.423,0.57794030,-0.00958253,-0.02897335,-0.81550826
'00:10:46.604,0.061035,0.029297,1.004395,0.365854,1.341463,-0.548781,-4.456250,18.056250,19.931250,29.393,0.57794908,-0.00959732,-0.02898676,-0.81550139
'00:10:46.615,0.061523,0.028320,1.004883,0.365854,1.402439,-0.548781,-4.356250,17.856251,19.812500,29.408,0.57796249,-0.00961994,-0.02899778,-0.81549123
'00:10:46.624,0.060547,0.029297,1.004395,0.365854,1.402439,-0.609756,-4.356250,17.856251,19.812500,29.423,0.57796933,-0.00962940,-0.02900834,-0.81548590
'00:10:46.634,0.060547,0.028320,1.004395,0.365854,1.341463,-0.609756,-4.450000,17.956251,19.800001,29.423,0.57797255,-0.00964316,-0.02901199,-0.81548332
'00:10:46.644,0.059082,0.027832,1.002441,0.365854,1.341463,-0.609756,-4.450000,17.956251,19.800001,29.454,0.57797590,-0.00965087,-0.02900757,-0.81548101
'00:10:46.655,0.057617,0.028320,1.004395,0.365854,1.341463,-0.548781,-4.406250,17.987501,19.787500,29.423,0.57798853,-0.00965108,-0.02900301,-0.81547222
'00:10:46.664,0.058105,0.029785,1.001953,0.304878,1.280488,-0.548781,-4.681250,18.306250,20.056250,29.423,0.57798646,-0.00964435,-0.02899508,-0.81547405
'00:10:46.674,0.058105,0.029785,1.002441,0.365854,1.341463,-0.548781,-4.681250,18.306250,20.056250,29.408,0.57798441,-0.00962950,-0.02898750,-0.81547595
'00:10:46.684,0.058105,0.029785,1.002930,0.365854,1.341463,-0.609756,-4.681250,18.381250,20.100000,29.378,0.57797952,-0.00961570,-0.02898148,-0.81547979
'00:10:46.695,0.059082,0.027832,1.004883,0.304878,1.280488,-0.548781,-4.681250,18.381250,20.100000,29.393,0.57797918,-0.00962333,-0.02896479,-0.81548053
'00:10:46.704,0.060547,0.027832,1.006348,0.365854,1.341463,-0.609756,-4.450000,17.937500,19.850000,29.408,0.57798169,-0.00963720,-0.02896496,-0.81547858
'00:10:46.714,0.059570,0.027832,1.003906,0.426829,1.402439,-0.609756,-4.450000,17.937500,19.850000,29.423,0.57798468,-0.00964001,-0.02896340,-0.81547649
'00:10:46.724,0.059570,0.030762,1.002441,0.365854,1.341463,-0.548781,-4.443750,17.912500,19.818750,29.393,0.57799115,-0.00963853,-0.02897819,-0.81547140
'00:10:46.736,0.058594,0.031738,1.001953,0.365854,1.341463,-0.609756,-4.443750,17.912500,19.818750,29.393,0.57799344,-0.00962513,-0.02899798,-0.81546923
'00:10:46.744,0.059082,0.029785,1.002930,0.365854,1.341463,-0.548781,-4.443750,17.950001,19.868750,29.408,0.57799925,-0.00962550,-0.02900362,-0.81546490
'00:10:46.754,0.059082,0.029785,1.002930,0.365854,1.341463,-0.548781,-4.443750,17.950001,19.868750,29.408,0.57800649,-0.00962591,-0.02901056,-0.81545952
'00:10:46.764,0.058594,0.029785,1.002441,0.304878,1.341463,-0.609756,-4.887500,18.606251,20.268751,29.393,0.57799191,-0.00960916,-0.02899117,-0.81547074
'00:10:46.775,0.058594,0.029297,1.004883,0.365854,1.341463,-0.609756,-4.887500,18.606251,20.268751,29.378,0.57797618,-0.00958930,-0.02897097,-0.81548284
'00:10:46.784,0.058594,0.029297,1.004883,0.365854,1.341463,-0.609756,-4.750000,18.343750,20.068750,29.378,0.57796722,-0.00957717,-0.02895913,-0.81548975
'00:10:46.794,0.059082,0.028809,1.004395,0.304878,1.280488,-0.609756,-4.750000,18.343750,20.068750,29.408,0.57795722,-0.00957609,-0.02894434,-0.81549738
'00:10:46.804,0.057617,0.030273,1.003418,0.365854,1.341463,-0.609756,-4.481250,17.993750,19.831251,29.393,0.57795891,-0.00956504,-0.02894735,-0.81549620
'00:10:46.816,0.060059,0.028809,1.004395,0.365854,1.341463,-0.609756,-4.481250,17.993750,19.831251,29.438,0.57796122,-0.00957550,-0.02895213,-0.81549428
'00:10:46.824,0.060059,0.028809,1.004395,0.365854,1.341463,-0.609756,-4.468750,17.931250,19.825001,29.438,0.57796235,-0.00958233,-0.02895490,-0.81549330
'00:10:46.834,0.060059,0.029297,1.002441,0.365854,1.341463,-0.609756,-4.468750,17.931250,19.825001,29.423,0.57796361,-0.00958916,-0.02896194,-0.81549207
'00:10:46.844,0.060547,0.030273,1.001465,0.304878,1.341463,-0.548781,-4.406250,17.981251,19.812500,29.408,0.57797442,-0.00960265,-0.02897863,-0.81548366
'00:10:46.856,0.061035,0.029297,1.004395,0.365854,1.341463,-0.609756,-4.406250,17.981251,19.812500,29.469,0.57798239,-0.00962200,-0.02899759,-0.81547710
'00:10:46.864,0.061035,0.029297,1.004395,0.365854,1.341463,-0.609756,-4.543750,18.118750,19.962500,29.469,0.57798188,-0.00962930,-0.02900339,-0.81547718
'00:10:46.874,0.059082,0.029785,1.004395,0.426829,1.402439,-0.609756,-4.543750,18.118750,19.962500,29.408,0.57798140,-0.00961795,-0.02900676,-0.81547753
'00:10:46.885,0.059082,0.027832,1.002441,0.365854,1.402439,-0.548781,-4.687500,18.356251,20.043751,29.378,0.57798056,-0.00961222,-0.02898773,-0.81547887
'00:10:46.897,0.058105,0.029297,1.004395,0.365854,1.341463,-0.548781,-4.481250,18.050001,19.837500,29.393,0.57798922,-0.00960708,-0.02898684,-0.81547282
'00:10:46.904,0.058105,0.031250,1.001465,0.365854,1.341463,-0.548781,-4.481250,18.050001,19.837500,29.363,0.57799394,-0.00959891,-0.02899507,-0.81546928
'00:10:46.914,0.058105,0.030273,1.001465,0.304878,1.280488,-0.548781,-4.481250,18.050001,19.837500,29.393,0.57800068,-0.00959878,-0.02899976,-0.81546434
'00:10:46.924,0.059082,0.029785,1.002930,0.304878,1.280488,-0.609756,-4.381250,17.925001,19.837500,29.393,0.57800743,-0.00961050,-0.02901012,-0.81545905
'00:10:46.937,0.059082,0.028320,1.004395,0.304878,1.341463,-0.548781,-4.362500,17.931250,19.781250,29.423,0.57802460,-0.00962898,-0.02900963,-0.81544668
'00:10:46.944,0.059082,0.028320,1.004395,0.304878,1.341463,-0.548781,-4.362500,17.931250,19.781250,29.423,0.57803379,-0.00963870,-0.02900931,-0.81544006
'00:10:46.954,0.059570,0.028320,1.004395,0.304878,1.280488,-0.609756,-4.487500,17.993750,19.800001,29.378,0.57803483,-0.00965209,-0.02900540,-0.81543930
'00:10:46.964,0.059082,0.029785,1.004883,0.365854,1.341463,-0.609756,-4.487500,17.993750,19.800001,29.393,0.57803577,-0.00964902,-0.02900907,-0.81543855
'00:10:46.976,0.058594,0.030273,1.001953,0.365854,1.280488,-0.609756,-4.768750,18.462500,20.137501,29.438,0.57802417,-0.00963337,-0.02900516,-0.81544709
'00:10:46.984,0.061035,0.030273,1.003418,0.365854,1.341463,-0.548781,-4.768750,18.462500,20.137501,29.393,0.57802003,-0.00963037,-0.02900741,-0.81544998
'00:10:46.994,0.059570,0.029297,1.002930,0.365854,1.341463,-0.609756,-4.575000,18.068750,19.918751,29.423,0.57801622,-0.00962863,-0.02900563,-0.81545277
'00:10:47.004,0.059570,0.029297,1.002441,0.365854,1.341463,-0.609756,-4.575000,18.068750,19.918751,29.408,0.57801242,-0.00962704,-0.02900409,-0.81545553
'00:10:47.016,0.058594,0.028320,1.003906,0.304878,1.280488,-0.548781,-4.450000,18.025000,19.881250,29.423,0.57802261,-0.00964076,-0.02899913,-0.81544832
'00:10:47.024,0.058105,0.030273,1.003906,0.365854,1.341463,-0.609756,-4.450000,18.025000,19.881250,29.438,0.57802574,-0.00963499,-0.02900439,-0.81544599
'00:10:47.034,0.059082,0.030762,1.002930,0.304878,1.402439,-0.609756,-4.506250,18.062500,19.850000,29.438,0.57802661,-0.00962719,-0.02900709,-0.81544537
'00:10:47.044,0.060059,0.029297,1.004395,0.304878,1.341463,-0.548781,-4.506250,18.062500,19.850000,29.393,0.57803195,-0.00963518,-0.02900767,-0.81544147
'00:10:47.056,0.058594,0.028320,1.002930,0.365854,1.341463,-0.609756,-4.387500,17.906250,19.781250,29.393,0.57803974,-0.00964253,-0.02900764,-0.81543586
'00:10:47.064,0.060059,0.027344,1.004883,0.365854,1.280488,-0.609756,-4.387500,17.906250,19.781250,29.423,0.57804490,-0.00966032,-0.02900963,-0.81543192
'00:10:47.074,0.059082,0.030273,0.999512,0.365854,1.341463,-0.609756,-4.800000,18.512501,20.231251,29.408,0.57803393,-0.00964496,-0.02900470,-0.81544005
'00:10:47.084,0.058105,0.031250,1.003906,0.365854,1.341463,-0.548781,-4.800000,18.512501,20.231251,29.454,0.57802722,-0.00961978,-0.02899973,-0.81544528
'00:10:47.097,0.060059,0.029785,1.003906,0.365854,1.341463,-0.609756,-4.806250,18.468750,20.162500,29.408,0.57801190,-0.00960770,-0.02899122,-0.81545659
'00:10:47.104,0.058594,0.028320,1.003906,0.304878,1.341463,-0.609756,-4.806250,18.468750,20.162500,29.408,0.57800391,-0.00960195,-0.02897391,-0.81546293
'00:10:47.114,0.059082,0.026855,1.004395,0.365854,1.341463,-0.609756,-4.437500,18.000000,19.850000,29.393,0.57800916,-0.00961538,-0.02896546,-0.81545935
'00:10:47.124,0.059082,0.030273,1.002441,0.304878,1.341463,-0.609756,-4.437500,18.000000,19.850000,29.423,0.57801358,-0.00961799,-0.02897344,-0.81545591
'00:10:47.136,0.059082,0.031250,1.003418,0.304878,1.341463,-0.548781,-4.437500,17.962500,19.775000,29.408,0.57802317,-0.00961533,-0.02898826,-0.81544861
'00:10:47.144,0.060547,0.028320,1.003906,0.304878,1.341463,-0.609756,-4.437500,17.962500,19.775000,29.423,0.57802652,-0.00962959,-0.02898896,-0.81544605
'00:10:47.154,0.059570,0.029297,1.003418,0.304878,1.341463,-0.609756,-4.443750,17.993750,19.843750,29.393,0.57803045,-0.00963798,-0.02899174,-0.81544306
'00:10:47.164,0.060059,0.030273,1.000977,0.365854,1.341463,-0.609756,-4.443750,17.993750,19.843750,29.454,0.57803414,-0.00964239,-0.02900742,-0.81543984
'00:10:47.176,0.059570,0.029297,1.000977,0.365854,1.341463,-0.548781,-4.462500,18.012501,19.975000,29.393,0.57804226,-0.00964857,-0.02901501,-0.81543374
'00:10:47.184,0.059570,0.027344,1.004883,0.304878,1.341463,-0.609756,-4.656250,18.250000,20.093750,29.393,0.57803757,-0.00965357,-0.02899824,-0.81543760
'00:10:47.194,0.058594,0.030273,1.004883,0.304878,1.280488,-0.609756,-4.656250,18.250000,20.093750,29.408,0.57803101,-0.00964675,-0.02899349,-0.81544250
'00:10:47.204,0.059082,0.030273,1.004395,0.365854,1.341463,-0.609756,-4.481250,18.106251,19.887501,29.423,0.57803442,-0.00964396,-0.02900317,-0.81543977
'00:10:47.215,0.060547,0.029785,1.001465,0.426829,1.341463,-0.609756,-4.481250,18.106251,19.887501,29.363,0.57803820,-0.00964948,-0.02902311,-0.81543631
'00:10:47.224,0.059082,0.030762,1.002930,0.365854,1.341463,-0.609756,-4.425000,17.975000,19.818750,29.363,0.57804230,-0.00964685,-0.02903599,-0.81543298
'00:10:47.234,0.059082,0.028320,1.004395,0.304878,1.280488,-0.548781,-4.425000,17.975000,19.818750,29.408,0.57805151,-0.00966127,-0.02903399,-0.81542636
'00:10:47.244,0.058105,0.028809,1.004883,0.304878,1.341463,-0.548781,-4.393750,17.937500,19.787500,29.393,0.57806228,-0.00966490,-0.02902927,-0.81541885
'00:10:47.254,0.060059,0.029297,1.003906,0.304878,1.341463,-0.609756,-4.393750,17.937500,19.787500,29.363,0.57806846,-0.00967756,-0.02903582,-0.81541408
'00:10:47.264,0.059570,0.030762,1.002930,0.365854,1.341463,-0.548781,-4.487500,17.975000,19.868750,29.393,0.57807256,-0.00967316,-0.02904660,-0.81541084
'00:10:47.274,0.060059,0.030273,1.002441,0.426829,1.341463,-0.548781,-4.487500,17.975000,19.868750,29.423,0.57807677,-0.00967060,-0.02906088,-0.81540738
'00:10:47.284,0.061035,0.028320,1.004883,0.304878,1.341463,-0.548781,-4.506250,17.931250,19.843750,29.423,0.57807909,-0.00968536,-0.02905547,-0.81540575
'00:10:47.296,0.061035,0.029297,1.004395,0.426829,1.280488,-0.548781,-4.506250,17.931250,19.843750,29.378,0.57808152,-0.00969595,-0.02907014,-0.81540338
'00:10:47.304,0.059570,0.031738,1.001953,0.365854,1.341463,-0.548781,-4.587500,18.200001,19.975000,29.423,0.57808257,-0.00968666,-0.02908056,-0.81540237
'00:10:47.314,0.062500,0.029297,1.002441,0.243902,1.280488,-0.548781,-4.587500,18.200001,19.975000,29.363,0.57808405,-0.00971184,-0.02908533,-0.81540086
'00:10:47.324,0.063477,0.028320,1.004883,0.304878,1.341463,-0.609756,-4.437500,17.968750,19.781250,29.363,0.57808763,-0.00974403,-0.02909568,-0.81539756
