# FW/GUI: v9.6.1-multi17-dual (PyQt5)
# StartTime: 2026-04-03 16:18:45
# Slot: 13
# DeviceID: 13
# Label: EMG13
# IP: 192.168.137.206
# TCP: 3333
# DeviceFW: EMG_FW_v9.6_MULTI17_DUALCH_RUNTIMECFG_CHEN
# EMG column notes: EMG_t_s=seconds since this Start; sample_idx=device sample index (ADS frame index); fs=sample rate (SPS); gain=gain; flags=0x01(TEST) 0x02(SHORT) 0x04(RLD); emg_valid=1 valid / 0 invalid (spike-guard decision); ch1_raw_uV=raw uV (after spike guard); ch1_filt_uV=filtered uV; ch1_env_uV=envelope (RMS) uV
EMG_t_s,sample_idx,fs,gain,flags,emg_valid,ch1_raw_uV,ch1_filt_uV,ch1_env_uV,ch2_raw_uV,ch2_filt_uV,ch2_env_uV
0.000000,582131,1000.00,12,0,1,996.834,-19.941,7.921,975.023,1.868,1.133
0.001000,582132,1000.00,12,0,1,1005.217,-5.367,7.950,974.519,0.543,1.127
0.002000,582133,1000.00,12,0,1,1013.600,-1.207,7.948,973.630,-0.003,1.127
0.003000,582134,1000.00,12,0,1,1018.645,4.585,7.967,973.005,-0.898,1.133
0.004000,582135,1000.00,12,0,1,1019.029,2.638,7.915,971.996,-1.411,1.150
0.005000,582136,1000.00,12,0,1,1021.815,2.970,7.882,974.351,0.272,1.143
0.006000,582137,1000.00,12,0,1,1024.145,5.087,7.703,974.639,1.427,1.152
0.007000,582138,1000.00,12,0,1,1020.206,0.305,7.355,974.975,0.894,1.156
0.008000,582139,1000.00,12,0,1,1015.282,-3.542,7.354,974.254,0.687,1.159
0.009000,582140,1000.00,12,0,1,1013.528,-4.922,7.378,974.110,-0.029,1.156
0.010000,582141,1000.00,12,0,1,1013.985,-1.896,7.372,974.110,0.211,1.156
0.011000,582142,1000.00,12,0,1,1010.141,-3.329,7.386,974.230,0.137,1.151
0.012000,582143,1000.00,12,0,1,1011.895,-0.688,7.374,974.375,0.218,1.149
0.013000,582144,1000.00,12,0,1,1014.729,4.317,7.384,973.510,-0.431,1.150
0.014000,582145,1000.00,12,0,1,1016.507,6.351,7.438,973.534,-0.798,1.147
0.015000,582146,1000.00,12,0,1,1009.084,1.294,7.437,973.294,-0.569,1.100
0.016000,582147,1000.00,12,0,1,1003.608,-4.959,7.470,973.582,-0.682,1.036
0.017000,582148,1000.00,12,0,1,1008.460,-0.206,7.453,973.246,-0.523,1.005
0.018000,582149,1000.00,12,0,1,1015.714,6.456,7.441,973.486,-0.688,0.997
0.019000,582150,1000.00,12,0,1,1016.411,6.089,7.364,973.510,-0.274,0.997
0.020000,582151,1000.00,12,0,1,1015.570,2.691,7.312,973.173,-0.725,1.002
0.021000,582152,1000.00,12,0,1,1014.009,-0.424,7.284,974.567,0.411,0.981
0.022000,582153,1000.00,12,0,1,1016.291,-0.783,7.278,972.453,-0.747,0.987
0.023000,582154,1000.00,12,0,1,1019.029,0.739,7.276,972.141,-1.887,1.021
0.024000,582155,1000.00,12,0,1,1020.758,0.625,7.275,974.158,0.654,1.024
0.025000,582156,1000.00,12,0,1,1020.855,-0.249,7.265,974.711,1.164,1.036
0.026000,582157,1000.00,12,0,1,1022.944,0.417,7.030,973.366,0.045,1.034
0.027000,582158,1000.00,12,0,1,1021.479,-0.322,6.758,973.053,-0.538,1.025
0.028000,582159,1000.00,12,0,1,1022.200,-0.522,6.687,974.351,0.744,1.025
0.029000,582160,1000.00,12,0,1,1015.066,-4.167,6.590,974.086,0.803,0.996
0.030000,582161,1000.00,12,0,1,1008.700,-9.898,6.736,973.270,-0.248,0.992
0.031000,582162,1000.00,12,0,1,1011.607,-4.685,6.761,973.846,0.275,0.990
0.032000,582163,1000.00,12,0,1,1017.540,3.172,6.759,973.125,-0.111,0.986
0.033000,582164,1000.00,12,0,1,1011.727,0.810,6.760,972.069,-1.203,1.000
0.034000,582165,1000.00,12,0,1,1006.706,-4.143,6.777,974.855,0.967,1.007
0.035000,582166,1000.00,12,0,1,1000.317,-6.901,6.841,974.254,1.322,1.024
0.036000,582167,1000.00,12,0,1,996.642,-9.613,6.970,971.732,-1.712,1.051
0.037000,582168,1000.00,12,0,1,1008.916,1.589,6.973,973.149,-0.552,1.042
0.038000,582169,1000.00,12,0,1,1014.609,9.391,7.085,974.615,1.199,1.053
0.039000,582170,1000.00,12,0,1,1013.312,4.894,7.042,973.798,0.338,1.005
0.040000,582171,1000.00,12,0,1,1013.865,3.915,7.005,975.287,1.088,0.998
0.041000,582172,1000.00,12,0,1,1015.378,2.803,6.782,973.966,0.535,0.997
0.042000,582173,1000.00,12,0,1,1016.555,2.224,6.543,974.591,-0.037,0.988
0.043000,582174,1000.00,12,0,1,1012.447,-2.606,6.515,973.606,0.050,0.976
0.044000,582175,1000.00,12,0,1,1019.966,0.696,6.515,973.558,-0.885,0.934
0.045000,582176,1000.00,12,0,1,1035.795,14.695,6.838,975.215,1.049,0.931
0.046000,582177,1000.00,12,0,1,1028.541,8.640,6.929,972.189,-1.127,0.932
0.047000,582178,1000.00,12,0,1,1022.176,-2.131,6.665,972.693,-1.742,0.953
0.048000,582179,1000.00,12,0,1,1028.925,4.473,5.453,973.342,0.224,0.939
0.049000,582180,1000.00,12,0,1,1019.605,-1.124,5.455,972.909,-0.719,0.871
0.050000,582181,1000.00,12,0,1,1012.688,-9.237,4.849,972.189,-0.739,0.836
0.051000,582182,1000.00,12,0,1,1031.448,8.299,4.931,972.693,-0.608,0.837
0.052000,582183,1000.00,12,0,1,1017.396,3.264,4.949,974.086,1.000,0.849
0.053000,582184,1000.00,12,0,1,1006.995,-12.304,5.206,973.726,0.764,0.846
0.054000,582185,1000.00,12,0,1,1009.421,-4.328,5.229,973.462,0.134,0.823
0.055000,582186,1000.00,12,0,1,1008.700,-4.311,5.247,974.543,1.058,0.835
0.056000,582187,1000.00,12,0,1,1001.566,-8.135,5.324,975.431,1.665,0.844
0.057000,582188,1000.00,12,0,1,1003.656,-7.155,5.419,972.213,-0.889,0.844
0.058000,582189,1000.00,12,0,1,1017.227,5.542,5.452,973.198,-1.245,0.856
0.059000,582190,1000.00,12,0,1,1020.446,9.325,5.566,971.828,-0.879,0.865
0.060000,582191,1000.00,12,0,1,1003.968,-7.386,5.657,973.414,-0.879,0.874
0.061000,582192,1000.00,12,0,1,1012.808,-5.046,5.682,974.543,1.505,0.899
0.062000,582193,1000.00,12,0,1,1014.825,1.375,5.685,973.486,-0.108,0.899
0.063000,582194,1000.00,12,0,1,1016.579,-2.433,5.662,973.270,-0.262,0.897
0.064000,582195,1000.00,12,0,1,1015.642,-1.219,5.593,974.375,0.698,0.896
0.065000,582196,1000.00,12,0,1,1013.408,-5.438,5.643,974.735,1.074,0.905
0.066000,582197,1000.00,12,0,1,1016.891,-1.984,5.606,973.246,-0.121,0.900
0.067000,582198,1000.00,12,0,1,1014.417,-1.967,5.613,974.254,0.090,0.897
0.068000,582199,1000.00,12,0,1,1014.297,-3.059,5.555,971.588,-1.020,0.903
0.069000,582200,1000.00,12,0,1,1015.402,1.256,5.491,972.861,-1.350,0.923
0.070000,582201,1000.00,12,0,1,1016.771,2.571,5.490,974.423,1.588,0.944
0.071000,582202,1000.00,12,0,1,1014.609,3.618,5.513,975.816,1.790,0.975
0.072000,582203,1000.00,12,0,1,1010.574,0.262,5.512,974.326,1.153,0.983
0.073000,582204,1000.00,12,0,1,1009.493,1.080,5.513,972.501,-1.379,0.966
0.074000,582205,1000.00,12,0,1,1008.868,1.822,5.519,972.549,-1.126,0.975
0.075000,582206,1000.00,12,0,1,1006.298,0.663,5.519,973.870,0.113,0.961
0.076000,582207,1000.00,12,0,1,1007.043,1.172,5.522,972.501,-0.710,0.966
0.077000,582208,1000.00,12,0,1,1010.045,4.050,5.551,972.741,-0.995,0.974
0.078000,582209,1000.00,12,0,1,1007.811,1.904,5.557,972.765,-0.424,0.970
0.079000,582210,1000.00,12,0,1,1010.574,1.593,5.530,974.326,0.544,0.966
0.080000,582211,1000.00,12,0,1,1016.771,6.420,5.427,976.152,2.348,1.021
0.081000,582212,1000.00,12,0,1,1012.135,1.040,5.388,975.504,1.635,1.046
0.082000,582213,1000.00,12,0,1,1014.921,-0.797,5.371,973.798,-0.393,1.048
0.083000,582214,1000.00,12,0,1,1015.858,0.883,5.371,973.774,-0.544,1.036
0.084000,582215,1000.00,12,0,1,1016.146,-1.898,5.345,974.855,0.406,1.029
0.085000,582216,1000.00,12,0,1,1022.368,3.035,5.273,973.654,-0.229,1.012
0.086000,582217,1000.00,12,0,1,1034.114,11.809,5.362,973.486,-0.946,0.992
0.087000,582218,1000.00,12,0,1,1021.455,2.870,5.372,974.254,0.248,0.990
0.088000,582219,1000.00,12,0,1,1010.141,-11.614,5.459,974.543,0.381,0.976
0.089000,582220,1000.00,12,0,1,1010.141,-8.194,5.537,975.696,1.298,0.992
0.090000,582221,1000.00,12,0,1,1008.580,-6.772,5.592,974.326,0.377,0.982
0.091000,582222,1000.00,12,0,1,1009.253,-4.170,5.609,972.837,-1.479,1.001
0.092000,582223,1000.00,12,0,1,1014.825,3.331,5.620,972.285,-1.596,1.026
0.093000,582224,1000.00,12,0,1,1018.452,7.927,5.719,973.486,-0.641,1.030
0.094000,582225,1000.00,12,0,1,1014.201,5.333,5.767,974.302,0.566,1.026
0.095000,582226,1000.00,12,0,1,1012.447,2.042,5.388,972.693,-0.841,1.022
0.096000,582227,1000.00,12,0,1,1011.847,2.553,5.260,974.182,-0.121,1.009
0.097000,582228,1000.00,12,0,1,1013.504,2.255,5.261,974.014,0.589,0.982
0.098000,582229,1000.00,12,0,1,1019.293,6.559,5.304,974.543,0.113,0.982
0.099000,582230,1000.00,12,0,1,1015.906,2.785,5.317,974.663,0.789,0.983
0.100000,582231,1000.00,12,0,1,1011.871,-4.182,5.187,974.110,-0.233,0.978
0.101000,582232,1000.00,12,0,1,1012.952,-4.230,5.088,973.270,-0.778,0.981
0.102000,582233,1000.00,12,0,1,1014.825,-3.643,5.093,971.996,-1.860,1.005
0.103000,582234,1000.00,12,0,1,1016.939,-2.697,4.802,971.420,-2.196,1.047
0.104000,582235,1000.00,12,0,1,1023.665,1.739,4.769,971.588,-1.560,1.069
0.105000,582236,1000.00,12,0,1,1024.602,2.911,4.748,974.158,0.671,1.063
0.106000,582237,1000.00,12,0,1,1025.418,1.324,4.610,973.774,1.254,1.052
0.107000,582238,1000.00,12,0,1,1025.394,1.856,4.506,972.501,-0.576,1.047
0.108000,582239,1000.00,12,0,1,1020.903,-2.110,4.447,971.780,-0.727,1.038
0.109000,582240,1000.00,12,0,1,1018.428,-3.902,4.283,972.357,-0.380,1.032
0.110000,582241,1000.00,12,0,1,1015.330,-4.253,4.196,971.876,-0.165,1.024
0.111000,582242,1000.00,12,0,1,1011.102,-6.333,4.231,972.813,0.254,1.003
0.112000,582243,1000.00,12,0,1,1009.060,-5.641,4.301,975.431,2.758,1.076
0.113000,582244,1000.00,12,0,1,1012.303,-1.045,4.290,973.846,1.638,1.100
0.114000,582245,1000.00,12,0,1,1005.241,-3.404,4.314,974.182,0.671,1.099
0.115000,582246,1000.00,12,0,1,1000.125,-8.721,4.420,975.383,2.229,1.134
0.116000,582247,1000.00,12,0,1,1003.752,-3.161,4.434,974.375,0.817,1.139
0.117000,582248,1000.00,12,0,1,1013.120,5.259,4.487,972.957,-0.623,1.143
0.118000,582249,1000.00,12,0,1,1022.080,12.857,4.822,973.990,-0.112,1.134
0.119000,582250,1000.00,12,0,1,1023.761,12.197,5.118,974.663,0.860,1.124
0.120000,582251,1000.00,12,0,1,1022.224,6.978,5.200,973.101,-0.630,1.105
0.121000,582252,1000.00,12,0,1,1023.473,4.934,5.221,970.579,-2.827,1.148
0.122000,582253,1000.00,12,0,1,1018.909,-0.738,5.222,973.822,-0.409,1.137
0.123000,582254,1000.00,12,0,1,1021.431,-2.177,5.229,973.966,1.160,1.132
0.124000,582255,1000.00,12,0,1,1024.001,0.681,5.224,973.005,-0.649,1.125
0.125000,582256,1000.00,12,0,1,1017.468,-5.820,5.287,973.990,0.541,1.127
0.126000,582257,1000.00,12,0,1,1019.485,-5.626,5.344,975.816,1.976,1.157
0.127000,582258,1000.00,12,0,1,1025.346,1.825,5.320,974.807,1.284,1.163
0.128000,582259,1000.00,12,0,1,1023.425,0.900,5.315,973.534,-0.430,1.163
0.129000,582260,1000.00,12,0,1,1019.533,-1.989,5.317,972.789,-0.983,1.169
0.130000,582261,1000.00,12,0,1,1012.543,-6.088,5.309,973.750,-0.246,1.121
0.131000,582262,1000.00,12,0,1,1012.255,-5.488,5.364,972.669,-0.666,1.101
0.132000,582263,1000.00,12,0,1,1010.045,-3.296,5.383,972.909,-0.945,1.108
0.133000,582264,1000.00,12,0,1,1005.361,-6.171,5.452,973.294,-0.080,1.105
0.134000,582265,1000.00,12,0,1,1013.865,2.025,5.453,974.062,0.331,1.105
0.135000,582266,1000.00,12,0,1,1019.533,9.885,5.613,974.639,0.947,1.112
0.136000,582267,1000.00,12,0,1,1016.987,6.019,5.425,973.246,-0.257,1.105
0.137000,582268,1000.00,12,0,1,1018.549,5.450,5.465,973.270,-0.769,1.109
0.138000,582269,1000.00,12,0,1,1016.098,2.743,5.227,971.732,-1.353,1.125
0.139000,582270,1000.00,12,0,1,1014.537,-1.561,5.101,971.228,-2.337,1.158
0.140000,582271,1000.00,12,0,1,1017.660,0.034,5.011,973.894,0.504,1.159
0.141000,582272,1000.00,12,0,1,1019.822,0.578,4.976,973.726,0.863,1.146
0.142000,582273,1000.00,12,0,1,1020.350,-0.640,4.955,973.198,-0.132,1.124
0.143000,582274,1000.00,12,0,1,1022.800,-0.166,4.827,974.158,0.838,1.126
0.144000,582275,1000.00,12,0,1,1026.403,1.969,4.775,973.149,0.151,1.124
0.145000,582276,1000.00,12,0,1,1024.530,0.068,4.767,973.222,-0.236,1.118
0.146000,582277,1000.00,12,0,1,1014.489,-8.787,4.913,972.453,-0.344,1.119
0.147000,582278,1000.00,12,0,1,1017.900,-6.934,4.999,973.414,-0.033,1.116
0.148000,582279,1000.00,12,0,1,1017.996,-2.020,4.921,973.053,0.428,1.117
0.149000,582280,1000.00,12,0,1,1013.648,-5.712,4.971,972.933,-0.259,1.112
0.150000,582281,1000.00,12,0,1,1011.967,-4.426,4.975,972.981,0.203,1.112
0.151000,582282,1000.00,12,0,1,1019.942,3.527,4.965,974.182,0.903,1.114
0.152000,582283,1000.00,12,0,1,1035.771,18.771,5.606,974.519,1.458,1.102
0.153000,582284,1000.00,12,0,1,1017.516,6.663,5.672,972.645,-0.352,1.059
0.154000,582285,1000.00,12,0,1,1002.166,-13.286,5.970,973.750,-0.038,1.035
0.155000,582286,1000.00,12,0,1,1005.962,-6.171,6.019,973.222,0.361,1.032
0.156000,582287,1000.00,12,0,1,1016.507,3.275,6.034,971.972,-1.441,1.037
0.157000,582288,1000.00,12,0,1,1022.872,9.979,6.192,971.996,-1.004,1.044
0.158000,582289,1000.00,12,0,1,1024.241,8.569,6.302,973.726,0.329,1.040
0.159000,582290,1000.00,12,0,1,1033.561,12.700,6.530,973.149,0.448,1.040
0.160000,582291,1000.00,12,0,1,1021.719,3.239,6.518,973.222,-0.182,1.040
0.161000,582292,1000.00,12,0,1,1006.562,-16.526,6.866,972.021,-0.598,1.043
0.162000,582293,1000.00,12,0,1,1013.024,-10.759,6.987,973.750,0.138,0.967
0.163000,582294,1000.00,12,0,1,1017.852,-4.302,7.012,974.735,1.829,0.974
0.164000,582295,1000.00,12,0,1,1017.612,-5.043,7.032,975.071,1.423,0.990
0.165000,582296,1000.00,12,0,1,1022.464,-0.902,6.924,973.173,0.052,0.939
0.166000,582297,1000.00,12,0,1,1019.317,-1.747,6.914,972.957,-0.845,0.939
0.167000,582298,1000.00,12,0,1,1018.621,-3.570,6.892,973.198,-0.124,0.935
0.168000,582299,1000.00,12,0,1,1020.494,0.480,6.649,972.957,-0.388,0.937
0.169000,582300,1000.00,12,0,1,1024.145,4.039,6.446,972.789,-0.492,0.932
0.170000,582301,1000.00,12,0,1,1027.484,8.313,6.478,974.302,0.792,0.934
0.171000,582302,1000.00,12,0,1,1017.708,1.399,6.443,973.270,0.282,0.845
0.172000,582303,1000.00,12,0,1,1005.866,-9.652,6.585,976.176,1.783,0.880
0.173000,582304,1000.00,12,0,1,1019.605,2.230,6.586,974.711,1.667,0.896
0.174000,582305,1000.00,12,0,1,1030.727,16.216,6.973,974.351,-0.332,0.893
0.175000,582306,1000.00,12,0,1,1021.719,6.934,6.993,972.429,-0.933,0.899
0.176000,582307,1000.00,12,0,1,1015.834,-1.457,6.951,972.501,-1.885,0.895
0.177000,582308,1000.00,12,0,1,1010.766,-5.024,6.982,972.213,-1.091,0.890
0.178000,582309,1000.00,12,0,1,1005.529,-10.707,7.144,972.213,-1.411,0.910
0.179000,582310,1000.00,12,0,1,1006.850,-9.088,7.253,974.855,0.978,0.910
0.180000,582311,1000.00,12,0,1,1010.021,-5.641,7.246,974.302,1.200,0.925
0.181000,582312,1000.00,12,0,1,1019.557,1.675,7.208,973.654,-0.405,0.922
0.182000,582313,1000.00,12,0,1,1037.429,15.948,7.538,974.543,0.810,0.919
0.183000,582314,1000.00,12,0,1,1026.860,7.937,7.571,974.615,0.566,0.923
0.184000,582315,1000.00,12,0,1,1019.653,-6.032,7.613,974.014,0.118,0.922
0.185000,582316,1000.00,12,0,1,1020.494,-2.843,7.495,972.189,-1.537,0.937
0.186000,582317,1000.00,12,0,1,1020.182,-3.975,7.468,970.988,-2.527,1.003
0.187000,582318,1000.00,12,0,1,1023.881,0.100,7.428,970.339,-2.601,1.062
0.188000,582319,1000.00,12,0,1,1023.617,1.643,7.421,972.141,-0.894,1.053
0.189000,582320,1000.00,12,0,1,1018.308,-2.707,7.428,974.062,1.446,1.020
0.190000,582321,1000.00,12,0,1,1012.832,-5.673,7.471,974.014,1.344,1.035
0.191000,582322,1000.00,12,0,1,1014.777,-3.159,7.484,974.855,1.649,1.054
0.192000,582323,1000.00,12,0,1,1012.543,-1.034,7.485,973.750,0.950,1.063
0.193000,582324,1000.00,12,0,1,1007.499,-5.185,7.521,972.981,-0.425,1.058
0.194000,582325,1000.00,12,0,1,1006.923,-3.662,7.533,973.654,0.362,1.059
0.195000,582326,1000.00,12,0,1,1014.441,3.345,7.548,973.942,0.567,1.061
0.196000,582327,1000.00,12,0,1,1016.435,6.972,7.510,973.149,-0.120,1.060
0.197000,582328,1000.00,12,0,1,1005.577,-3.295,7.460,973.198,-0.326,1.061
0.198000,582329,1000.00,12,0,1,1013.624,-0.164,7.455,972.861,-0.350,1.061
0.199000,582330,1000.00,12,0,1,1022.752,10.523,7.559,972.885,-0.494,1.062
0.200000,582331,1000.00,12,0,1,1027.100,9.999,7.665,972.093,-0.834,1.068
0.201000,582332,1000.00,12,0,1,1026.067,7.805,7.728,972.213,-0.914,1.069
0.202000,582333,1000.00,12,0,1,1019.870,-1.099,7.259,973.558,0.526,1.051
0.203000,582334,1000.00,12,0,1,1018.693,-4.191,7.222,974.471,1.407,1.069
0.204000,582335,1000.00,12,0,1,1019.822,-3.069,6.987,974.447,1.220,1.082
0.205000,582336,1000.00,12,0,1,1020.855,-2.595,6.942,975.792,1.961,1.116
0.206000,582337,1000.00,12,0,1,1018.308,-3.580,6.945,972.813,-0.141,1.098
0.207000,582338,1000.00,12,0,1,1022.104,-1.150,6.802,973.894,-0.613,1.092
0.208000,582339,1000.00,12,0,1,1021.863,1.828,6.698,973.270,0.280,1.092
0.209000,582340,1000.00,12,0,1,1021.479,0.576,6.453,974.134,-0.223,1.090
0.210000,582341,1000.00,12,0,1,1021.911,3.089,6.452,975.023,1.426,1.108
0.211000,582342,1000.00,12,0,1,1023.233,4.300,6.044,973.462,-0.324,1.106
0.212000,582343,1000.00,12,0,1,1020.518,3.433,5.870,971.396,-2.189,1.149
0.213000,582344,1000.00,12,0,1,1016.843,-0.092,5.838,975.504,0.911,1.126
0.214000,582345,1000.00,12,0,1,1008.532,-5.826,5.852,974.687,1.567,1.130
0.215000,582346,1000.00,12,0,1,1004.160,-9.797,6.013,976.344,1.201,1.143
0.216000,582347,1000.00,12,0,1,1004.040,-7.885,6.110,973.630,0.296,1.137
0.217000,582348,1000.00,12,0,1,1007.979,-3.779,6.113,973.774,-1.475,1.156
0.218000,582349,1000.00,12,0,1,1008.844,-1.872,6.118,973.870,-0.017,1.155
0.219000,582350,1000.00,12,0,1,1016.339,2.678,6.103,974.783,-0.078,1.153
0.220000,582351,1000.00,12,0,1,1027.076,11.559,6.208,974.302,0.136,1.148
0.221000,582352,1000.00,12,0,1,1018.428,3.527,6.225,974.903,0.070,1.147
0.222000,582353,1000.00,12,0,1,1018.789,-2.368,6.083,975.071,0.472,1.121
0.223000,582354,1000.00,12,0,1,1022.632,2.960,6.089,974.735,0.036,1.096
0.224000,582355,1000.00,12,0,1,1024.217,1.497,5.645,973.414,-1.187,1.108
0.225000,582356,1000.00,12,0,1,1029.142,5.464,5.612,970.723,-3.139,1.186
0.226000,582357,1000.00,12,0,1,1028.469,4.645,5.647,971.708,-2.687,1.216
0.227000,582358,1000.00,12,0,1,1017.684,-4.882,5.644,971.972,-0.973,1.214
0.228000,582359,1000.00,12,0,1,1014.081,-8.596,5.572,973.870,-0.048,1.198
0.229000,582360,1000.00,12,0,1,1017.828,-2.564,5.433,975.960,2.662,1.248
0.230000,582361,1000.00,12,0,1,1008.868,-6.440,5.451,974.831,1.264,1.249
0.231000,582362,1000.00,12,0,1,1009.733,-6.722,5.528,975.648,1.308,1.262
0.232000,582363,1000.00,12,0,1,1013.024,1.521,5.052,974.375,0.679,1.260
0.233000,582364,1000.00,12,0,1,1016.891,4.347,4.964,975.576,0.540,1.260
0.234000,582365,1000.00,12,0,1,1025.563,12.924,5.220,974.399,0.569,1.262
0.235000,582366,1000.00,12,0,1,1008.027,-0.145,5.205,973.222,-1.560,1.263
0.236000,582367,1000.00,12,0,1,993.591,-17.526,5.738,972.981,-1.085,1.221
0.237000,582368,1000.00,12,0,1,1004.040,-6.429,5.809,975.335,0.518,1.167
0.238000,582369,1000.00,12,0,1,1017.732,7.208,5.893,975.071,1.129,1.171
0.239000,582370,1000.00,12,0,1,1030.679,16.484,6.326,975.792,0.767,1.158
0.240000,582371,1000.00,12,0,1,1030.535,14.814,6.615,974.519,0.326,1.143
0.241000,582372,1000.00,12,0,1,1026.716,5.665,6.649,973.606,-1.211,1.132
0.242000,582373,1000.00,12,0,1,1028.229,4.381,6.676,974.158,-0.413,1.125
0.243000,582374,1000.00,12,0,1,1028.733,2.755,6.647,975.215,0.569,1.127
0.244000,582375,1000.00,12,0,1,1020.782,-4.978,6.664,973.654,-0.540,1.128
0.245000,582376,1000.00,12,0,1,1017.804,-9.432,6.780,974.927,-0.057,1.125
0.246000,582377,1000.00,12,0,1,1022.272,-3.979,6.731,974.062,0.047,1.125
0.247000,582378,1000.00,12,0,1,1019.629,-3.900,6.738,972.213,-2.082,1.162
0.248000,582379,1000.00,12,0,1,1017.732,-5.506,6.783,972.549,-1.586,1.183
0.249000,582380,1000.00,12,0,1,1020.494,-0.636,6.618,973.005,-0.674,1.184
0.250000,582381,1000.00,12,0,1,1024.289,3.985,6.490,975.431,1.100,1.189
0.251000,582382,1000.00,12,0,1,1022.056,3.971,6.420,976.536,2.646,1.239
0.252000,582383,1000.00,12,0,1,1021.071,2.404,6.427,974.351,0.186,1.238
0.253000,582384,1000.00,12,0,1,1024.434,6.083,6.457,973.101,-1.225,1.234
0.254000,582385,1000.00,12,0,1,1024.962,6.612,6.510,974.014,-0.439,1.223
0.255000,582386,1000.00,12,0,1,1021.335,2.465,6.509,974.302,0.186,1.192
0.256000,582387,1000.00,12,0,1,1021.863,1.174,6.491,973.630,-0.504,1.194
0.257000,582388,1000.00,12,0,1,1031.183,7.624,6.578,974.038,-0.210,1.191
0.258000,582389,1000.00,12,0,1,1027.148,4.469,6.603,972.909,-0.749,1.195
0.259000,582390,1000.00,12,0,1,999.500,-21.384,7.262,973.798,-0.464,1.196
0.260000,582391,1000.00,12,0,1,990.925,-32.038,8.549,974.086,0.565,1.182
0.261000,582392,1000.00,12,0,1,1000.989,-18.122,8.904,975.047,0.821,1.187
0.262000,582393,1000.00,12,0,1,1006.586,-10.057,9.004,972.429,-0.623,1.149
0.263000,582394,1000.00,12,0,1,1010.357,-5.692,9.040,973.125,-1.175,1.154
0.264000,582395,1000.00,12,0,1,1011.006,-3.381,9.015,974.134,0.896,1.139
0.265000,582396,1000.00,12,0,1,1017.179,1.325,8.909,976.104,1.831,1.156
0.266000,582397,1000.00,12,0,1,1028.998,12.772,9.022,976.200,2.407,1.204
0.267000,582398,1000.00,12,0,1,1031.736,15.313,9.263,974.807,0.467,1.188
0.268000,582399,1000.00,12,0,1,1022.320,6.097,9.299,973.894,-0.528,1.190
0.269000,582400,1000.00,12,0,1,1010.478,-4.953,9.318,973.654,-0.694,1.194
0.270000,582401,1000.00,12,0,1,1015.738,-0.689,9.174,973.149,-1.103,1.204
0.271000,582402,1000.00,12,0,1,1021.143,8.120,9.232,974.807,0.274,1.205
0.272000,582403,1000.00,12,0,1,1023.016,8.949,9.312,974.062,0.144,1.203
0.273000,582404,1000.00,12,0,1,1016.771,5.001,9.330,974.759,0.046,1.203
0.274000,582405,1000.00,12,0,1,1017.780,3.182,9.338,973.846,-0.063,1.191
0.275000,582406,1000.00,12,0,1,1017.540,5.106,9.334,974.831,-0.025,1.106
0.276000,582407,1000.00,12,0,1,1013.120,-0.388,9.311,974.903,0.763,1.044
0.277000,582408,1000.00,12,0,1,1012.856,-1.369,9.288,974.567,-0.090,1.035
0.278000,582409,1000.00,12,0,1,1009.661,-3.567,9.221,973.294,-0.877,1.042
0.279000,582410,1000.00,12,0,1,1012.351,-3.519,9.228,971.948,-2.131,1.017
0.280000,582411,1000.00,12,0,1,1009.373,-4.010,9.200,973.870,-0.518,1.004
0.281000,582412,1000.00,12,0,1,1014.969,-3.030,9.161,975.576,1.692,1.016
0.282000,582413,1000.00,12,0,1,1023.329,6.147,9.200,976.440,1.918,1.047
0.283000,582414,1000.00,12,0,1,1025.178,5.348,9.210,975.696,1.422,1.063
0.284000,582415,1000.00,12,0,1,1033.249,9.663,9.130,973.942,-0.678,1.065
0.285000,582416,1000.00,12,0,1,1038.053,13.178,9.318,972.789,-1.595,1.066
0.286000,582417,1000.00,12,0,1,1040.359,11.459,9.127,973.101,-1.325,1.071
0.287000,582418,1000.00,12,0,1,1030.439,2.985,9.092,973.822,-0.305,1.069
0.288000,582419,1000.00,12,0,1,1020.062,-9.188,9.127,974.711,0.466,1.059
0.289000,582420,1000.00,12,0,1,1020.903,-6.887,8.878,976.632,2.005,1.091
0.290000,582421,1000.00,12,0,1,1024.866,-1.331,8.630,975.576,1.327,1.106
0.291000,582422,1000.00,12,0,1,1029.790,4.118,8.612,977.161,1.491,1.113
0.292000,582423,1000.00,12,0,1,1023.329,0.782,8.591,973.438,-0.520,1.114
0.293000,582424,1000.00,12,0,1,1018.957,-4.758,8.608,975.335,-1.052,1.121
0.294000,582425,1000.00,12,0,1,1021.599,-0.527,8.579,975.095,0.906,1.126
0.295000,582426,1000.00,12,0,1,1020.566,-0.615,8.476,974.254,-1.369,1.142
0.296000,582427,1000.00,12,0,1,1017.660,-3.359,8.470,973.510,-1.047,1.152
0.297000,582428,1000.00,12,0,1,1012.423,-7.465,8.518,972.957,-1.829,1.143
0.298000,582429,1000.00,12,0,1,1008.700,-11.084,8.626,975.528,0.449,1.123
0.299000,582430,1000.00,12,0,1,1007.307,-11.251,8.771,975.504,1.294,1.134
0.300000,582431,1000.00,12,0,1,1005.818,-11.827,8.911,971.372,-2.771,1.189
0.301000,582432,1000.00,12,0,1,1013.937,-5.144,8.923,973.173,-1.585,1.151
0.302000,582433,1000.00,12,0,1,1032.312,10.895,9.049,974.615,0.807,1.156
0.303000,582434,1000.00,12,0,1,1031.159,10.893,9.139,976.632,1.924,1.175
0.304000,582435,1000.00,12,0,1,1007.691,-12.409,9.259,976.440,2.207,1.214
0.305000,582436,1000.00,12,0,1,1005.529,-17.492,9.577,975.071,0.233,1.214
0.306000,582437,1000.00,12,0,1,1013.985,-4.894,9.601,974.254,-0.554,1.215
0.307000,582438,1000.00,12,0,1,1019.509,0.946,9.541,973.366,-1.241,1.227
0.308000,582439,1000.00,12,0,1,1028.085,9.479,9.614,974.182,-0.725,1.227
0.309000,582440,1000.00,12,0,1,1025.010,8.701,9.208,975.143,0.623,1.228
0.310000,582441,1000.00,12,0,1,1019.029,1.796,8.020,975.792,0.862,1.232
0.311000,582442,1000.00,12,0,1,1022.344,5.448,7.639,974.951,0.394,1.227
0.312000,582443,1000.00,12,0,1,1028.877,11.936,7.693,974.134,-0.793,1.229
0.313000,582444,1000.00,12,0,1,1035.843,17.466,8.039,974.687,-0.146,1.218
0.314000,582445,1000.00,12,0,1,1030.727,12.869,8.229,974.375,-0.227,1.212
0.315000,582446,1000.00,12,0,1,1006.106,-9.587,8.338,975.696,0.579,1.187
0.316000,582447,1000.00,12,0,1,1011.535,-9.771,8.256,974.903,0.495,1.139
0.317000,582448,1000.00,12,0,1,1018.020,2.784,7.977,975.119,-0.133,1.138
0.318000,582449,1000.00,12,0,1,1021.815,2.071,7.936,975.143,0.475,1.137
0.319000,582450,1000.00,12,0,1,1025.226,6.000,7.950,974.351,-0.577,1.136
0.320000,582451,1000.00,12,0,1,1030.271,6.698,8.006,976.128,0.790,1.131
0.321000,582452,1000.00,12,0,1,1033.393,7.914,8.002,977.834,2.511,1.184
0.322000,582453,1000.00,12,0,1,1040.527,9.985,8.026,975.431,0.293,1.185
0.323000,582454,1000.00,12,0,1,1030.703,1.152,7.996,974.591,-1.219,1.197
0.324000,582455,1000.00,12,0,1,1029.358,-6.070,8.030,975.215,-0.312,1.198
0.325000,582456,1000.00,12,0,1,1032.288,-1.699,8.001,974.351,-0.924,1.205
0.326000,582457,1000.00,12,0,1,1031.784,-3.263,8.014,974.110,-1.304,1.215
0.327000,582458,1000.00,12,0,1,1025.226,-8.078,8.093,975.335,-0.007,1.214
0.328000,582459,1000.00,12,0,1,1025.995,-7.748,8.151,973.558,-1.090,1.218
0.329000,582460,1000.00,12,0,1,1021.191,-8.178,8.218,974.639,-0.852,1.186
0.330000,582461,1000.00,12,0,1,1021.671,-7.683,8.270,974.663,0.201,1.184
0.331000,582462,1000.00,12,0,1,1026.115,-0.444,8.259,972.381,-2.104,1.197
0.332000,582463,1000.00,12,0,1,1016.579,-5.511,8.250,973.173,-1.460,1.184
0.333000,582464,1000.00,12,0,1,1014.585,-8.603,8.305,974.471,0.363,1.168
0.334000,582465,1000.00,12,0,1,1013.937,-4.101,8.212,973.846,-0.155,1.165
0.335000,582466,1000.00,12,0,1,1008.532,-8.515,8.088,972.813,-0.972,1.151
0.336000,582467,1000.00,12,0,1,1009.253,-6.185,7.972,973.053,-0.799,1.141
0.337000,582468,1000.00,12,0,1,1016.651,1.068,7.962,973.294,-0.140,1.140
0.338000,582469,1000.00,12,0,1,1024.626,8.454,7.946,974.038,0.382,1.140
0.339000,582470,1000.00,12,0,1,1032.048,12.958,8.096,974.615,1.139,1.116
0.340000,582471,1000.00,12,0,1,1061.041,32.170,9.285,973.077,-0.167,1.100
0.341000,582472,1000.00,12,0,1,1058.447,31.312,10.270,974.999,0.854,1.086
0.342000,582473,1000.00,12,0,1,1003.031,-23.697,10.803,974.903,1.675,1.109
0.343000,582474,1000.00,12,0,1,1005.409,-32.218,11.705,973.894,-0.074,1.099
0.344000,582475,1000.00,12,0,1,1017.179,-8.360,11.764,974.423,0.570,1.095
0.345000,582476,1000.00,12,0,1,1033.201,0.338,11.764,973.606,-0.019,1.078
0.346000,582477,1000.00,12,0,1,1041.753,14.208,11.925,976.008,1.411,1.086
0.347000,582478,1000.00,12,0,1,1041.248,9.066,11.947,973.606,0.517,1.057
0.348000,582479,1000.00,12,0,1,1039.158,7.439,11.891,973.822,-0.989,1.064
0.349000,582480,1000.00,12,0,1,1028.781,-1.621,11.786,972.981,-0.168,1.049
0.350000,582481,1000.00,12,0,1,1014.561,-14.081,11.835,975.239,0.423,0.975
0.351000,582482,1000.00,12,0,1,1011.607,-14.281,11.984,975.912,2.319,1.004
0.352000,582483,1000.00,12,0,1,1021.527,-3.174,11.893,974.711,0.279,0.998
0.353000,582484,1000.00,12,0,1,1035.507,12.295,11.921,974.423,0.025,0.960
0.354000,582485,1000.00,12,0,1,1035.435,12.648,11.926,974.591,0.144,0.908
0.355000,582486,1000.00,12,0,1,1020.422,-1.384,11.668,975.071,0.348,0.909
0.356000,582487,1000.00,12,0,1,1015.594,-8.778,11.713,974.302,-0.001,0.906
0.357000,582488,1000.00,12,0,1,1012.207,-8.511,11.774,974.447,-0.495,0.891
0.358000,582489,1000.00,12,0,1,1016.531,-6.739,11.736,975.383,0.743,0.892
0.359000,582490,1000.00,12,0,1,1021.863,0.457,11.672,975.431,0.498,0.890
0.360000,582491,1000.00,12,0,1,1025.418,1.536,11.671,973.246,-1.145,0.896
0.361000,582492,1000.00,12,0,1,1026.139,1.802,11.649,975.143,-0.370,0.896
0.362000,582493,1000.00,12,0,1,1030.871,3.245,11.535,974.230,0.172,0.889
0.363000,582494,1000.00,12,0,1,1032.096,4.142,11.282,973.438,-1.600,0.918
0.364000,582495,1000.00,12,0,1,1024.145,-3.975,11.149,974.423,-0.083,0.917
0.365000,582496,1000.00,12,0,1,1018.645,-10.041,11.157,973.053,-1.053,0.925
0.366000,582497,1000.00,12,0,1,1015.066,-10.794,11.176,973.534,-1.043,0.935
0.367000,582498,1000.00,12,0,1,1015.834,-9.033,11.241,973.510,-0.220,0.935
0.368000,582499,1000.00,12,0,1,1021.791,-0.738,11.238,974.999,0.420,0.934
0.369000,582500,1000.00,12,0,1,1031.544,8.920,11.277,973.990,0.513,0.934
0.370000,582501,1000.00,12,0,1,1042.089,18.966,11.553,972.501,-1.613,0.955
0.371000,582502,1000.00,12,0,1,1037.837,15.557,11.707,973.342,-0.476,0.889
0.372000,582503,1000.00,12,0,1,1025.755,2.521,11.627,973.510,-0.056,0.888
0.373000,582504,1000.00,12,0,1,1022.080,-1.563,11.628,973.222,-0.348,0.872
0.374000,582505,1000.00,12,0,1,1018.356,-2.973,11.604,973.270,-0.164,0.871
0.375000,582506,1000.00,12,0,1,1017.251,-4.234,11.617,974.591,0.824,0.869
0.376000,582507,1000.00,12,0,1,1021.431,0.398,11.608,975.095,1.560,0.878
0.377000,582508,1000.00,12,0,1,1019.557,-0.400,11.551,974.182,0.423,0.880
0.378000,582509,1000.00,12,0,1,1017.780,-3.544,11.510,973.702,-0.133,0.866
0.379000,582510,1000.00,12,0,1,1021.815,-0.424,11.452,975.239,0.979,0.869
0.380000,582511,1000.00,12,0,1,1023.353,0.663,11.401,973.846,0.317,0.870
0.381000,582512,1000.00,12,0,1,1021.047,-2.642,11.407,974.182,-0.319,0.818
0.382000,582513,1000.00,12,0,1,1023.425,-2.195,11.384,974.591,0.750,0.799
0.383000,582514,1000.00,12,0,1,1036.660,7.946,11.375,975.431,0.892,0.807
0.384000,582515,1000.00,12,0,1,1042.257,13.069,11.509,975.455,1.221,0.825
0.385000,582516,1000.00,12,0,1,1013.696,-11.593,11.563,975.984,1.096,0.828
0.386000,582517,1000.00,12,0,1,1010.574,-20.814,11.900,976.753,1.745,0.857
0.387000,582518,1000.00,12,0,1,1021.984,-2.968,11.906,974.447,-0.220,0.857
0.388000,582519,1000.00,12,0,1,1025.875,0.982,11.847,974.471,-1.079,0.869
0.389000,582520,1000.00,12,0,1,1032.817,8.068,11.760,973.149,-1.207,0.871
0.390000,582521,1000.00,12,0,1,1029.022,6.880,10.888,973.077,-2.029,0.917
0.391000,582522,1000.00,12,0,1,1023.785,0.331,9.946,974.807,0.244,0.909
0.392000,582523,1000.00,12,0,1,1033.754,9.351,9.458,974.543,0.094,0.878
0.393000,582524,1000.00,12,0,1,1049.727,23.082,8.908,973.870,-0.657,0.883
0.394000,582525,1000.00,12,0,1,1047.397,20.952,9.313,973.894,-0.561,0.883
0.395000,582526,1000.00,12,0,1,1042.545,10.467,9.430,972.141,-1.781,0.918
0.396000,582527,1000.00,12,0,1,1035.195,3.443,9.226,973.486,-1.024,0.908
0.397000,582528,1000.00,12,0,1,1024.025,-9.144,9.227,973.294,-0.176,0.905
0.398000,582529,1000.00,12,0,1,1022.272,-11.659,9.314,973.390,-0.692,0.900
0.399000,582530,1000.00,12,0,1,1023.905,-8.943,9.397,972.621,-0.671,0.904
0.400000,582531,1000.00,12,0,1,1022.848,-9.756,9.287,973.198,-0.612,0.906
0.401000,582532,1000.00,12,0,1,1024.193,-8.602,9.146,973.582,0.317,0.846
0.402000,582533,1000.00,12,0,1,1030.463,-3.354,9.147,974.591,0.874,0.854
0.403000,582534,1000.00,12,0,1,1039.855,4.564,9.003,975.455,1.775,0.890
0.404000,582535,1000.00,12,0,1,1043.362,6.928,8.878,974.975,1.212,0.906
0.405000,582536,1000.00,12,0,1,1033.585,-2.544,8.883,974.615,0.490,0.908
0.406000,582537,1000.00,12,0,1,1032.144,-6.866,8.849,975.672,1.337,0.927
0.407000,582538,1000.00,12,0,1,1032.000,-4.170,8.787,975.023,0.846,0.932
0.408000,582539,1000.00,12,0,1,1025.467,-9.403,8.836,974.903,0.286,0.927
0.409000,582540,1000.00,12,0,1,1023.305,-9.969,8.947,974.591,0.198,0.925
0.410000,582541,1000.00,12,0,1,1028.277,-3.316,8.957,971.468,-2.311,0.968
0.411000,582542,1000.00,12,0,1,1033.874,3.747,8.969,972.693,-1.863,1.001
0.412000,582543,1000.00,12,0,1,1028.445,1.181,8.959,972.981,-0.194,1.002
0.413000,582544,1000.00,12,0,1,1018.212,-7.929,9.010,973.774,-0.243,0.976
0.414000,582545,1000.00,12,0,1,1022.344,-3.933,9.009,973.414,0.318,0.977
0.415000,582546,1000.00,12,0,1,1034.594,8.898,8.985,975.576,1.242,0.982
0.416000,582547,1000.00,12,0,1,1039.158,13.222,9.050,974.302,1.162,0.984
0.417000,582548,1000.00,12,0,1,1039.182,10.625,9.084,976.056,1.060,0.995
0.418000,582549,1000.00,12,0,1,1037.477,7.121,9.140,975.359,1.604,1.019
0.419000,582550,1000.00,12,0,1,1036.708,3.720,9.067,974.975,-0.123,1.016
0.420000,582551,1000.00,12,0,1,1036.564,2.001,8.666,973.870,-0.464,0.993
0.421000,582552,1000.00,12,0,1,1039.519,2.297,8.389,974.687,-0.465,0.993
0.422000,582553,1000.00,12,0,1,1044.923,5.519,8.417,973.630,-0.645,0.997
0.423000,582554,1000.00,12,0,1,1046.773,5.542,8.451,975.744,0.351,0.997
0.424000,582555,1000.00,12,0,1,1045.500,2.191,8.446,975.768,1.297,1.013
0.425000,582556,1000.00,12,0,1,1041.416,-2.447,8.432,973.053,-1.550,1.030
0.426000,582557,1000.00,12,0,1,1039.999,-4.913,8.460,974.038,-1.104,1.018
0.427000,582558,1000.00,12,0,1,1036.348,-6.652,8.512,974.711,0.466,1.019
0.428000,582559,1000.00,12,0,1,1031.856,-10.167,8.618,973.630,-0.881,1.026
0.429000,582560,1000.00,12,0,1,1023.497,-14.453,8.857,973.582,-0.640,1.021
0.430000,582561,1000.00,12,0,1,1015.258,-19.439,9.273,973.990,-0.277,1.020
0.431000,582562,1000.00,12,0,1,1005.289,-23.138,9.827,973.222,-0.532,1.022
0.432000,582563,1000.00,12,0,1,1009.325,-17.063,10.114,975.191,0.619,1.020
0.433000,582564,1000.00,12,0,1,1017.227,-3.786,10.066,976.753,2.600,1.077
0.434000,582565,1000.00,12,0,1,1022.056,2.248,9.899,975.720,1.174,1.076
0.435000,582566,1000.00,12,0,1,1026.884,7.459,9.820,975.119,0.222,1.066
0.436000,582567,1000.00,12,0,1,1026.571,7.519,9.428,974.351,-0.437,1.038
0.437000,582568,1000.00,12,0,1,1036.660,12.794,9.591,975.672,0.225,1.038
0.438000,582569,1000.00,12,0,1,1052.658,26.007,10.271,975.744,0.809,1.033
0.439000,582570,1000.00,12,0,1,1055.300,24.641,10.786,976.416,0.589,1.023
0.440000,582571,1000.00,12,0,1,1035.964,4.180,10.758,975.576,0.328,0.983
0.441000,582572,1000.00,12,0,1,1037.117,-2.674,10.765,975.576,-0.469,0.984
0.442000,582573,1000.00,12,0,1,1046.437,7.928,10.742,975.119,-0.350,0.985
0.443000,582574,1000.00,12,0,1,1051.217,8.731,10.308,974.687,-1.071,0.993
0.444000,582575,1000.00,12,0,1,1044.443,2.776,9.881,973.822,-1.425,1.010
0.445000,582576,1000.00,12,0,1,1033.802,-9.053,9.853,974.302,-1.112,0.990
0.446000,582577,1000.00,12,0,1,1042.113,-3.035,9.850,974.855,-0.163,0.980
0.447000,582578,1000.00,12,0,1,1043.890,3.028,9.774,974.663,-0.239,0.980
0.448000,582579,1000.00,12,0,1,1010.694,-23.913,10.211,973.149,-1.374,0.995
0.449000,582580,1000.00,12,0,1,1008.027,-29.455,10.955,974.134,-0.720,0.995
0.450000,582581,1000.00,12,0,1,1023.064,-6.380,10.905,974.254,0.088,0.992
0.451000,582582,1000.00,12,0,1,1031.159,2.898,10.845,977.137,1.883,1.026
0.452000,582583,1000.00,12,0,1,1037.357,9.672,10.920,977.497,2.929,1.099
0.453000,582584,1000.00,12,0,1,1048.791,18.183,11.200,976.897,1.259,1.085
0.454000,582585,1000.00,12,0,1,1052.730,20.624,11.532,976.536,0.905,1.079
0.455000,582586,1000.00,12,0,1,1043.074,9.070,11.598,975.672,-0.187,1.077
0.456000,582587,1000.00,12,0,1,1035.195,-2.202,11.561,976.416,0.064,1.060
0.457000,582588,1000.00,12,0,1,1037.885,-1.125,11.548,975.504,-0.251,1.054
0.458000,582589,1000.00,12,0,1,1044.803,3.601,11.482,975.840,-0.748,1.059
0.459000,582590,1000.00,12,0,1,1048.286,5.682,11.423,977.233,0.971,1.067
0.460000,582591,1000.00,12,0,1,1053.475,6.725,11.453,975.864,-0.301,1.017
0.461000,582592,1000.00,12,0,1,1046.797,0.962,11.442,974.639,-1.635,1.009
0.462000,582593,1000.00,12,0,1,1044.995,-5.373,11.466,975.383,-0.878,1.016
0.463000,582594,1000.00,12,0,1,1045.476,-3.150,11.420,976.032,0.020,1.016
0.464000,582595,1000.00,12,0,1,1051.793,0.205,11.406,974.735,-0.912,1.023
0.465000,582596,1000.00,12,0,1,1042.041,-4.605,11.355,975.576,-0.553,1.011
0.466000,582597,1000.00,12,0,1,1034.666,-14.061,11.375,974.110,-0.897,1.005
0.467000,582598,1000.00,12,0,1,1037.429,-8.113,11.334,975.792,-0.391,0.996
0.468000,582599,1000.00,12,0,1,1042.569,-1.720,11.292,976.104,1.122,0.982
0.469000,582600,1000.00,12,0,1,1043.506,1.051,11.280,975.624,-0.154,0.982
0.470000,582601,1000.00,12,0,1,1044.323,2.111,11.281,976.296,0.660,0.985
0.471000,582602,1000.00,12,0,1,1033.465,-5.424,11.302,974.615,-0.636,0.987
0.472000,582603,1000.00,12,0,1,1027.388,-11.800,11.398,976.825,0.369,0.984
0.473000,582604,1000.00,12,0,1,1031.280,-6.168,11.404,976.993,1.661,1.010
0.474000,582605,1000.00,12,0,1,1031.976,-3.228,11.409,975.119,-0.996,1.003
0.475000,582606,1000.00,12,0,1,1028.109,-6.505,11.441,975.504,-0.528,0.982
0.476000,582607,1000.00,12,0,1,1031.063,-3.983,11.434,974.302,-1.247,0.985
0.477000,582608,1000.00,12,0,1,1032.024,-1.918,11.398,976.056,-0.279,0.984
0.478000,582609,1000.00,12,0,1,1040.191,3.231,11.317,976.104,0.766,0.982
0.479000,582610,1000.00,12,0,1,1054.291,15.060,11.332,974.086,-1.550,1.002
0.480000,582611,1000.00,12,0,1,1033.730,-0.991,10.995,974.999,-0.733,1.007
0.481000,582612,1000.00,12,0,1,1022.584,-18.342,10.812,974.951,-0.144,1.004
0.482000,582613,1000.00,12,0,1,1034.883,-3.605,10.552,975.792,0.176,1.001
0.483000,582614,1000.00,12,0,1,1048.719,9.187,10.618,975.984,0.913,0.939
0.484000,582615,1000.00,12,0,1,1062.194,20.328,10.996,974.278,-0.790,0.931
0.485000,582616,1000.00,12,0,1,1046.076,7.885,11.002,975.648,0.102,0.931
0.486000,582617,1000.00,12,0,1,1024.746,-15.795,11.176,975.816,0.956,0.939
0.487000,582618,1000.00,12,0,1,1032.024,-8.119,11.088,975.407,0.053,0.938
0.488000,582619,1000.00,12,0,1,1036.900,1.595,10.463,975.095,0.052,0.931
0.489000,582620,1000.00,12,0,1,1040.143,3.906,9.881,975.287,-0.034,0.928
0.490000,582621,1000.00,12,0,1,1033.513,1.456,9.865,975.888,0.620,0.930
0.491000,582622,1000.00,12,0,1,1028.469,-4.806,9.881,974.927,-0.129,0.928
0.492000,582623,1000.00,12,0,1,1031.039,-0.410,9.818,976.753,0.815,0.934
0.493000,582624,1000.00,12,0,1,1036.708,4.842,9.764,976.008,0.998,0.933
0.494000,582625,1000.00,12,0,1,1034.354,3.764,9.770,973.366,-2.062,0.956
0.495000,582626,1000.00,12,0,1,1028.709,-2.771,9.694,974.807,-0.864,0.951
0.496000,582627,1000.00,12,0,1,1030.943,-1.966,9.688,978.050,2.304,1.005
0.497000,582628,1000.00,12,0,1,1033.706,1.180,9.680,975.383,0.454,1.006
0.498000,582629,1000.00,12,0,1,1038.774,3.411,9.083,973.318,-2.385,1.043
0.499000,582630,1000.00,12,0,1,1041.993,6.095,8.118,975.047,-0.463,1.041
0.500000,582631,1000.00,12,0,1,1042.353,3.795,8.085,975.864,0.689,1.045
0.501000,582632,1000.00,12,0,1,1043.770,3.607,8.091,974.663,-0.396,1.012
0.502000,582633,1000.00,12,0,1,1048.142,5.586,8.014,974.759,-0.475,0.926
0.503000,582634,1000.00,12,0,1,1053.162,8.929,7.694,974.711,-0.172,0.909
0.504000,582635,1000.00,12,0,1,1043.458,0.738,7.121,976.873,1.348,0.920
0.505000,582636,1000.00,12,0,1,1037.381,-7.534,7.085,975.359,0.813,0.927
0.506000,582637,1000.00,12,0,1,1043.626,-0.358,7.078,973.966,-1.354,0.946
0.507000,582638,1000.00,12,0,1,1039.999,-0.750,7.077,974.495,-0.436,0.948
0.508000,582639,1000.00,12,0,1,1035.315,-5.469,7.101,973.990,-0.657,0.946
0.509000,582640,1000.00,12,0,1,1036.084,-2.617,7.065,975.191,0.100,0.936
0.510000,582641,1000.00,12,0,1,1037.669,0.103,7.001,975.816,1.195,0.950
0.511000,582642,1000.00,12,0,1,1038.245,1.779,7.004,974.831,-0.042,0.922
0.512000,582643,1000.00,12,0,1,1023.641,-8.676,7.070,973.582,-1.030,0.925
0.513000,582644,1000.00,12,0,1,1020.446,-13.793,7.320,975.263,0.037,0.925
0.514000,582645,1000.00,12,0,1,1030.054,-1.727,7.324,975.479,0.982,0.926
0.515000,582646,1000.00,12,0,1,1032.360,1.468,7.298,974.447,-0.456,0.925
0.516000,582647,1000.00,12,0,1,1025.010,-5.104,7.059,975.023,0.055,0.917
0.517000,582648,1000.00,12,0,1,1028.421,-4.356,6.993,976.416,1.292,0.933
0.518000,582649,1000.00,12,0,1,1033.898,1.999,6.994,976.825,1.606,0.947
0.519000,582650,1000.00,12,0,1,1026.043,-4.931,7.027,976.440,1.006,0.958
0.520000,582651,1000.00,12,0,1,1037.213,0.520,7.021,976.104,0.433,0.955
0.521000,582652,1000.00,12,0,1,1046.413,12.256,7.191,976.272,0.474,0.953
0.522000,582653,1000.00,12,0,1,1039.302,3.043,7.008,976.993,0.928,0.961
0.523000,582654,1000.00,12,0,1,1038.486,0.240,6.954,977.785,1.540,0.957
0.524000,582655,1000.00,12,0,1,1043.314,4.835,6.972,975.744,-0.180,0.947
0.525000,582656,1000.00,12,0,1,1041.728,4.016,6.935,974.855,-1.551,0.969
0.526000,582657,1000.00,12,0,1,1038.245,0.568,6.912,974.615,-1.240,0.969
0.527000,582658,1000.00,12,0,1,1038.245,1.074,6.909,976.008,-0.251,0.968
0.528000,582659,1000.00,12,0,1,1033.369,-1.007,6.895,974.663,-0.618,0.966
0.529000,582660,1000.00,12,0,1,1029.238,-4.441,6.588,973.342,-2.330,0.997
0.530000,582661,1000.00,12,0,1,1029.934,-1.672,6.590,976.128,0.254,0.992
0.531000,582662,1000.00,12,0,1,1033.345,2.463,6.069,976.296,1.158,1.006
0.532000,582663,1000.00,12,0,1,1031.087,2.223,6.055,974.639,-0.932,1.014
0.533000,582664,1000.00,12,0,1,1029.142,-0.479,5.915,975.672,-0.105,1.006
0.534000,582665,1000.00,12,0,1,1032.096,2.221,5.179,977.017,1.208,1.014
0.535000,582666,1000.00,12,0,1,1031.760,2.019,5.065,975.023,-0.366,1.015
0.536000,582667,1000.00,12,0,1,1029.286,-1.630,4.552,975.768,-0.584,1.010
0.537000,582668,1000.00,12,0,1,1028.637,-3.014,4.425,974.399,-0.714,1.015
0.538000,582669,1000.00,12,0,1,1034.042,0.203,4.419,976.056,-0.418,1.016
0.539000,582670,1000.00,12,0,1,1042.930,7.211,4.502,977.017,1.598,1.041
0.540000,582671,1000.00,12,0,1,1046.557,8.808,4.666,975.455,-0.364,1.039
0.541000,582672,1000.00,12,0,1,1046.797,6.208,4.699,974.831,-0.937,1.047
0.542000,582673,1000.00,12,0,1,1046.124,3.657,4.727,973.462,-1.686,1.067
0.543000,582674,1000.00,12,0,1,1045.043,1.229,4.681,973.318,-1.970,1.094
0.544000,582675,1000.00,12,0,1,1043.122,-0.889,4.652,975.143,0.232,1.055
0.545000,582676,1000.00,12,0,1,1043.146,-1.115,4.638,976.032,1.187,1.061
0.546000,582677,1000.00,12,0,1,1045.139,1.378,4.634,974.591,0.130,1.010
0.547000,582678,1000.00,12,0,1,1039.711,-1.652,4.637,975.624,0.363,1.010
0.548000,582679,1000.00,12,0,1,1045.908,2.085,4.621,976.945,2.073,0.996
0.549000,582680,1000.00,12,0,1,1048.743,8.351,4.691,976.320,1.131,1.006
0.550000,582681,1000.00,12,0,1,1047.277,5.038,4.715,975.095,-0.120,1.002
0.551000,582682,1000.00,12,0,1,1051.000,8.066,4.824,975.984,0.252,1.001
0.552000,582683,1000.00,12,0,1,1026.211,-10.272,4.975,974.759,-0.278,0.999
0.553000,582684,1000.00,12,0,1,1026.235,-17.326,5.400,976.464,0.260,1.000
0.554000,582685,1000.00,12,0,1,1033.033,-2.897,5.415,975.455,0.459,0.983
0.555000,582686,1000.00,12,0,1,1028.157,-9.093,5.463,975.143,-0.942,0.986
0.556000,582687,1000.00,12,0,1,1028.397,-8.195,5.584,972.357,-2.254,1.018
0.557000,582688,1000.00,12,0,1,1035.003,-2.492,5.594,975.912,-0.501,1.019
0.558000,582689,1000.00,12,0,1,1043.866,4.594,5.578,974.278,0.375,1.016
0.559000,582690,1000.00,12,0,1,1044.515,4.923,5.609,975.792,-0.410,1.017
0.560000,582691,1000.00,12,0,1,1053.499,7.624,5.712,976.392,1.840,1.036
0.561000,582692,1000.00,12,0,1,1049.031,5.848,5.766,977.233,1.289,1.052
0.562000,582693,1000.00,12,0,1,1023.233,-19.733,6.287,975.119,0.239,1.043
0.563000,582694,1000.00,12,0,1,1032.360,-15.101,6.347,974.831,-0.987,1.052
0.564000,582695,1000.00,12,0,1,1031.255,-6.321,6.405,975.672,0.278,1.044
0.565000,582696,1000.00,12,0,1,1027.797,-12.489,6.641,978.218,2.239,1.089
0.566000,582697,1000.00,12,0,1,1022.104,-10.477,6.766,975.696,0.557,1.091
0.567000,582698,1000.00,12,0,1,1034.114,-1.672,6.742,976.464,-0.084,1.076
0.568000,582699,1000.00,12,0,1,1035.627,7.748,6.824,974.711,-0.456,1.054
0.569000,582700,1000.00,12,0,1,1028.037,-0.803,6.790,975.311,-1.075,1.055
0.570000,582701,1000.00,12,0,1,1024.193,-1.911,6.795,974.975,-0.291,1.054
0.571000,582702,1000.00,12,0,1,1027.316,1.966,6.576,975.383,-0.567,1.055
0.572000,582703,1000.00,12,0,1,1035.387,9.756,6.705,975.936,0.322,1.048
0.573000,582704,1000.00,12,0,1,1040.888,15.285,7.045,973.990,-1.177,1.039
0.574000,582705,1000.00,12,0,1,1039.783,11.768,7.206,976.873,0.329,1.039
0.575000,582706,1000.00,12,0,1,1040.960,10.356,7.332,976.897,1.858,1.049
0.576000,582707,1000.00,12,0,1,1036.588,4.711,7.361,974.783,-1.315,1.051
0.577000,582708,1000.00,12,0,1,1039.350,3.363,7.375,975.455,-0.386,1.052
0.578000,582709,1000.00,12,0,1,1044.491,6.976,7.440,976.008,0.128,1.048
0.579000,582710,1000.00,12,0,1,1041.849,2.781,7.423,975.936,0.115,0.995
0.580000,582711,1000.00,12,0,1,1038.029,-3.274,7.434,976.008,0.088,0.995
0.581000,582712,1000.00,12,0,1,1040.527,-2.197,7.432,975.744,-0.091,0.981
0.582000,582713,1000.00,12,0,1,1044.419,0.958,7.427,976.488,0.396,0.974
0.583000,582714,1000.00,12,0,1,1043.362,0.170,7.427,976.969,0.965,0.984
0.584000,582715,1000.00,12,0,1,1042.906,-1.273,7.422,974.254,-1.207,0.984
0.585000,582716,1000.00,12,0,1,1041.945,-0.963,7.418,974.182,-1.901,1.018
0.586000,582717,1000.00,12,0,1,1039.519,-2.734,7.425,974.807,-0.419,1.017
0.587000,582718,1000.00,12,0,1,1039.519,-1.681,7.416,975.095,-0.355,1.013
0.588000,582719,1000.00,12,0,1,1042.209,1.808,7.420,974.591,-0.348,1.012
0.589000,582720,1000.00,12,0,1,1041.320,2.508,7.359,974.831,-0.393,0.988
0.590000,582721,1000.00,12,0,1,1036.564,-1.287,7.255,973.149,-1.233,1.002
0.591000,582722,1000.00,12,0,1,1030.006,-6.152,7.254,974.110,-0.984,1.003
0.592000,582723,1000.00,12,0,1,1025.851,-8.949,7.345,974.302,0.161,0.975
0.593000,582724,1000.00,12,0,1,1028.397,-5.653,7.386,975.335,0.450,0.936
0.594000,582725,1000.00,12,0,1,1033.033,-0.198,7.385,975.383,1.030,0.947
0.595000,582726,1000.00,12,0,1,1028.037,-3.608,7.401,975.744,0.757,0.938
0.596000,582727,1000.00,12,0,1,1030.319,-4.079,7.421,975.431,0.689,0.943
0.597000,582728,1000.00,12,0,1,1033.105,0.025,7.418,977.113,1.540,0.966
0.598000,582729,1000.00,12,0,1,1035.123,-0.257,7.412,976.032,1.107,0.934
0.599000,582730,1000.00,12,0,1,1038.510,2.223,7.324,975.023,-0.600,0.924
0.600000,582731,1000.00,12,0,1,1041.200,3.238,7.304,976.993,1.101,0.937
0.601000,582732,1000.00,12,0,1,1042.857,3.412,7.230,975.287,0.271,0.937
0.602000,582733,1000.00,12,0,1,1039.398,0.051,7.083,976.104,-0.236,0.937
0.603000,582734,1000.00,12,0,1,1038.029,-2.658,6.656,976.705,1.374,0.956
0.604000,582735,1000.00,12,0,1,1037.981,-1.306,6.646,976.969,0.720,0.959
0.605000,582736,1000.00,12,0,1,1036.204,-2.317,6.528,976.656,0.892,0.958
0.606000,582737,1000.00,12,0,1,1037.477,-0.165,6.425,973.486,-2.009,0.947
0.607000,582738,1000.00,12,0,1,1040.071,3.580,6.435,974.759,-1.472,0.967
0.608000,582739,1000.00,12,0,1,1033.706,0.064,6.402,975.479,0.363,0.967
0.609000,582740,1000.00,12,0,1,1028.949,-4.355,6.394,975.696,-0.100,0.966
0.610000,582741,1000.00,12,0,1,1023.833,-5.785,6.355,976.632,1.059,0.942
0.611000,582742,1000.00,12,0,1,1028.277,-2.016,6.308,974.735,-0.581,0.928
0.612000,582743,1000.00,12,0,1,1037.117,8.328,5.778,974.975,-0.997,0.938
0.613000,582744,1000.00,12,0,1,1035.867,7.444,5.471,975.816,0.307,0.928
0.614000,582745,1000.00,12,0,1,1039.687,7.538,5.502,975.335,-0.338,0.929
0.615000,582746,1000.00,12,0,1,1048.959,14.761,5.613,974.591,-0.939,0.883
0.616000,582747,1000.00,12,0,1,1033.009,0.654,5.415,974.302,-1.233,0.897
0.617000,582748,1000.00,12,0,1,1031.135,-8.210,5.533,974.759,-0.683,0.902
0.618000,582749,1000.00,12,0,1,1032.192,-3.531,5.446,974.038,-0.962,0.910
0.619000,582750,1000.00,12,0,1,1026.956,-10.388,5.640,974.903,-0.491,0.900
0.620000,582751,1000.00,12,0,1,1026.740,-10.057,5.810,976.705,1.494,0.923
0.621000,582752,1000.00,12,0,1,1030.559,-5.799,5.861,975.071,0.266,0.921
0.622000,582753,1000.00,12,0,1,1037.837,0.830,5.698,973.606,-1.472,0.943
0.623000,582754,1000.00,12,0,1,1036.684,1.906,5.279,973.822,-0.923,0.937
0.624000,582755,1000.00,12,0,1,1037.429,0.395,5.010,974.687,0.027,0.936
0.625000,582756,1000.00,12,0,1,1037.285,2.770,4.807,974.182,0.004,0.898
0.626000,582757,1000.00,12,0,1,1037.957,2.315,4.772,973.270,-0.870,0.887
0.627000,582758,1000.00,12,0,1,1037.429,3.893,4.780,973.774,-0.294,0.887
0.628000,582759,1000.00,12,0,1,1031.952,-0.503,4.677,972.597,-0.753,0.893
0.629000,582760,1000.00,12,0,1,1027.845,-3.299,4.684,973.990,-0.063,0.893
0.630000,582761,1000.00,12,0,1,1026.836,-2.553,4.675,974.230,1.088,0.906
0.631000,582762,1000.00,12,0,1,1025.226,-2.359,4.677,976.320,1.924,0.946
0.632000,582763,1000.00,12,0,1,1022.464,-3.459,4.700,976.608,2.857,1.027
0.633000,582764,1000.00,12,0,1,1024.890,-1.235,4.703,974.879,0.430,1.020
0.634000,582765,1000.00,12,0,1,1025.442,0.916,4.702,976.080,1.014,1.015
0.635000,582766,1000.00,12,0,1,1024.554,-0.911,4.702,974.663,0.325,0.980
0.636000,582767,1000.00,12,0,1,1028.949,2.273,4.697,977.017,0.962,0.988
0.637000,582768,1000.00,12,0,1,1033.153,5.407,4.753,976.584,1.907,1.023
0.638000,582769,1000.00,12,0,1,1028.709,0.630,4.746,976.512,0.200,1.022
0.639000,582770,1000.00,12,0,1,1028.325,-2.485,4.746,976.272,0.775,1.026
0.640000,582771,1000.00,12,0,1,1029.430,-1.014,4.745,975.840,-0.351,1.013
0.641000,582772,1000.00,12,0,1,1036.852,3.477,4.690,977.497,1.113,1.015
0.642000,582773,1000.00,12,0,1,1051.577,15.763,5.037,975.383,-0.186,1.015
0.643000,582774,1000.00,12,0,1,1067.695,27.344,6.299,976.176,-0.706,1.018
0.644000,582775,1000.00,12,0,1,1054.363,15.425,6.666,976.681,0.921,1.016
0.645000,582776,1000.00,12,0,1,1022.224,-17.209,7.078,975.335,-0.933,1.019
0.646000,582777,1000.00,12,0,1,1012.567,-26.546,7.991,974.471,-1.357,1.033
0.647000,582778,1000.00,12,0,1,1025.635,-9.905,8.113,972.885,-2.559,1.072
0.648000,582779,1000.00,12,0,1,1031.352,0.408,8.113,974.663,-1.157,1.073
0.649000,582780,1000.00,12,0,1,1041.296,8.573,8.197,975.984,0.878,1.077
0.650000,582781,1000.00,12,0,1,1044.251,13.799,8.414,975.143,-0.167,1.066
0.651000,582782,1000.00,12,0,1,1015.282,-10.448,8.529,973.918,-1.184,1.078
0.652000,582783,1000.00,12,0,1,1016.291,-15.735,8.815,974.206,-1.133,1.090
0.653000,582784,1000.00,12,0,1,1019.702,-3.378,8.820,974.230,-0.667,1.076
0.654000,582785,1000.00,12,0,1,1020.831,-5.754,8.855,975.672,0.243,1.072
0.655000,582786,1000.00,12,0,1,1027.388,2.634,8.857,975.840,0.856,1.072
0.656000,582787,1000.00,12,0,1,1030.847,4.363,8.878,974.351,-0.790,1.039
0.657000,582788,1000.00,12,0,1,1031.231,3.336,8.876,975.071,-0.414,1.020
0.658000,582789,1000.00,12,0,1,1035.483,4.770,8.902,975.936,0.752,1.024
0.659000,582790,1000.00,12,0,1,1036.996,4.753,8.906,975.215,0.011,1.024
0.660000,582791,1000.00,12,0,1,1035.027,1.225,8.870,973.173,-1.588,1.038
0.661000,582792,1000.00,12,0,1,1037.861,1.236,8.867,973.005,-1.895,1.068
0.662000,582793,1000.00,12,0,1,1034.883,-0.137,8.789,974.927,0.330,1.060
0.663000,582794,1000.00,12,0,1,1033.441,-3.778,8.742,976.080,1.619,1.084
0.664000,582795,1000.00,12,0,1,1033.826,-1.316,8.679,977.017,2.230,1.128
0.665000,582796,1000.00,12,0,1,1032.721,-2.057,8.429,975.696,1.220,1.133
0.666000,582797,1000.00,12,0,1,1033.393,-0.012,8.428,973.366,-1.237,1.133
0.667000,582798,1000.00,12,0,1,1034.883,2.549,8.356,974.230,-0.617,1.132
0.668000,582799,1000.00,12,0,1,1027.100,-1.917,8.345,976.344,1.605,1.147
0.669000,582800,1000.00,12,0,1,1024.097,-4.977,8.245,976.272,1.573,1.166
0.670000,582801,1000.00,12,0,1,1024.794,-1.318,8.123,973.726,-0.834,1.153
0.671000,582802,1000.00,12,0,1,1021.239,-2.884,8.092,974.999,-0.441,1.154
0.672000,582803,1000.00,12,0,1,1022.464,-1.702,8.095,975.768,1.027,1.144
0.673000,582804,1000.00,12,0,1,1024.770,1.992,8.095,976.729,1.065,1.147
0.674000,582805,1000.00,12,0,1,1026.619,2.674,8.104,976.705,1.322,1.162
0.675000,582806,1000.00,12,0,1,1027.268,3.013,8.106,977.137,0.903,1.169
0.676000,582807,1000.00,12,0,1,1027.052,1.041,8.100,975.864,0.053,1.162
0.677000,582808,1000.00,12,0,1,1031.712,3.301,8.095,976.200,-0.445,1.163
0.678000,582809,1000.00,12,0,1,1039.447,8.402,8.182,976.032,-0.070,1.158
0.679000,582810,1000.00,12,0,1,1034.738,3.483,8.183,978.290,1.165,1.170
0.680000,582811,1000.00,12,0,1,1030.319,-4.281,8.198,977.713,1.406,1.177
0.681000,582812,1000.00,12,0,1,1035.075,-0.638,8.191,975.552,-1.259,1.159
0.682000,582813,1000.00,12,0,1,1035.915,0.719,8.177,974.735,-1.846,1.117
0.683000,582814,1000.00,12,0,1,1044.443,5.775,8.216,976.560,-0.192,1.116
0.684000,582815,1000.00,12,0,1,1041.608,6.196,8.262,975.023,-0.725,1.111
0.685000,582816,1000.00,12,0,1,1031.328,-5.348,8.295,973.822,-2.255,1.155
0.686000,582817,1000.00,12,0,1,1028.733,-6.296,8.337,974.351,-1.267,1.161
0.687000,582818,1000.00,12,0,1,1029.046,-3.766,8.319,975.912,0.284,1.130
0.688000,582819,1000.00,12,0,1,1027.244,-3.066,8.329,974.711,-0.287,1.130
0.689000,582820,1000.00,12,0,1,1031.496,1.545,8.325,974.711,-0.804,1.131
0.690000,582821,1000.00,12,0,1,1034.354,6.204,8.370,974.999,-0.099,1.130
0.691000,582822,1000.00,12,0,1,1018.284,-5.897,8.397,976.512,0.868,1.125
0.692000,582823,1000.00,12,0,1,1014.897,-11.897,8.268,975.816,0.649,1.129
0.693000,582824,1000.00,12,0,1,1024.338,0.197,7.309,975.744,-0.147,1.125
0.694000,582825,1000.00,12,0,1,1024.265,0.979,6.977,977.809,1.611,1.140
0.695000,582826,1000.00,12,0,1,1024.938,-0.192,6.539,976.296,0.621,1.136
0.696000,582827,1000.00,12,0,1,1020.254,-3.495,5.376,975.119,-1.363,1.136
0.697000,582828,1000.00,12,0,1,1015.762,-9.587,5.365,977.113,0.618,1.080
0.698000,582829,1000.00,12,0,1,1025.106,-1.954,5.372,976.849,0.664,1.072
0.699000,582830,1000.00,12,0,1,1028.349,2.537,5.245,976.656,0.020,1.065
0.700000,582831,1000.00,12,0,1,1029.262,0.662,4.870,976.993,0.492,1.067
0.701000,582832,1000.00,12,0,1,1029.622,1.231,4.643,974.951,-1.083,1.065
0.702000,582833,1000.00,12,0,1,1030.511,0.696,4.076,975.696,-0.930,1.061
0.703000,582834,1000.00,12,0,1,1032.288,2.628,4.065,974.062,-1.130,1.068
0.704000,582835,1000.00,12,0,1,1039.326,7.993,4.140,975.912,-0.539,1.071
0.705000,582836,1000.00,12,0,1,1035.651,6.783,4.234,976.729,1.610,1.088
0.706000,582837,1000.00,12,0,1,1029.742,-0.193,4.189,976.584,0.609,1.086
0.707000,582838,1000.00,12,0,1,1028.253,0.038,4.162,977.017,1.216,1.097
0.708000,582839,1000.00,12,0,1,1026.475,0.042,4.107,975.431,-0.202,1.093
0.709000,582840,1000.00,12,0,1,1022.512,-1.892,4.060,976.104,-0.298,1.094
0.710000,582841,1000.00,12,0,1,1020.566,-2.284,4.070,975.263,-0.207,1.071
0.711000,582842,1000.00,12,0,1,1023.136,0.977,4.068,974.062,-1.986,1.074
0.712000,582843,1000.00,12,0,1,1024.602,3.719,4.102,973.870,-1.599,1.096
0.713000,582844,1000.00,12,0,1,1029.262,6.366,4.165,976.272,0.129,1.072
0.714000,582845,1000.00,12,0,1,1016.146,-2.761,4.180,975.311,0.263,1.026
0.715000,582846,1000.00,12,0,1,1017.131,-7.799,4.313,974.783,-1.194,1.025
0.716000,582847,1000.00,12,0,1,1025.298,2.944,4.333,975.696,0.145,1.010
0.717000,582848,1000.00,12,0,1,1029.118,3.541,4.347,974.302,-0.904,1.015
0.718000,582849,1000.00,12,0,1,1032.625,5.227,4.401,975.119,-0.644,0.993
0.719000,582850,1000.00,12,0,1,1034.666,4.788,4.397,976.176,1.022,0.979
0.720000,582851,1000.00,12,0,1,1032.745,1.085,4.395,975.576,0.263,0.972
0.721000,582852,1000.00,12,0,1,1034.090,0.266,4.377,975.311,0.110,0.970
0.722000,582853,1000.00,12,0,1,1039.471,3.873,4.404,974.903,-0.155,0.960
0.723000,582854,1000.00,12,0,1,1040.359,4.876,4.449,975.696,0.499,0.950
0.724000,582855,1000.00,12,0,1,1033.441,-1.979,4.442,975.744,0.897,0.940
0.725000,582856,1000.00,12,0,1,1027.652,-6.852,4.526,976.729,1.346,0.951
0.726000,582857,1000.00,12,0,1,1025.899,-6.811,4.625,976.128,1.224,0.966
0.727000,582858,1000.00,12,0,1,1030.006,-1.222,4.605,975.936,0.384,0.966
0.728000,582859,1000.00,12,0,1,1033.129,3.948,4.484,976.320,0.909,0.974
0.729000,582860,1000.00,12,0,1,1034.018,5.438,4.522,975.672,0.190,0.961
0.730000,582861,1000.00,12,0,1,1032.913,4.992,4.537,974.014,-1.313,0.958
0.731000,582862,1000.00,12,0,1,1028.781,1.501,4.541,974.735,-0.960,0.951
0.732000,582863,1000.00,12,0,1,1025.947,-1.492,4.545,976.512,0.898,0.923
0.733000,582864,1000.00,12,0,1,1025.034,-2.019,4.480,975.768,0.372,0.925
0.734000,582865,1000.00,12,0,1,1025.515,-2.035,4.403,976.512,0.282,0.920
0.735000,582866,1000.00,12,0,1,1028.517,-0.051,4.337,977.065,1.149,0.878
0.736000,582867,1000.00,12,0,1,1028.685,-0.466,4.245,977.834,1.123,0.874
0.737000,582868,1000.00,12,0,1,1032.601,0.446,4.212,976.416,0.232,0.874
0.738000,582869,1000.00,12,0,1,1035.099,2.123,4.201,976.705,-0.440,0.875
0.739000,582870,1000.00,12,0,1,1036.396,0.632,4.196,976.152,-0.196,0.868
0.740000,582871,1000.00,12,0,1,1061.185,17.645,4.803,977.257,0.035,0.868
0.741000,582872,1000.00,12,0,1,1044.755,8.643,4.885,976.512,0.214,0.860
0.742000,582873,1000.00,12,0,1,1032.721,-13.846,4.987,975.864,-0.984,0.866
0.743000,582874,1000.00,12,0,1,1025.611,-13.136,5.321,976.008,-0.431,0.868
0.744000,582875,1000.00,12,0,1,1018.789,-20.574,6.063,974.447,-1.477,0.863
0.745000,582876,1000.00,12,0,1,1015.090,-18.046,6.578,974.038,-2.004,0.904
0.746000,582877,1000.00,12,0,1,1016.867,-13.352,6.826,974.903,-0.591,0.887
0.747000,582878,1000.00,12,0,1,1025.971,-1.589,6.694,975.023,-0.351,0.884
0.748000,582879,1000.00,12,0,1,1024.193,2.120,6.695,976.128,0.639,0.884
0.749000,582880,1000.00,12,0,1,1024.794,1.115,6.687,974.831,-0.122,0.884
0.750000,582881,1000.00,12,0,1,1024.746,5.269,6.728,975.840,0.000,0.881
0.751000,582882,1000.00,12,0,1,1023.977,2.991,6.739,974.687,-0.118,0.868
0.752000,582883,1000.00,12,0,1,1025.995,6.124,6.794,976.849,0.515,0.861
0.753000,582884,1000.00,12,0,1,1024.217,3.826,6.805,976.056,1.080,0.860
0.754000,582885,1000.00,12,0,1,1025.274,3.277,6.727,974.975,-1.141,0.872
0.755000,582886,1000.00,12,0,1,1026.523,3.778,6.679,976.753,0.689,0.847
0.756000,582887,1000.00,12,0,1,1023.064,-0.640,6.680,975.840,0.234,0.843
0.757000,582888,1000.00,12,0,1,1020.975,-4.142,6.705,975.191,-1.016,0.838
0.758000,582889,1000.00,12,0,1,1026.259,-0.779,6.706,974.014,-1.302,0.857
0.759000,582890,1000.00,12,0,1,1037.285,8.019,6.796,976.512,0.086,0.857
0.760000,582891,1000.00,12,0,1,1042.449,11.578,6.983,977.089,1.923,0.898
0.761000,582892,1000.00,12,0,1,1044.851,10.427,7.136,976.897,0.715,0.859
0.762000,582893,1000.00,12,0,1,1043.770,7.935,7.204,976.849,1.134,0.844
0.763000,582894,1000.00,12,0,1,1044.491,5.930,7.197,976.897,0.735,0.850
0.764000,582895,1000.00,12,0,1,1037.837,0.929,7.188,976.224,0.363,0.851
0.765000,582896,1000.00,12,0,1,1033.417,-4.641,7.133,976.128,0.008,0.834
0.766000,582897,1000.00,12,0,1,1033.105,-2.723,7.131,975.576,-0.242,0.835
0.767000,582898,1000.00,12,0,1,1032.144,-2.114,7.120,973.990,-1.532,0.853
0.768000,582899,1000.00,12,0,1,1028.253,-3.589,7.099,974.807,-1.065,0.861
0.769000,582900,1000.00,12,0,1,1040.335,6.106,7.120,977.065,1.387,0.871
0.770000,582901,1000.00,12,0,1,1035.819,7.125,7.189,975.624,0.289,0.871
0.771000,582902,1000.00,12,0,1,1017.492,-11.664,7.376,975.431,-0.613,0.876
0.772000,582903,1000.00,12,0,1,1021.383,-9.264,7.471,975.696,-0.002,0.875
0.773000,582904,1000.00,12,0,1,1027.196,0.002,7.439,976.536,0.324,0.874
0.774000,582905,1000.00,12,0,1,1025.707,-2.674,7.444,975.095,-0.522,0.868
0.775000,582906,1000.00,12,0,1,1015.234,-10.535,7.529,974.975,-1.315,0.867
0.776000,582907,1000.00,12,0,1,1009.541,-17.629,7.872,977.113,0.848,0.858
0.777000,582908,1000.00,12,0,1,1022.512,-5.451,7.908,975.311,-0.249,0.857
0.778000,582909,1000.00,12,0,1,1029.742,3.260,7.902,975.263,-1.209,0.864
0.779000,582910,1000.00,12,0,1,1032.505,3.020,7.876,976.320,0.521,0.867
0.780000,582911,1000.00,12,0,1,1034.474,4.196,7.867,973.630,-1.682,0.879
0.781000,582912,1000.00,12,0,1,1036.420,3.860,7.883,973.294,-2.277,0.927
0.782000,582913,1000.00,12,0,1,1033.802,1.671,7.883,975.816,0.574,0.921
0.783000,582914,1000.00,12,0,1,1037.117,2.532,7.886,974.735,0.302,0.921
0.784000,582915,1000.00,12,0,1,1041.608,7.883,7.960,973.149,-1.461,0.943
0.785000,582916,1000.00,12,0,1,1039.062,5.616,7.999,973.750,-0.591,0.933
0.786000,582917,1000.00,12,0,1,1034.787,1.676,8.002,975.359,1.045,0.931
0.787000,582918,1000.00,12,0,1,1031.664,0.034,8.002,975.840,1.675,0.960
0.788000,582919,1000.00,12,0,1,1022.584,-5.772,8.038,976.921,2.149,1.005
0.789000,582920,1000.00,12,0,1,1017.612,-9.132,8.141,975.792,1.354,1.023
0.790000,582921,1000.00,12,0,1,1022.128,-2.655,7.758,975.768,0.427,1.024
0.791000,582922,1000.00,12,0,1,1022.200,0.568,7.661,975.239,0.337,1.025
0.792000,582923,1000.00,12,0,1,1021.743,-0.252,7.407,977.041,1.058,1.027
0.793000,582924,1000.00,12,0,1,1023.257,1.919,7.175,974.591,-0.156,1.025
0.794000,582925,1000.00,12,0,1,1025.298,2.758,6.571,975.335,-1.053,1.014
0.795000,582926,1000.00,12,0,1,1029.742,5.386,6.102,976.080,0.778,0.980
0.796000,582927,1000.00,12,0,1,1041.392,12.668,6.073,977.353,0.973,0.986
0.797000,582928,1000.00,12,0,1,1029.118,2.789,6.082,976.897,1.089,0.997
0.798000,582929,1000.00,12,0,1,1011.751,-18.314,6.603,976.464,0.008,0.993
0.799000,582930,1000.00,12,0,1,1026.980,-6.691,6.669,975.648,-0.482,0.995
0.800000,582931,1000.00,12,0,1,1036.828,6.435,6.690,973.294,-2.351,1.049
0.801000,582932,1000.00,12,0,1,1037.405,3.285,6.692,975.383,-1.036,1.059
0.802000,582933,1000.00,12,0,1,1032.384,-0.240,6.636,974.543,-0.122,1.057
0.803000,582934,1000.00,12,0,1,1023.112,-9.498,6.749,974.351,-1.406,1.064
0.804000,582935,1000.00,12,0,1,1021.767,-9.504,6.866,974.975,0.271,1.053
0.805000,582936,1000.00,12,0,1,1025.995,-2.944,6.858,975.552,0.325,1.049
0.806000,582937,1000.00,12,0,1,1016.987,-6.645,6.921,975.455,0.684,1.053
0.807000,582938,1000.00,12,0,1,1015.594,-7.976,6.988,975.696,0.486,1.046
0.808000,582939,1000.00,12,0,1,1026.091,5.190,7.026,976.008,0.839,1.036
0.809000,582940,1000.00,12,0,1,1023.521,6.452,6.993,975.672,0.406,1.038
0.810000,582941,1000.00,12,0,1,1022.656,3.827,6.820,976.392,0.618,1.005
0.811000,582942,1000.00,12,0,1,1023.737,6.937,6.731,976.897,1.188,1.014
0.812000,582943,1000.00,12,0,1,1027.292,8.121,6.735,976.584,0.458,1.003
0.813000,582944,1000.00,12,0,1,1025.683,7.442,6.765,974.182,-1.453,1.019
0.814000,582945,1000.00,12,0,1,1021.935,1.208,6.766,975.744,-0.969,1.027
0.815000,582946,1000.00,12,0,1,1021.335,-0.364,6.734,975.383,-0.025,1.027
0.816000,582947,1000.00,12,0,1,1018.308,-3.759,6.744,975.576,-0.836,1.033
0.817000,582948,1000.00,12,0,1,1022.536,-2.504,6.747,974.663,-0.680,1.015
0.818000,582949,1000.00,12,0,1,1028.421,3.061,6.742,976.056,-0.245,1.004
0.819000,582950,1000.00,12,0,1,1032.264,4.085,6.711,974.735,-0.215,0.985
0.820000,582951,1000.00,12,0,1,1037.597,7.111,6.711,975.023,-0.892,0.992
0.821000,582952,1000.00,12,0,1,1036.756,5.175,6.546,973.654,-0.913,0.997
0.822000,582953,1000.00,12,0,1,1036.708,2.569,6.424,972.141,-2.601,1.063
0.823000,582954,1000.00,12,0,1,1033.177,0.068,6.424,972.021,-2.060,1.101
0.824000,582955,1000.00,12,0,1,1028.109,-5.060,6.453,973.990,-0.032,1.098
0.825000,582956,1000.00,12,0,1,1027.797,-4.091,6.305,975.263,1.525,1.104
0.826000,582957,1000.00,12,0,1,1030.703,0.194,5.791,976.969,2.749,1.164
0.827000,582958,1000.00,12,0,1,1049.799,16.085,6.174,974.711,1.022,1.173
0.828000,582959,1000.00,12,0,1,1033.345,8.191,6.265,974.134,-0.499,1.162
0.829000,582960,1000.00,12,0,1,1015.906,-14.475,6.577,972.933,-0.865,1.166
0.830000,582961,1000.00,12,0,1,1015.402,-9.986,6.700,975.936,0.834,1.148
0.831000,582962,1000.00,12,0,1,1020.903,-4.185,6.704,975.528,1.705,1.128
0.832000,582963,1000.00,12,0,1,1024.794,1.724,6.705,975.816,0.525,1.127
0.833000,582964,1000.00,12,0,1,1035.843,9.594,6.831,976.296,1.478,1.146
0.834000,582965,1000.00,12,0,1,1030.102,6.103,6.795,977.401,1.695,1.152
0.835000,582966,1000.00,12,0,1,1005.457,-17.960,7.210,977.713,1.990,1.183
0.836000,582967,1000.00,12,0,1,1017.299,-12.922,7.434,977.665,1.444,1.192
0.837000,582968,1000.00,12,0,1,1030.391,5.702,7.478,975.359,-0.601,1.171
0.838000,582969,1000.00,12,0,1,1035.003,4.529,7.461,976.032,-0.642,1.134
0.839000,582970,1000.00,12,0,1,1031.328,2.409,7.356,975.311,-0.460,1.120
0.840000,582971,1000.00,12,0,1,1035.123,0.325,7.347,973.149,-2.520,1.174
0.841000,582972,1000.00,12,0,1,1032.096,0.330,7.346,971.804,-3.335,1.264
0.842000,582973,1000.00,12,0,1,1020.374,-11.923,7.537,974.062,-1.088,1.265
0.843000,582974,1000.00,12,0,1,1020.206,-11.712,7.712,975.023,0.643,1.268
0.844000,582975,1000.00,12,0,1,1031.135,0.731,7.703,975.792,0.995,1.267
0.845000,582976,1000.00,12,0,1,1034.306,6.067,7.713,978.530,3.166,1.339
0.846000,582977,1000.00,12,0,1,1027.580,1.265,7.505,977.545,2.565,1.380
0.847000,582978,1000.00,12,0,1,1022.224,-3.363,7.509,975.335,-0.501,1.374
0.848000,582979,1000.00,12,0,1,1022.872,-0.507,7.049,975.479,-0.449,1.375
0.849000,582980,1000.00,12,0,1,1019.918,-0.771,6.986,977.065,0.709,1.377
0.850000,582981,1000.00,12,0,1,1021.647,1.144,6.928,975.215,-0.462,1.338
0.851000,582982,1000.00,12,0,1,1022.536,3.958,6.935,976.584,-0.457,1.331
0.852000,582983,1000.00,12,0,1,1022.512,3.351,6.951,975.864,0.076,1.331
0.853000,582984,1000.00,12,0,1,1023.281,3.768,6.841,975.504,-1.322,1.330
0.854000,582985,1000.00,12,0,1,1024.386,3.641,6.727,974.591,-1.267,1.341
0.855000,582986,1000.00,12,0,1,1022.824,1.174,6.717,976.032,-0.637,1.343
0.856000,582987,1000.00,12,0,1,1016.098,-5.713,6.699,976.104,0.360,1.341
0.857000,582988,1000.00,12,0,1,1018.308,-6.268,6.663,976.224,-0.073,1.339
0.858000,582989,1000.00,12,0,1,1022.584,-1.279,6.625,974.519,-0.958,1.341
0.859000,582990,1000.00,12,0,1,1028.709,1.969,6.568,975.576,-0.603,1.342
0.860000,582991,1000.00,12,0,1,1030.583,3.981,6.570,975.479,0.258,1.340
0.861000,582992,1000.00,12,0,1,1031.784,2.533,6.506,976.921,0.876,1.335
0.862000,582993,1000.00,12,0,1,1031.784,2.582,6.414,976.753,1.375,1.348
0.863000,582994,1000.00,12,0,1,1031.928,1.721,6.332,975.672,-0.102,1.332
0.864000,582995,1000.00,12,0,1,1022.752,-4.492,6.361,974.447,-1.069,1.333
0.865000,582996,1000.00,12,0,1,1018.188,-9.132,6.491,976.777,0.598,1.336
0.866000,582997,1000.00,12,0,1,1021.551,-2.995,6.483,976.392,1.005,1.338
0.867000,582998,1000.00,12,0,1,1024.770,2.317,6.481,976.176,-0.059,1.335
0.868000,582999,1000.00,12,0,1,1025.154,4.200,6.494,975.816,-0.064,1.335
0.869000,583000,1000.00,12,0,1,1018.332,0.122,6.469,976.344,-0.038,1.334
0.870000,583001,1000.00,12,0,1,1015.066,-3.245,6.406,975.600,-0.395,1.329
0.871000,583002,1000.00,12,0,1,1015.882,-0.250,6.364,975.864,-0.596,1.326
0.872000,583003,1000.00,12,0,1,1023.521,5.705,6.405,974.903,-0.987,1.281
0.873000,583004,1000.00,12,0,1,1023.112,7.169,6.485,975.431,-0.921,1.255
0.874000,583005,1000.00,12,0,1,1018.092,-0.257,6.445,976.224,0.232,1.255
0.875000,583006,1000.00,12,0,1,1015.186,-3.399,6.437,975.311,-0.461,1.238
0.876000,583007,1000.00,12,0,1,1017.131,-3.170,6.453,976.705,0.297,1.176
0.877000,583008,1000.00,12,0,1,1018.549,-1.935,6.045,976.873,1.198,1.179
0.878000,583009,1000.00,12,0,1,1023.497,0.531,5.933,977.809,1.159,1.189
0.879000,583010,1000.00,12,0,1,1026.379,2.819,5.583,975.383,-0.045,1.182
0.880000,583011,1000.00,12,0,1,1031.400,4.777,5.444,976.152,-0.727,1.181
0.881000,583012,1000.00,12,0,1,1031.424,4.678,5.452,975.912,0.457,1.158
0.882000,583013,1000.00,12,0,1,1031.928,2.728,5.460,975.912,-0.452,1.157
0.883000,583014,1000.00,12,0,1,1028.877,0.735,5.290,975.215,-0.290,1.139
0.884000,583015,1000.00,12,0,1,1029.910,0.360,5.219,975.071,-0.841,1.120
0.885000,583016,1000.00,12,0,1,1023.809,-2.134,4.569,975.191,-0.356,1.085
0.886000,583017,1000.00,12,0,1,1020.182,-5.916,4.271,975.744,0.080,1.066
0.887000,583018,1000.00,12,0,1,1018.909,-3.702,4.226,976.176,0.462,1.064
0.888000,583019,1000.00,12,0,1,1019.461,-1.718,4.185,976.632,0.807,1.067
0.889000,583020,1000.00,12,0,1,1018.861,0.122,4.171,975.143,-0.517,1.067
0.890000,583021,1000.00,12,0,1,1021.671,3.129,4.194,975.672,-0.523,1.009
0.891000,583022,1000.00,12,0,1,1022.608,5.145,4.256,977.065,0.949,0.902
0.892000,583023,1000.00,12,0,1,1023.064,4.729,3.965,974.687,-0.847,0.896
0.893000,583024,1000.00,12,0,1,1021.095,2.516,3.620,975.768,-0.900,0.901
0.894000,583025,1000.00,12,0,1,1021.335,0.987,3.621,977.065,1.270,0.908
0.895000,583026,1000.00,12,0,1,1023.905,2.044,3.530,975.720,-0.329,0.791
0.896000,583027,1000.00,12,0,1,1022.128,-0.392,3.526,974.687,-1.186,0.723
0.897000,583028,1000.00,12,0,1,1026.619,0.200,3.494,975.552,-0.450,0.722
0.898000,583029,1000.00,12,0,1,1045.644,14.730,4.067,974.134,-0.962,0.732
0.899000,583030,1000.00,12,0,1,1052.562,19.763,4.934,974.086,-1.417,0.752
0.900000,583031,1000.00,12,0,1,1013.624,-14.920,5.363,975.576,0.511,0.753
0.901000,583032,1000.00,12,0,1,1005.649,-31.190,6.922,975.023,0.328,0.751
0.902000,583033,1000.00,12,0,1,1018.404,-10.561,7.065,975.047,0.026,0.751
0.903000,583034,1000.00,12,0,1,1030.583,0.105,7.045,974.975,0.389,0.730
0.904000,583035,1000.00,12,0,1,1023.785,-0.483,7.026,974.783,-0.037,0.707
0.905000,583036,1000.00,12,0,1,1018.020,-8.024,7.116,974.519,-0.017,0.702
0.906000,583037,1000.00,12,0,1,1019.485,-3.002,7.082,975.383,0.444,0.703
0.907000,583038,1000.00,12,0,1,1016.699,-2.645,7.037,976.993,1.956,0.755
0.908000,583039,1000.00,12,0,1,1012.663,-4.852,7.068,977.497,2.162,0.803
0.909000,583040,1000.00,12,0,1,1008.460,-5.210,7.100,975.095,-0.074,0.799
0.910000,583041,1000.00,12,0,1,1007.139,-5.466,7.120,973.846,-1.794,0.837
0.911000,583042,1000.00,12,0,1,1017.684,5.464,7.153,974.230,-1.120,0.843
0.912000,583043,1000.00,12,0,1,1021.335,10.417,7.294,975.864,0.293,0.821
0.913000,583044,1000.00,12,0,1,1020.230,7.318,7.363,977.257,1.697,0.856
0.914000,583045,1000.00,12,0,1,1019.077,4.809,7.367,976.945,1.291,0.862
0.915000,583046,1000.00,12,0,1,1025.226,7.386,7.328,977.017,0.868,0.866
0.916000,583047,1000.00,12,0,1,1019.822,3.027,7.328,975.864,0.088,0.855
0.917000,583048,1000.00,12,0,1,1011.102,-8.379,7.416,976.536,0.024,0.855
0.918000,583049,1000.00,12,0,1,1026.211,2.270,7.399,977.137,1.102,0.869
0.919000,583050,1000.00,12,0,1,1044.251,19.402,7.892,975.311,-0.657,0.874
0.920000,583051,1000.00,12,0,1,1046.773,18.295,8.292,976.344,-0.192,0.872
0.921000,583052,1000.00,12,0,1,1022.896,-3.680,8.308,977.954,1.728,0.902
0.922000,583053,1000.00,12,0,1,1006.370,-23.003,8.886,975.768,-0.182,0.891
0.923000,583054,1000.00,12,0,1,1014.849,-12.391,9.000,975.816,-0.839,0.890
0.924000,583055,1000.00,12,0,1,1018.669,-3.811,9.016,973.029,-2.208,0.942
0.925000,583056,1000.00,12,0,1,1021.887,-0.578,9.004,975.768,-1.130,0.954
0.926000,583057,1000.00,12,0,1,1024.698,4.952,9.020,975.696,0.787,0.959
0.927000,583058,1000.00,12,0,1,1021.984,3.136,9.027,974.927,-1.258,0.961
0.928000,583059,1000.00,12,0,1,1014.177,-2.190,9.032,975.239,-0.273,0.947
0.929000,583060,1000.00,12,0,1,1006.490,-8.165,9.096,973.534,-1.742,0.979
0.930000,583061,1000.00,12,0,1,1008.532,-5.110,9.100,975.071,-0.893,0.982
0.931000,583062,1000.00,12,0,1,1012.663,1.068,9.077,975.215,0.330,0.981
0.932000,583063,1000.00,12,0,1,1014.465,2.760,9.077,975.263,-0.496,0.981
0.933000,583064,1000.00,12,0,1,1013.024,1.534,9.079,975.071,0.059,0.980
0.934000,583065,1000.00,12,0,1,1014.129,0.752,9.080,974.855,-0.622,0.977
0.935000,583066,1000.00,12,0,1,1011.823,-1.054,9.076,976.392,0.942,0.985
0.936000,583067,1000.00,12,0,1,1013.913,-1.832,9.041,975.720,0.646,0.989
0.937000,583068,1000.00,12,0,1,1018.236,2.082,9.031,977.137,1.148,1.000
0.938000,583069,1000.00,12,0,1,1023.449,4.632,9.051,977.954,2.446,1.052
0.939000,583070,1000.00,12,0,1,1031.328,9.854,9.158,976.536,0.678,1.054
0.940000,583071,1000.00,12,0,1,1032.865,10.010,9.256,978.002,1.465,1.071
0.941000,583072,1000.00,12,0,1,1021.479,-1.514,9.230,975.167,-0.162,1.063
0.942000,583073,1000.00,12,0,1,1016.122,-8.298,9.280,975.960,-0.944,1.065
0.943000,583074,1000.00,12,0,1,1018.332,-4.368,9.294,977.377,1.592,1.081
0.944000,583075,1000.00,12,0,1,1019.509,-1.396,9.295,975.816,-0.287,1.067
0.945000,583076,1000.00,12,0,1,1019.629,0.124,9.290,973.918,-1.880,1.098
0.946000,583077,1000.00,12,0,1,1023.497,4.563,9.313,974.951,-1.162,1.098
0.947000,583078,1000.00,12,0,1,1031.183,11.937,9.464,975.912,0.238,1.097
0.948000,583079,1000.00,12,0,1,1027.076,9.855,9.337,976.272,0.388,1.089
0.949000,583080,1000.00,12,0,1,1022.776,3.290,8.921,974.591,-0.923,1.079
0.950000,583081,1000.00,12,0,1,1012.567,-3.551,8.682,973.918,-1.864,1.108
0.951000,583082,1000.00,12,0,1,1006.322,-10.872,7.635,976.152,0.151,1.107
0.952000,583083,1000.00,12,0,1,1002.046,-11.545,7.663,976.320,0.857,1.114
0.953000,583084,1000.00,12,0,1,1002.671,-11.022,7.820,974.519,-1.175,1.125
0.954000,583085,1000.00,12,0,1,1007.019,-5.293,7.856,973.462,-1.969,1.159
0.955000,583086,1000.00,12,0,1,1012.856,-0.279,7.773,977.233,0.929,1.166
0.956000,583087,1000.00,12,0,1,1015.786,1.969,7.767,977.161,2.097,1.202
0.957000,583088,1000.00,12,0,1,1018.044,2.258,7.764,975.383,-0.578,1.172
0.958000,583089,1000.00,12,0,1,1024.938,6.032,7.781,974.999,-0.559,1.135
0.959000,583090,1000.00,12,0,1,1027.989,8.066,7.829,973.029,-1.981,1.169
0.960000,583091,1000.00,12,0,1,1022.272,0.857,7.792,974.326,-1.142,1.152
0.961000,583092,1000.00,12,0,1,1019.990,-2.894,7.764,976.008,1.335,1.157
0.962000,583093,1000.00,12,0,1,1020.446,-1.913,7.628,975.335,0.589,1.159
0.963000,583094,1000.00,12,0,1,1019.053,-2.196,7.564,976.104,1.063,1.144
0.964000,583095,1000.00,12,0,1,1019.461,-1.122,7.535,974.759,0.320,1.130
0.965000,583096,1000.00,12,0,1,1020.110,1.344,7.465,973.942,-0.952,1.131
0.966000,583097,1000.00,12,0,1,1017.612,0.601,7.453,975.215,0.433,1.133
0.967000,583098,1000.00,12,0,1,1012.712,-2.119,7.364,976.104,1.285,1.147
0.968000,583099,1000.00,12,0,1,1007.739,-4.828,7.389,974.927,0.247,1.137
0.969000,583100,1000.00,12,0,1,1004.208,-5.849,6.910,975.936,0.488,1.136
0.970000,583101,1000.00,12,0,1,1006.850,-2.148,6.415,974.375,-0.193,1.136
0.971000,583102,1000.00,12,0,1,1008.508,1.572,6.398,975.696,-0.195,1.109
0.972000,583103,1000.00,12,0,1,1006.058,-0.452,5.509,975.263,0.524,1.112
0.973000,583104,1000.00,12,0,1,1007.019,-0.305,5.223,972.765,-2.324,1.153
0.974000,583105,1000.00,12,0,1,1016.819,7.143,5.292,974.158,-1.171,1.122
0.975000,583106,1000.00,12,0,1,1016.891,7.495,5.397,974.855,0.282,1.112
0.976000,583107,1000.00,12,0,1,1016.243,2.499,5.363,976.392,0.994,1.115
0.977000,583108,1000.00,12,0,1,1020.254,4.577,5.384,975.215,0.826,1.107
0.978000,583109,1000.00,12,0,1,1022.704,4.639,5.415,974.615,-0.710,1.111
0.979000,583110,1000.00,12,0,1,1027.797,6.352,5.366,976.656,1.519,1.104
0.980000,583111,1000.00,12,0,1,1031.352,8.267,5.444,977.858,2.497,1.152
0.981000,583112,1000.00,12,0,1,1021.503,-1.303,5.445,975.816,0.730,1.156
0.982000,583113,1000.00,12,0,1,1013.072,-10.602,5.634,975.576,-0.239,1.154
0.983000,583114,1000.00,12,0,1,1019.533,-4.182,5.661,974.831,-0.295,1.155
0.984000,583115,1000.00,12,0,1,1025.635,4.339,5.693,976.681,0.638,1.155
0.985000,583116,1000.00,12,0,1,1024.338,3.805,5.717,977.353,1.930,1.180
0.986000,583117,1000.00,12,0,1,1020.422,1.172,5.713,976.632,0.632,1.179
0.987000,583118,1000.00,12,0,1,1014.753,-2.667,5.718,974.639,-1.018,1.177
0.988000,583119,1000.00,12,0,1,1014.057,-2.486,5.691,974.735,-1.398,1.142
0.989000,583120,1000.00,12,0,1,1008.676,-4.125,5.549,975.936,0.017,1.138
0.990000,583121,1000.00,12,0,1,1004.040,-8.076,5.485,974.663,-0.829,1.125
0.991000,583122,1000.00,12,0,1,1003.608,-6.291,5.553,974.062,-1.823,1.154
0.992000,583123,1000.00,12,0,1,1007.427,-2.363,5.438,974.134,-1.215,1.159
0.993000,583124,1000.00,12,0,1,1010.213,1.016,5.404,975.744,-0.116,1.137
0.994000,583125,1000.00,12,0,1,1015.234,3.778,5.427,975.479,0.358,1.138
0.995000,583126,1000.00,12,0,1,1022.752,8.863,5.570,973.702,-1.640,1.130
0.996000,583127,1000.00,12,0,1,1024.217,8.211,5.653,974.302,-1.072,1.129
0.997000,583128,1000.00,12,0,1,1010.622,-5.603,5.453,975.864,0.623,1.131
0.998000,583129,1000.00,12,0,1,1013.384,-8.061,5.394,974.495,-0.225,1.131
0.999000,583130,1000.00,12,0,1,1013.264,-4.358,5.409,975.239,-0.171,1.123
1.000000,583131,1000.00,12,0,1,1017.612,-3.937,5.414,976.104,1.228,1.106
1.001000,583132,1000.00,12,0,1,1010.213,-5.875,5.257,975.792,0.683,1.110
1.002000,583133,1000.00,12,0,1,1011.294,-8.233,5.131,975.744,0.588,1.106
1.003000,583134,1000.00,12,0,1,1023.833,6.477,4.974,976.873,1.420,1.112
1.004000,583135,1000.00,12,0,1,1027.268,11.072,5.160,977.954,2.301,1.125
1.005000,583136,1000.00,12,0,1,1025.707,8.597,5.302,974.735,-0.278,1.118
1.006000,583137,1000.00,12,0,1,1027.700,10.502,5.499,975.576,-0.798,1.083
1.007000,583138,1000.00,12,0,1,1046.533,23.960,6.451,974.567,-0.228,1.081
1.008000,583139,1000.00,12,0,1,1035.003,18.580,6.913,974.423,-1.477,1.098
1.009000,583140,1000.00,12,0,1,987.202,-27.274,7.834,974.831,-0.163,1.062
1.010000,583141,1000.00,12,0,1,996.161,-24.538,8.567,973.414,-1.545,1.072
1.011000,583142,1000.00,12,0,1,1004.953,-3.244,8.570,973.750,-1.333,1.072
1.012000,583143,1000.00,12,0,1,1008.700,-4.383,8.588,975.119,0.295,1.070
1.013000,583144,1000.00,12,0,1,1012.663,3.309,8.595,976.584,1.360,1.076
1.014000,583145,1000.00,12,0,1,1030.703,13.618,8.806,974.951,0.344,1.076
1.015000,583146,1000.00,12,0,1,1044.371,26.218,9.553,973.294,-1.869,1.100
1.016000,583147,1000.00,12,0,1,1020.230,2.143,9.558,975.624,0.285,1.099
1.017000,583148,1000.00,12,0,1,1017.468,-10.831,9.675,976.512,1.533,1.106
1.018000,583149,1000.00,12,0,1,1026.115,1.181,9.652,976.945,1.349,1.121
1.019000,583150,1000.00,12,0,1,1018.092,-8.334,9.689,976.128,0.809,1.125
1.020000,583151,1000.00,12,0,1,1016.675,-10.666,9.801,976.344,0.349,1.126
1.021000,583152,1000.00,12,0,1,1019.029,-7.080,9.849,976.080,0.509,1.128
1.022000,583153,1000.00,12,0,1,1017.564,-6.910,9.898,978.002,1.490,1.145
1.023000,583154,1000.00,12,0,1,1011.535,-10.167,10.001,977.377,1.627,1.121
1.024000,583155,1000.00,12,0,1,1005.601,-13.223,10.124,976.632,0.018,1.108
1.025000,583156,1000.00,12,0,1,1014.009,-3.889,10.084,976.536,0.216,1.108
1.026000,583157,1000.00,12,0,1,1027.532,11.767,10.214,975.576,-0.693,1.103
1.027000,583158,1000.00,12,0,1,1019.846,7.876,10.254,976.416,-0.238,1.098
1.028000,583159,1000.00,12,0,1,1013.480,-0.531,10.233,974.134,-1.358,1.110
1.029000,583160,1000.00,12,0,1,1011.895,0.783,10.195,972.549,-3.476,1.195
1.030000,583161,1000.00,12,0,1,1010.982,-0.081,10.127,975.071,-0.658,1.145
1.031000,583162,1000.00,12,0,1,1001.350,-6.015,10.161,975.960,0.638,1.144
1.032000,583163,1000.00,12,0,1,994.840,-12.703,10.209,975.816,0.220,1.144
1.033000,583164,1000.00,12,0,1,1012.207,2.357,10.198,974.134,-1.036,1.152
1.034000,583165,1000.00,12,0,1,1021.984,14.227,10.376,974.447,-1.295,1.163
1.035000,583166,1000.00,12,0,1,1020.590,8.512,10.432,974.591,-0.477,1.133
1.036000,583167,1000.00,12,0,1,1018.452,4.535,10.450,975.383,-0.195,1.130
1.037000,583168,1000.00,12,0,1,1026.619,7.254,10.494,976.320,0.960,1.129
1.038000,583169,1000.00,12,0,1,1028.757,9.241,10.569,976.945,1.215,1.124
1.039000,583170,1000.00,12,0,1,1021.455,-0.760,10.553,976.200,0.599,1.128
1.040000,583171,1000.00,12,0,1,1025.779,0.116,10.491,977.089,0.823,1.128
1.041000,583172,1000.00,12,0,1,1030.439,5.402,10.481,976.176,0.509,1.100
1.042000,583173,1000.00,12,0,1,1028.901,2.571,10.482,974.711,-1.224,1.100
1.043000,583174,1000.00,12,0,1,1019.533,-4.574,10.501,974.302,-1.305,1.116
1.044000,583175,1000.00,12,0,1,1014.345,-9.796,10.579,974.567,-0.801,1.120
1.045000,583176,1000.00,12,0,1,1014.897,-5.994,10.538,975.912,0.495,1.098
1.046000,583177,1000.00,12,0,1,1014.897,-3.582,10.487,974.543,-0.040,1.088
1.047000,583178,1000.00,12,0,1,1012.159,-3.385,10.468,974.375,-0.846,1.091
1.048000,583179,1000.00,12,0,1,1013.528,-1.049,10.406,972.309,-1.561,1.112
1.049000,583180,1000.00,12,0,1,1019.581,5.783,10.420,974.951,-0.328,1.113
1.050000,583181,1000.00,12,0,1,1019.341,6.751,10.449,975.383,1.710,1.126
1.051000,583182,1000.00,12,0,1,1010.189,-1.969,10.420,974.134,-0.474,1.123
1.052000,583183,1000.00,12,0,1,1005.409,-7.346,10.406,975.191,0.601,1.124
1.053000,583184,1000.00,12,0,1,1008.604,-4.327,10.384,976.080,1.385,1.123
1.054000,583185,1000.00,12,0,1,1004.569,-6.355,10.305,974.278,-0.271,1.075
1.055000,583186,1000.00,12,0,1,1011.751,-3.332,10.243,974.855,-0.360,1.076
1.056000,583187,1000.00,12,0,1,1021.383,6.859,10.182,973.870,-0.600,1.073
1.057000,583188,1000.00,12,0,1,1025.298,7.316,9.657,975.191,-0.182,1.073
1.058000,583189,1000.00,12,0,1,1025.851,5.869,9.329,974.591,0.201,1.053
1.059000,583190,1000.00,12,0,1,1024.338,2.112,8.500,975.167,-0.119,1.053
1.060000,583191,1000.00,12,0,1,1016.771,-5.109,7.793,976.729,1.705,1.058
1.061000,583192,1000.00,12,0,1,1013.456,-9.065,7.884,976.801,1.640,1.066
1.062000,583193,1000.00,12,0,1,1016.074,-5.031,7.892,975.792,0.493,1.068
1.063000,583194,1000.00,12,0,1,1017.059,-1.918,7.883,976.032,0.531,1.053
1.064000,583195,1000.00,12,0,1,1013.624,-3.197,7.657,977.233,1.489,1.073
1.065000,583196,1000.00,12,0,1,1012.183,-2.827,6.712,976.705,1.260,1.055
1.066000,583197,1000.00,12,0,1,1012.471,-0.238,6.705,975.912,0.019,1.054
1.067000,583198,1000.00,12,0,1,1013.048,2.237,6.535,975.095,-0.428,1.033
1.068000,583199,1000.00,12,0,1,1014.513,4.675,6.566,973.390,-1.948,1.052
1.069000,583200,1000.00,12,0,1,1011.535,3.578,6.480,974.951,-0.738,1.051
1.070000,583201,1000.00,12,0,1,1007.451,-0.413,6.302,975.431,0.454,1.052
1.071000,583202,1000.00,12,0,1,1006.466,-0.841,6.223,973.774,-1.259,1.064
1.072000,583203,1000.00,12,0,1,1011.390,2.855,6.159,973.918,-1.264,1.058
1.073000,583204,1000.00,12,0,1,1015.186,6.251,6.054,972.621,-1.780,1.063
1.074000,583205,1000.00,12,0,1,1013.648,3.098,5.774,975.816,0.156,1.064
1.075000,583206,1000.00,12,0,1,1008.100,-3.414,5.768,974.543,0.628,1.067
1.076000,583207,1000.00,12,0,1,1009.277,-4.723,5.563,975.191,-0.602,1.066
1.077000,583208,1000.00,12,0,1,1013.576,-0.892,5.452,973.942,-0.216,1.066
1.078000,583209,1000.00,12,0,1,1016.531,0.596,5.452,974.375,-1.149,1.061
1.079000,583210,1000.00,12,0,1,1022.800,4.530,5.489,975.215,0.587,0.944
1.080000,583211,1000.00,12,0,1,1024.578,6.008,5.554,976.416,1.099,0.952
1.081000,583212,1000.00,12,0,1,1021.815,1.828,5.494,975.311,0.581,0.951
1.082000,583213,1000.00,12,0,1,1018.116,-1.417,5.196,974.230,-0.799,0.957
1.083000,583214,1000.00,12,0,1,1016.146,-2.944,5.202,973.750,-0.969,0.956
1.084000,583215,1000.00,12,0,1,1014.585,-2.490,4.810,974.543,-0.077,0.938
1.085000,583216,1000.00,12,0,1,1013.144,-2.210,4.668,974.471,0.191,0.936
1.086000,583217,1000.00,12,0,1,1010.694,-2.141,4.633,974.951,0.603,0.940
1.087000,583218,1000.00,12,0,1,1009.397,-1.700,4.525,974.254,0.259,0.931
1.088000,583219,1000.00,12,0,1,1006.250,-2.111,4.342,973.822,-0.248,0.915
1.089000,583220,1000.00,12,0,1,1000.797,-5.387,4.407,974.014,0.033,0.911
1.090000,583221,1000.00,12,0,1,1001.998,-3.626,4.437,974.495,0.547,0.907
1.091000,583222,1000.00,12,0,1,1004.809,0.880,4.372,975.672,1.360,0.924
1.092000,583223,1000.00,12,0,1,1007.859,3.003,4.378,975.047,1.020,0.920
1.093000,583224,1000.00,12,0,1,1015.114,8.307,4.486,975.239,0.394,0.903
1.094000,583225,1000.00,12,0,1,1015.090,7.493,4.397,976.056,1.266,0.913
1.095000,583226,1000.00,12,0,1,1013.048,2.050,4.324,977.761,2.092,0.957
1.096000,583227,1000.00,12,0,1,1013.264,0.531,4.295,975.912,0.786,0.964
1.097000,583228,1000.00,12,0,1,1015.138,0.114,4.268,973.870,-1.999,0.997
1.098000,583229,1000.00,12,0,1,1025.418,6.736,4.371,974.278,-1.424,0.993
1.099000,583230,1000.00,12,0,1,1020.110,3.321,4.319,976.152,0.278,0.993
1.100000,583231,1000.00,12,0,1,1011.366,-8.437,4.378,973.942,-0.989,0.973
1.101000,583232,1000.00,12,0,1,1017.876,-2.497,4.383,975.552,-0.626,0.975
1.102000,583233,1000.00,12,0,1,1015.066,-1.668,4.265,976.777,1.626,0.998
1.103000,583234,1000.00,12,0,1,1014.153,-4.001,4.259,975.936,0.346,0.980
1.104000,583235,1000.00,12,0,1,1018.501,2.798,4.182,973.990,-1.118,0.992
1.105000,583236,1000.00,12,0,1,1012.808,-0.249,4.155,973.582,-1.636,1.017
1.106000,583237,1000.00,12,0,1,1022.176,6.174,4.134,973.846,-0.894,1.021
1.107000,583238,1000.00,12,0,1,1026.187,14.115,4.472,976.416,1.282,1.037
1.108000,583239,1000.00,12,0,1,1027.917,11.937,4.708,975.960,1.516,1.058
1.109000,583240,1000.00,12,0,1,1015.978,3.819,4.729,976.224,0.835,1.065
1.110000,583241,1000.00,12,0,1,1015.498,-2.070,4.683,974.999,0.251,1.038
1.111000,583242,1000.00,12,0,1,991.838,-15.747,5.024,974.711,-0.738,1.017
1.112000,583243,1000.00,12,0,1,985.424,-27.892,6.348,974.302,-0.659,1.019
1.113000,583244,1000.00,12,0,1,984.944,-19.116,6.894,975.672,0.073,1.016
1.114000,583245,1000.00,12,0,1,988.619,-16.801,7.278,974.735,-0.160,0.994
1.115000,583246,1000.00,12,0,1,1015.906,8.064,7.356,975.215,-0.541,0.981
1.116000,583247,1000.00,12,0,1,1016.267,13.290,7.592,977.041,1.334,0.999
1.117000,583248,1000.00,12,0,1,1015.450,3.139,7.599,977.593,1.659,1.025
1.118000,583249,1000.00,12,0,1,1019.221,8.605,7.667,975.504,-0.373,0.988
1.119000,583250,1000.00,12,0,1,1004.520,-6.832,7.711,975.335,-1.036,0.994
1.120000,583251,1000.00,12,0,1,1003.512,-10.222,7.845,975.335,-0.608,0.995
1.121000,583252,1000.00,12,0,1,1007.739,-3.091,7.857,976.224,-0.003,0.979
1.122000,583253,1000.00,12,0,1,1012.087,0.842,7.847,975.071,-0.468,0.965
1.123000,583254,1000.00,12,0,1,1011.895,3.252,7.811,976.392,0.068,0.932
1.124000,583255,1000.00,12,0,1,1005.457,-1.744,7.802,976.656,1.120,0.945
1.125000,583256,1000.00,12,0,1,995.729,-7.955,7.868,974.999,-0.659,0.945
1.126000,583257,1000.00,12,0,1,995.849,-6.408,7.892,975.864,-0.123,0.941
1.127000,583258,1000.00,12,0,1,999.764,1.362,7.893,975.504,0.259,0.942
1.128000,583259,1000.00,12,0,1,1008.820,10.118,8.022,975.504,-0.339,0.929
1.129000,583260,1000.00,12,0,1,1009.421,13.124,8.208,976.849,1.178,0.940
1.130000,583261,1000.00,12,0,1,1005.433,7.488,8.233,975.912,0.342,0.928
1.131000,583262,1000.00,12,0,1,999.476,2.179,8.235,976.512,0.275,0.925
1.132000,583263,1000.00,12,0,1,991.934,-5.167,8.264,976.224,0.398,0.920
1.133000,583264,1000.00,12,0,1,1001.998,1.277,8.256,976.632,0.055,0.910
1.134000,583265,1000.00,12,0,1,1013.744,13.301,8.460,977.882,1.255,0.927
1.135000,583266,1000.00,12,0,1,1020.374,14.890,8.713,975.744,-0.581,0.930
1.136000,583267,1000.00,12,0,1,1026.692,17.022,9.034,975.840,-1.363,0.946
1.137000,583268,1000.00,12,0,1,1026.019,12.351,9.198,975.023,-1.183,0.960
1.138000,583269,1000.00,12,0,1,1023.040,5.169,9.222,974.735,-2.013,1.001
1.139000,583270,1000.00,12,0,1,1014.369,-4.110,9.209,975.552,-0.654,1.005
1.140000,583271,1000.00,12,0,1,1000.605,-17.368,9.517,974.831,-1.073,1.014
1.141000,583272,1000.00,12,0,1,993.111,-22.878,10.052,976.753,0.302,0.996
1.142000,583273,1000.00,12,0,1,1009.445,-7.289,10.095,976.777,1.196,1.000
1.143000,583274,1000.00,12,0,1,1013.480,3.359,10.038,976.344,0.092,0.999
1.144000,583275,1000.00,12,0,1,1007.739,-3.163,9.992,976.344,0.498,0.985
1.145000,583276,1000.00,12,0,1,1005.553,-2.634,9.995,976.512,0.386,0.941
1.146000,583277,1000.00,12,0,1,1004.208,-2.113,9.999,976.753,0.750,0.940
1.147000,583278,1000.00,12,0,1,1005.457,0.537,9.999,977.353,1.077,0.910
1.148000,583279,1000.00,12,0,1,1007.019,3.759,9.968,977.665,1.310,0.906
1.149000,583280,1000.00,12,0,1,1006.899,3.874,9.972,976.248,0.023,0.905
1.150000,583281,1000.00,12,0,1,1005.001,2.638,9.907,975.576,-1.002,0.906
1.151000,583282,1000.00,12,0,1,1002.767,-0.170,9.901,975.023,-1.118,0.915
1.152000,583283,1000.00,12,0,1,1000.125,-2.464,9.904,976.681,-0.082,0.886
1.153000,583284,1000.00,12,0,1,1005.890,0.590,9.888,975.840,0.002,0.885
1.154000,583285,1000.00,12,0,1,1010.934,5.524,9.911,975.263,-1.324,0.890
1.155000,583286,1000.00,12,0,1,1015.330,6.128,9.949,974.519,-1.322,0.880
1.156000,583287,1000.00,12,0,1,1016.891,6.027,9.947,979.515,2.022,0.916
1.157000,583288,1000.00,12,0,1,1015.498,1.772,9.748,978.770,2.945,0.990
1.158000,583289,1000.00,12,0,1,1016.603,0.538,9.601,976.945,-0.581,0.970
1.159000,583290,1000.00,12,0,1,1017.852,0.728,9.586,976.080,-0.716,0.968
1.160000,583291,1000.00,12,0,1,1016.579,-1.309,9.584,977.401,-0.159,0.968
1.161000,583292,1000.00,12,0,1,1016.026,-2.099,9.326,974.975,-1.272,0.979
1.162000,583293,1000.00,12,0,1,1012.423,-4.249,8.472,973.173,-3.471,1.091
1.163000,583294,1000.00,12,0,1,1012.976,-3.574,8.045,976.536,-0.191,1.091
1.164000,583295,1000.00,12,0,1,1013.865,-0.313,7.687,977.954,2.098,1.131
1.165000,583296,1000.00,12,0,1,1009.325,-2.663,7.611,974.807,-0.970,1.136
1.166000,583297,1000.00,12,0,1,1001.614,-7.679,7.455,975.431,-0.836,1.127
1.167000,583298,1000.00,12,0,1,999.188,-8.110,7.529,977.017,1.153,1.114
1.168000,583299,1000.00,12,0,1,994.672,-8.340,7.523,976.224,0.545,1.116
1.169000,583300,1000.00,12,0,1,997.218,-5.451,7.501,976.705,0.438,1.108
1.170000,583301,1000.00,12,0,1,1002.647,2.212,7.367,974.807,-0.530,1.107
1.171000,583302,1000.00,12,0,1,1006.538,5.398,7.393,974.711,-1.515,1.127
1.172000,583303,1000.00,12,0,1,1003.103,2.515,7.401,975.191,-0.203,1.126
1.173000,583304,1000.00,12,0,1,1002.094,-0.949,7.388,973.774,-1.565,1.147
1.174000,583305,1000.00,12,0,1,1002.887,-0.522,7.384,974.951,-0.695,1.141
1.175000,583306,1000.00,12,0,1,1005.697,0.209,7.298,974.999,0.069,1.137
1.176000,583307,1000.00,12,0,1,1013.768,5.575,7.284,973.990,-1.157,1.148
1.177000,583308,1000.00,12,0,1,1019.581,9.565,7.406,973.630,-1.161,1.160
1.178000,583309,1000.00,12,0,1,1019.798,6.997,7.334,975.095,0.024,1.159
1.179000,583310,1000.00,12,0,1,1020.110,4.954,7.130,973.342,-0.630,1.150
1.180000,583311,1000.00,12,0,1,1017.299,1.490,7.054,974.663,-0.426,1.151
1.181000,583312,1000.00,12,0,1,1013.600,-2.577,7.056,976.320,2.091,1.187
1.182000,583313,1000.00,12,0,1,1015.618,-0.818,7.019,977.737,2.635,1.243
1.183000,583314,1000.00,12,0,1,1014.657,0.529,7.017,976.416,1.858,1.271
1.184000,583315,1000.00,12,0,1,1008.556,-3.982,6.784,975.167,-0.052,1.258
1.185000,583316,1000.00,12,0,1,1005.986,-4.838,6.485,974.855,-0.101,1.256
1.186000,583317,1000.00,12,0,1,1003.343,-4.282,6.052,976.584,1.201,1.252
1.187000,583318,1000.00,12,0,1,999.981,-5.326,5.843,975.215,0.600,1.244
1.188000,583319,1000.00,12,0,1,995.369,-6.787,5.876,972.861,-1.926,1.241
1.189000,583320,1000.00,12,0,1,995.681,-5.412,5.897,975.936,0.465,1.239
1.190000,583321,1000.00,12,0,1,991.693,-5.720,5.422,975.624,1.463,1.247
1.191000,583322,1000.00,12,0,1,987.033,-9.764,4.565,977.113,1.206,1.258
1.192000,583323,1000.00,12,0,1,996.353,-1.497,4.452,975.720,1.245,1.259
1.193000,583324,1000.00,12,0,1,1019.629,18.397,5.135,977.761,1.064,1.268
1.194000,583325,1000.00,12,0,1,1030.751,27.139,6.395,976.392,1.389,1.281
1.195000,583326,1000.00,12,0,1,1001.254,-1.005,6.386,975.407,-1.238,1.292
1.196000,583327,1000.00,12,0,1,996.401,-15.659,6.752,974.254,-1.296,1.301
1.197000,583328,1000.00,12,0,1,1002.671,-4.260,6.779,975.816,-0.748,1.296
1.198000,583329,1000.00,12,0,1,1010.622,-0.791,6.759,976.056,0.357,1.284
1.199000,583330,1000.00,12,0,1,1015.330,5.704,6.784,974.351,-1.437,1.300
1.200000,583331,1000.00,12,0,1,1016.747,4.631,6.806,974.110,-1.779,1.316
1.201000,583332,1000.00,12,0,1,1018.308,5.784,6.855,974.663,-0.707,1.311
1.202000,583333,1000.00,12,0,1,1011.102,0.513,6.846,975.672,0.008,1.311
1.203000,583334,1000.00,12,0,1,1000.941,-8.851,6.959,974.711,-0.108,1.311
1.204000,583335,1000.00,12,0,1,998.731,-8.237,7.013,973.654,-1.547,1.315
1.205000,583336,1000.00,12,0,1,1009.493,2.692,6.969,975.263,0.236,1.303
1.206000,583337,1000.00,12,0,1,1020.014,15.467,7.255,974.927,0.379,1.272
1.207000,583338,1000.00,12,0,1,1029.142,21.479,7.861,973.822,-0.778,1.207
1.208000,583339,1000.00,12,0,1,1007.739,5.563,7.900,975.576,0.640,1.207
1.209000,583340,1000.00,12,0,1,989.315,-17.070,8.260,975.720,1.333,1.218
1.210000,583341,1000.00,12,0,1,997.146,-7.766,8.330,975.744,0.717,1.222
1.211000,583342,1000.00,12,0,1,1005.770,2.219,8.331,976.560,1.508,1.227
1.212000,583343,1000.00,12,0,1,1021.503,13.122,8.514,977.665,2.075,1.162
1.213000,583344,1000.00,12,0,1,1011.414,6.938,8.555,976.464,1.052,1.172
1.214000,583345,1000.00,12,0,1,990.324,-18.427,8.943,975.912,-0.196,1.134
1.215000,583346,1000.00,12,0,1,998.395,-12.730,9.115,975.455,-0.368,1.127
1.216000,583347,1000.00,12,0,1,1010.646,0.793,9.051,975.696,-0.476,1.122
1.217000,583348,1000.00,12,0,1,1018.188,5.395,9.010,976.224,0.155,1.111
1.218000,583349,1000.00,12,0,1,1019.005,5.527,8.967,976.945,0.635,1.112
1.219000,583350,1000.00,12,0,1,1020.494,3.462,8.947,974.014,-1.510,1.130
1.220000,583351,1000.00,12,0,1,1014.753,-0.713,8.942,973.774,-2.468,1.181
1.221000,583352,1000.00,12,0,1,1007.739,-8.539,8.991,974.471,-0.861,1.167
1.222000,583353,1000.00,12,0,1,1004.520,-9.241,9.079,974.783,-0.637,1.170
1.223000,583354,1000.00,12,0,1,1007.019,-5.331,9.109,974.663,-0.379,1.151
1.224000,583355,1000.00,12,0,1,1016.819,5.379,9.140,975.479,0.243,1.147
1.225000,583356,1000.00,12,0,1,1009.565,3.257,9.152,975.143,0.294,1.148
1.226000,583357,1000.00,12,0,1,1003.632,-4.242,9.137,974.543,-0.411,1.137
1.227000,583358,1000.00,12,0,1,1004.929,0.359,9.037,975.047,0.023,1.125
1.228000,583359,1000.00,12,0,1,998.852,-3.229,8.994,975.071,0.319,1.126
1.229000,583360,1000.00,12,0,1,998.395,-3.739,8.982,974.855,-0.092,1.123
1.230000,583361,1000.00,12,0,1,1000.365,0.223,8.980,974.855,0.051,1.121
1.231000,583362,1000.00,12,0,1,1000.605,0.072,8.973,974.375,-0.406,1.083
1.232000,583363,1000.00,12,0,1,1006.202,4.058,8.990,974.375,-0.407,1.019
1.233000,583364,1000.00,12,0,1,1008.556,5.688,9.026,974.519,-0.173,0.984
1.234000,583365,1000.00,12,0,1,1007.763,2.339,9.014,972.213,-1.803,1.017
1.235000,583366,1000.00,12,0,1,1011.847,3.338,9.001,971.900,-2.432,1.073
1.236000,583367,1000.00,12,0,1,1022.128,9.879,9.088,974.014,0.071,1.060
1.237000,583368,1000.00,12,0,1,1016.219,4.418,9.079,974.447,0.814,1.063
1.238000,583369,1000.00,12,0,1,1007.379,-7.898,9.096,976.200,1.873,1.061
1.239000,583370,1000.00,12,0,1,1004.857,-9.582,9.165,975.744,1.972,1.095
1.240000,583371,1000.00,12,0,1,1009.541,-5.353,9.161,975.912,1.122,1.087
1.241000,583372,1000.00,12,0,1,1014.009,0.788,9.057,974.831,0.706,1.078
1.242000,583373,1000.00,12,0,1,1021.071,6.800,9.105,976.777,1.324,1.080
1.243000,583374,1000.00,12,0,1,1016.843,5.498,8.760,976.801,2.232,1.115
1.244000,583375,1000.00,12,0,1,1006.778,-4.131,7.896,976.056,0.547,1.100
1.245000,583376,1000.00,12,0,1,1003.367,-5.777,7.937,974.879,-0.187,1.087
1.246000,583377,1000.00,12,0,1,999.476,-5.765,7.665,974.495,-0.895,1.078
1.247000,583378,1000.00,12,0,1,999.812,-4.413,7.667,973.630,-1.242,1.088
1.248000,583379,1000.00,12,0,1,1004.857,2.774,7.676,974.182,-0.893,1.094
1.249000,583380,1000.00,12,0,1,1002.983,2.485,7.642,975.768,0.749,1.080
1.250000,583381,1000.00,12,0,1,997.338,-2.669,7.623,975.335,0.645,1.054
1.251000,583382,1000.00,12,0,1,1000.221,-1.177,7.581,976.945,1.216,1.063
1.252000,583383,1000.00,12,0,1,997.194,-1.978,7.586,975.191,0.571,1.066
1.253000,583384,1000.00,12,0,1,988.595,-11.087,7.644,975.792,-0.424,1.068
1.254000,583385,1000.00,12,0,1,993.639,-7.735,7.634,975.311,0.328,1.046
1.255000,583386,1000.00,12,0,1,997.002,-2.540,7.633,975.191,-0.835,1.052
1.256000,583387,1000.00,12,0,1,1015.858,9.556,7.436,976.536,0.782,1.057
1.257000,583388,1000.00,12,0,1,1030.631,24.152,7.599,976.080,0.332,1.052
1.258000,583389,1000.00,12,0,1,1024.217,13.849,7.807,976.512,0.186,1.049
1.259000,583390,1000.00,12,0,1,1018.044,3.684,7.443,977.785,1.460,1.052
1.260000,583391,1000.00,12,0,1,1015.234,0.249,7.362,974.399,-1.325,1.064
1.261000,583392,1000.00,12,0,1,1012.928,-2.476,7.363,972.597,-3.530,1.156
1.262000,583393,1000.00,12,0,1,1015.306,0.235,7.126,975.071,-0.906,1.125
1.263000,583394,1000.00,12,0,1,1013.456,0.505,7.058,976.464,1.005,1.124
1.264000,583395,1000.00,12,0,1,1012.784,0.198,6.560,977.449,1.453,1.142
1.265000,583396,1000.00,12,0,1,1014.297,3.319,6.325,977.017,1.323,1.156
1.266000,583397,1000.00,12,0,1,1011.030,2.060,6.331,975.095,-0.787,1.160
1.267000,583398,1000.00,12,0,1,1007.691,-0.641,6.285,973.894,-1.807,1.187
1.268000,583399,1000.00,12,0,1,1007.691,0.453,6.237,973.438,-1.978,1.217
1.269000,583400,1000.00,12,0,1,1007.643,1.003,6.219,974.879,-0.589,1.201
1.270000,583401,1000.00,12,0,1,1004.088,-1.718,6.223,973.726,-0.803,1.154
1.271000,583402,1000.00,12,0,1,1002.118,-4.426,6.137,973.894,-1.265,1.162
1.272000,583403,1000.00,12,0,1,1005.962,-1.583,6.000,973.942,-0.383,1.160
1.273000,583404,1000.00,12,0,1,1008.172,0.023,5.953,975.095,0.149,1.159
1.274000,583405,1000.00,12,0,1,1008.748,-1.454,5.907,974.735,0.489,1.160
1.275000,583406,1000.00,12,0,1,1009.253,-2.492,5.900,974.182,-0.521,1.162
1.276000,583407,1000.00,12,0,1,1011.943,-2.083,5.877,974.158,-0.293,1.161
1.277000,583408,1000.00,12,0,1,1012.736,-2.064,5.884,974.783,0.180,1.161
1.278000,583409,1000.00,12,0,1,1017.948,0.258,5.866,973.342,-0.702,1.165
1.279000,583410,1000.00,12,0,1,1020.374,2.843,5.856,973.534,-0.933,1.172
1.280000,583411,1000.00,12,0,1,1022.800,2.967,5.871,975.023,0.805,1.177
1.281000,583412,1000.00,12,0,1,1023.473,4.007,5.898,975.552,1.358,1.192
1.282000,583413,1000.00,12,0,1,1013.985,-3.667,5.893,974.399,0.299,1.191
1.283000,583414,1000.00,12,0,1,1008.124,-9.108,5.978,973.246,-0.792,1.196
1.284000,583415,1000.00,12,0,1,1012.063,-2.870,5.983,973.222,-0.759,1.173
1.285000,583416,1000.00,12,0,1,1012.712,0.877,5.966,973.486,-0.142,1.122
1.286000,583417,1000.00,12,0,1,1008.484,-1.140,5.802,973.654,0.065,1.122
1.287000,583418,1000.00,12,0,1,1005.217,-2.623,5.780,972.453,-0.586,1.119
1.288000,583419,1000.00,12,0,1,1011.270,3.349,5.691,976.056,1.780,1.116
1.289000,583420,1000.00,12,0,1,1015.186,8.692,5.662,977.257,3.939,1.216
1.290000,583421,1000.00,12,0,1,991.381,-10.230,5.795,975.311,1.119,1.216
1.291000,583422,1000.00,12,0,1,996.329,-12.461,6.056,972.453,-1.328,1.226
1.292000,583423,1000.00,12,0,1,996.474,-3.518,6.000,973.630,-0.994,1.220
1.293000,583424,1000.00,12,0,1,998.731,-7.330,6.039,973.582,-0.005,1.178
1.294000,583425,1000.00,12,0,1,1002.479,-0.402,6.011,974.230,-0.139,1.176
1.295000,583426,1000.00,12,0,1,1009.565,2.012,5.962,974.062,0.301,1.176
1.296000,583427,1000.00,12,0,1,1021.887,11.886,6.140,975.672,1.018,1.178
1.297000,583428,1000.00,12,0,1,1019.653,9.012,6.240,975.143,1.126,1.176
1.298000,583429,1000.00,12,0,1,1001.734,-9.994,6.386,975.383,0.456,1.171
1.299000,583430,1000.00,12,0,1,1007.859,-7.836,6.472,973.582,-0.546,1.169
1.300000,583431,1000.00,12,0,1,998.828,-9.062,6.587,974.735,-0.430,1.167
1.301000,583432,1000.00,12,0,1,998.731,-12.779,6.828,975.071,0.758,1.159
1.302000,583433,1000.00,12,0,1,1001.998,-2.987,6.836,974.110,-0.504,1.158
1.303000,583434,1000.00,12,0,1,998.203,-4.814,6.688,973.173,-1.178,1.169
1.304000,583435,1000.00,12,0,1,994.840,-4.871,6.634,974.038,-0.418,1.169
1.305000,583436,1000.00,12,0,1,992.870,-3.042,6.638,973.558,-0.362,1.165
1.306000,583437,1000.00,12,0,1,994.312,0.215,6.499,973.750,-0.391,1.161
1.307000,583438,1000.00,12,0,1,997.074,6.069,5.596,974.975,0.832,1.166
1.308000,583439,1000.00,12,0,1,997.891,7.261,5.341,975.095,1.114,1.176
1.309000,583440,1000.00,12,0,1,991.693,3.662,5.341,974.254,0.063,1.158
1.310000,583441,1000.00,12,0,1,985.616,-3.061,5.358,975.047,0.574,1.145
1.311000,583442,1000.00,12,0,1,1000.485,8.733,5.488,973.222,-0.626,1.035
1.312000,583443,1000.00,12,0,1,1019.149,25.370,6.556,973.222,-1.311,1.043
1.313000,583444,1000.00,12,0,1,998.731,7.414,6.639,972.333,-1.218,1.048
1.314000,583445,1000.00,12,0,1,984.511,-14.172,6.935,971.780,-2.059,1.068
1.315000,583446,1000.00,12,0,1,996.353,-2.826,6.931,972.069,-1.235,1.066
1.316000,583447,1000.00,12,0,1,999.764,1.482,6.928,974.951,1.095,1.071
1.317000,583448,1000.00,12,0,1,1003.536,1.473,6.930,974.326,1.348,1.058
1.318000,583449,1000.00,12,0,1,1007.859,5.633,6.976,973.270,-0.444,1.022
1.319000,583450,1000.00,12,0,1,1007.739,3.578,6.993,972.405,-0.790,1.025
1.320000,583451,1000.00,12,0,1,1004.112,0.333,6.989,974.855,0.852,1.025
1.321000,583452,1000.00,12,0,1,1004.424,-0.434,6.961,974.302,1.303,1.026
1.322000,583453,1000.00,12,0,1,996.329,-4.372,6.985,973.798,-0.058,1.025
1.323000,583454,1000.00,12,0,1,994.312,-7.002,7.054,972.669,-0.465,1.027
1.324000,583455,1000.00,12,0,1,1008.532,8.064,7.143,974.038,0.164,1.025
1.325000,583456,1000.00,12,0,1,1012.639,14.968,7.442,974.615,1.362,1.040
1.326000,583457,1000.00,12,0,1,1003.632,5.961,7.484,972.981,-0.269,1.040
1.327000,583458,1000.00,12,0,1,986.433,-7.983,7.563,973.558,-0.172,1.040
1.328000,583459,1000.00,12,0,1,980.380,-14.058,7.819,973.942,0.790,1.041
1.329000,583460,1000.00,12,0,1,986.985,-4.618,7.836,973.294,-0.164,1.033
1.330000,583461,1000.00,12,0,1,996.089,4.619,7.852,973.198,-0.074,1.027
1.331000,583462,1000.00,12,0,1,992.991,3.312,7.846,973.774,0.252,1.009
1.332000,583463,1000.00,12,0,1,993.639,0.248,7.829,974.375,0.924,1.017
1.333000,583464,1000.00,12,0,1,1003.728,8.255,7.810,975.359,1.436,1.031
1.334000,583465,1000.00,12,0,1,998.659,3.622,7.816,975.504,1.553,1.049
1.335000,583466,1000.00,12,0,1,998.299,-2.391,7.822,974.783,0.488,1.051
1.336000,583467,1000.00,12,0,1,997.603,-1.781,7.825,973.149,-0.994,1.060
1.337000,583468,1000.00,12,0,1,997.338,-5.236,7.851,973.822,-0.830,1.063
1.338000,583469,1000.00,12,0,1,991.838,-8.197,7.922,974.110,-0.018,1.033
1.339000,583470,1000.00,12,0,1,994.312,-8.146,7.910,974.951,0.286,0.871
1.340000,583471,1000.00,12,0,1,1005.337,3.855,7.796,976.656,1.871,0.896
1.341000,583472,1000.00,12,0,1,1007.547,7.183,7.662,973.870,-0.271,0.877
1.342000,583473,1000.00,12,0,1,1008.268,6.408,7.699,974.519,-0.926,0.876
1.343000,583474,1000.00,12,0,1,1011.174,9.752,7.753,975.167,0.774,0.883
1.344000,583475,1000.00,12,0,1,1007.163,6.559,7.808,973.414,-1.237,0.899
1.345000,583476,1000.00,12,0,1,1000.293,0.650,7.803,974.134,-0.669,0.903
1.346000,583477,1000.00,12,0,1,996.065,-2.358,7.627,975.864,1.142,0.906
1.347000,583478,1000.00,12,0,1,988.691,-6.254,7.572,975.672,0.998,0.903
1.348000,583479,1000.00,12,0,1,986.145,-7.986,7.524,973.510,-0.969,0.911
1.349000,583480,1000.00,12,0,1,993.111,0.157,7.442,973.774,-1.209,0.924
1.350000,583481,1000.00,12,0,1,998.611,6.210,7.383,974.423,-0.011,0.922
1.351000,583482,1000.00,12,0,1,997.050,4.185,7.183,973.414,-0.970,0.926
1.352000,583483,1000.00,12,0,1,995.200,0.457,7.171,974.807,-0.015,0.923
1.353000,583484,1000.00,12,0,1,995.729,-0.526,7.139,973.846,-0.144,0.908
1.354000,583485,1000.00,12,0,1,996.882,-1.002,7.107,975.311,0.127,0.907
1.355000,583486,1000.00,12,0,1,1000.653,0.321,7.094,976.008,1.586,0.933
1.356000,583487,1000.00,12,0,1,1003.007,1.270,7.096,976.056,0.758,0.937
1.357000,583488,1000.00,12,0,1,1006.586,1.906,7.049,973.726,-0.830,0.937
1.358000,583489,1000.00,12,0,1,1008.196,2.539,6.983,974.014,-1.465,0.947
1.359000,583490,1000.00,12,0,1,1007.211,0.021,6.964,976.656,1.390,0.967
1.360000,583491,1000.00,12,0,1,1006.298,-1.260,6.953,974.927,0.255,0.964
1.361000,583492,1000.00,12,0,1,1002.983,-3.558,6.861,976.200,0.164,0.960
1.362000,583493,1000.00,12,0,1,1007.595,0.058,5.848,973.173,-0.911,0.951
1.363000,583494,1000.00,12,0,1,1006.418,2.513,5.764,973.846,-2.117,0.982
1.364000,583495,1000.00,12,0,1,991.021,-9.825,5.580,975.768,1.277,0.955
1.365000,583496,1000.00,12,0,1,992.030,-9.187,5.716,974.110,-0.594,0.943
1.366000,583497,1000.00,12,0,1,998.251,1.809,5.718,975.143,0.009,0.930
1.367000,583498,1000.00,12,0,1,994.552,0.191,5.714,974.855,0.495,0.913
1.368000,583499,1000.00,12,0,1,992.246,-1.294,5.661,974.783,-0.293,0.912
1.369000,583500,1000.00,12,0,1,991.597,-0.460,5.639,974.951,0.408,0.907
1.370000,583501,1000.00,12,0,1,993.327,0.891,5.640,974.254,-0.529,0.902
1.371000,583502,1000.00,12,0,1,994.192,2.072,5.647,974.807,-0.024,0.883
1.372000,583503,1000.00,12,0,1,993.327,-0.010,5.613,976.897,1.642,0.913
1.373000,583504,1000.00,12,0,1,988.835,-4.450,5.561,976.392,1.452,0.933
1.374000,583505,1000.00,12,0,1,994.408,-2.428,5.454,973.366,-1.648,0.962
1.375000,583506,1000.00,12,0,1,1000.797,3.908,5.056,974.783,-0.987,0.952
1.376000,583507,1000.00,12,0,1,997.603,-0.666,4.986,975.984,0.928,0.961
1.377000,583508,1000.00,12,0,1,999.572,-1.732,4.863,974.591,-0.622,0.964
1.378000,583509,1000.00,12,0,1,999.596,-0.862,4.440,976.416,0.539,0.961
1.379000,583510,1000.00,12,0,1,1001.638,-1.121,4.394,974.903,0.094,0.961
1.380000,583511,1000.00,12,0,1,1003.007,1.561,4.351,975.744,-0.420,0.962
1.381000,583512,1000.00,12,0,1,1006.514,3.577,4.355,974.903,0.098,0.962
1.382000,583513,1000.00,12,0,1,1015.402,11.870,4.668,974.975,-0.872,0.961
1.383000,583514,1000.00,12,0,1,1006.730,6.451,4.610,973.870,-0.796,0.946
1.384000,583515,1000.00,12,0,1,1001.974,-0.984,4.584,974.783,-0.728,0.926
1.385000,583516,1000.00,12,0,1,1002.166,2.590,4.586,976.032,1.139,0.937
1.386000,583517,1000.00,12,0,1,996.810,-1.280,4.583,976.104,0.967,0.937
1.387000,583518,1000.00,12,0,1,998.996,0.925,4.524,974.975,-0.050,0.929
1.388000,583519,1000.00,12,0,1,996.714,1.850,4.381,975.239,-0.078,0.929
1.389000,583520,1000.00,12,0,1,1004.833,6.080,4.314,974.783,-0.222,0.929
1.390000,583521,1000.00,12,0,1,1015.786,17.197,4.922,975.504,0.115,0.891
1.391000,583522,1000.00,12,0,1,987.538,-6.605,4.906,976.344,1.001,0.901
1.392000,583523,1000.00,12,0,1,980.788,-21.136,5.673,975.431,0.195,0.892
1.393000,583524,1000.00,12,0,1,993.231,-4.613,5.541,975.552,-0.235,0.886
1.394000,583525,1000.00,12,0,1,1011.943,8.668,5.599,976.681,0.954,0.879
1.395000,583526,1000.00,12,0,1,1027.797,22.197,6.418,976.753,0.806,0.881
1.396000,583527,1000.00,12,0,1,989.171,-10.656,6.584,973.198,-2.017,0.912
1.397000,583528,1000.00,12,0,1,979.107,-31.875,7.930,973.822,-2.406,0.963
1.398000,583529,1000.00,12,0,1,990.372,-12.036,8.032,977.233,1.544,0.978
1.399000,583530,1000.00,12,0,1,996.377,-7.745,8.106,973.870,-0.846,0.970
1.400000,583531,1000.00,12,0,1,1000.509,-0.692,8.059,974.134,-1.893,1.006
1.401000,583532,1000.00,12,0,1,1001.974,0.785,8.038,974.062,-0.412,0.999
1.402000,583533,1000.00,12,0,1,1000.485,0.824,8.039,975.143,-0.366,1.000
1.403000,583534,1000.00,12,0,1,1000.773,2.022,8.043,973.101,-0.776,1.006
1.404000,583535,1000.00,12,0,1,998.083,1.448,8.045,973.774,-1.357,1.024
1.405000,583536,1000.00,12,0,1,995.777,0.777,8.045,973.198,-0.361,1.000
1.406000,583537,1000.00,12,0,1,992.510,-0.320,8.043,973.077,-1.162,1.008
1.407000,583538,1000.00,12,0,1,993.375,1.655,8.042,974.975,1.008,1.011
1.408000,583539,1000.00,12,0,1,993.903,3.756,8.052,972.765,-0.311,0.991
1.409000,583540,1000.00,12,0,1,993.879,4.072,8.072,972.789,-1.289,0.988
1.410000,583541,1000.00,12,0,1,996.041,5.407,8.107,972.813,-0.036,0.987
1.411000,583542,1000.00,12,0,1,995.993,5.253,8.125,975.095,0.982,0.997
1.412000,583543,1000.00,12,0,1,994.071,1.626,8.128,974.278,1.535,1.012
1.413000,583544,1000.00,12,0,1,986.289,-5.385,8.156,974.735,0.449,0.969
1.414000,583545,1000.00,12,0,1,987.754,-7.115,8.100,975.960,2.243,1.003
1.415000,583546,1000.00,12,0,1,998.251,2.753,8.004,974.230,0.357,1.001
1.416000,583547,1000.00,12,0,1,1002.046,5.364,8.036,973.870,-0.457,1.003
1.417000,583548,1000.00,12,0,1,999.524,1.040,8.037,973.990,0.070,1.001
1.418000,583549,1000.00,12,0,1,1005.866,3.760,8.053,975.143,0.654,1.004
1.419000,583550,1000.00,12,0,1,1010.742,8.297,8.138,975.431,1.403,1.022
1.420000,583551,1000.00,12,0,1,1011.727,6.914,8.195,976.104,1.295,1.036
1.421000,583552,1000.00,12,0,1,1015.306,8.584,8.279,975.071,0.840,1.042
1.422000,583553,1000.00,12,0,1,1023.112,14.068,8.515,974.543,-0.361,1.017
1.423000,583554,1000.00,12,0,1,1016.267,8.800,8.583,974.230,-0.189,0.997
1.424000,583555,1000.00,12,0,1,983.382,-19.354,9.002,975.143,0.248,0.970
1.425000,583556,1000.00,12,0,1,987.538,-19.903,9.415,975.023,0.590,0.963
1.426000,583557,1000.00,12,0,1,1000.653,2.189,9.420,974.495,-0.229,0.955
1.427000,583558,1000.00,12,0,1,999.356,0.966,9.418,975.167,0.305,0.952
1.428000,583559,1000.00,12,0,1,992.606,-2.804,9.425,974.711,0.142,0.949
1.429000,583560,1000.00,12,0,1,985.977,-8.397,9.499,975.167,0.013,0.949
1.430000,583561,1000.00,12,0,1,987.202,-6.599,9.542,977.737,2.277,1.000
1.431000,583562,1000.00,12,0,1,993.087,0.138,9.528,976.176,1.101,1.012
1.432000,583563,1000.00,12,0,1,999.332,4.749,9.403,973.678,-1.901,1.040
1.433000,583564,1000.00,12,0,1,1000.077,4.997,9.386,973.630,-1.895,1.068
1.434000,583565,1000.00,12,0,1,997.170,-0.609,9.385,973.870,-1.320,1.079
1.435000,583566,1000.00,12,0,1,1001.782,1.070,9.379,974.230,-0.943,1.076
1.436000,583567,1000.00,12,0,1,1011.991,8.085,9.447,974.351,-0.547,1.070
1.437000,583568,1000.00,12,0,1,1008.604,4.611,9.468,973.654,-1.074,1.081
1.438000,583569,1000.00,12,0,1,1006.706,-1.813,9.468,975.383,0.243,1.081
1.439000,583570,1000.00,12,0,1,1008.052,-0.197,9.429,975.960,1.307,1.096
1.440000,583571,1000.00,12,0,1,1008.892,-0.592,9.110,972.933,-1.414,1.114
1.441000,583572,1000.00,12,0,1,1006.178,-1.968,9.067,974.663,-0.634,1.109
1.442000,583573,1000.00,12,0,1,1006.442,-1.980,8.564,975.768,1.495,1.128
1.443000,583574,1000.00,12,0,1,1005.842,-0.245,8.540,973.534,-0.855,1.134
1.444000,583575,1000.00,12,0,1,1003.247,-1.342,8.453,974.399,-0.404,1.128
1.445000,583576,1000.00,12,0,1,1006.298,2.214,7.855,973.774,-0.128,1.122
1.446000,583577,1000.00,12,0,1,1009.205,7.012,7.773,973.870,-0.664,1.089
1.447000,583578,1000.00,12,0,1,999.476,-0.220,6.332,975.239,1.036,1.045
1.448000,583579,1000.00,12,0,1,990.901,-8.292,6.211,974.615,0.486,1.024
1.449000,583580,1000.00,12,0,1,986.097,-10.243,6.283,974.375,-0.047,1.017
1.450000,583581,1000.00,12,0,1,988.787,-7.120,6.362,975.407,0.867,0.989
1.451000,583582,1000.00,12,0,1,998.227,2.440,6.370,975.191,0.736,0.993
1.452000,583583,1000.00,12,0,1,998.635,3.653,6.390,975.023,0.232,0.992
1.453000,583584,1000.00,12,0,1,1005.746,5.576,6.432,974.711,0.013,0.986
1.454000,583585,1000.00,12,0,1,1006.971,7.304,6.512,973.125,-1.341,0.986
1.455000,583586,1000.00,12,0,1,1003.920,-0.197,6.511,973.822,-1.029,0.995
1.456000,583587,1000.00,12,0,1,1006.130,-0.009,6.511,973.726,-0.370,0.983
1.457000,583588,1000.00,12,0,1,1007.283,-0.390,6.507,974.759,0.029,0.972
1.458000,583589,1000.00,12,0,1,1009.685,-0.202,6.485,974.975,0.850,0.979
1.459000,583590,1000.00,12,0,1,1011.222,0.989,6.461,975.696,0.875,0.970
1.460000,583591,1000.00,12,0,1,1012.255,0.740,6.416,973.822,-0.156,0.970
1.461000,583592,1000.00,12,0,1,1010.838,0.286,6.373,974.471,-0.526,0.963
1.462000,583593,1000.00,12,0,1,1012.183,0.884,6.370,975.335,1.054,0.950
1.463000,583594,1000.00,12,0,1,1005.217,-2.164,6.332,976.104,1.202,0.963
1.464000,583595,1000.00,12,0,1,1000.845,-6.573,6.320,973.726,-0.383,0.911
1.465000,583596,1000.00,12,0,1,1006.923,1.491,6.312,973.582,-1.350,0.929
1.466000,583597,1000.00,12,0,1,1004.689,2.831,6.279,974.423,0.094,0.927
1.467000,583598,1000.00,12,0,1,1001.446,-0.519,6.278,974.831,0.330,0.928
1.468000,583599,1000.00,12,0,1,991.189,-6.197,6.316,974.975,0.461,0.926
1.469000,583600,1000.00,12,0,1,1000.005,-1.544,6.210,974.302,-0.054,0.904
1.470000,583601,1000.00,12,0,1,1007.571,10.081,6.296,974.591,-0.192,0.886
1.471000,583602,1000.00,12,0,1,1004.472,4.139,6.206,975.215,0.666,0.883
1.472000,583603,1000.00,12,0,1,1008.916,5.524,5.930,974.855,0.120,0.881
1.473000,583604,1000.00,12,0,1,1014.417,8.863,5.932,976.344,1.133,0.896
1.474000,583605,1000.00,12,0,1,1010.550,2.685,5.276,975.720,0.896,0.904
1.475000,583606,1000.00,12,0,1,1008.340,-2.825,4.480,975.840,0.212,0.900
1.476000,583607,1000.00,12,0,1,1011.486,-2.109,4.480,975.215,0.078,0.900
1.477000,583608,1000.00,12,0,1,1012.327,-2.000,4.487,975.479,-0.281,0.900
1.478000,583609,1000.00,12,0,1,1012.808,-3.523,4.497,975.792,0.351,0.901
1.479000,583610,1000.00,12,0,1,1023.617,4.581,4.385,975.696,0.038,0.901
1.480000,583611,1000.00,12,0,1,1012.712,-1.843,4.293,972.813,-2.076,0.891
1.481000,583612,1000.00,12,0,1,1004.496,-13.211,4.681,972.861,-2.563,0.949
1.482000,583613,1000.00,12,0,1,1013.985,-1.844,4.640,975.215,0.281,0.911
1.483000,583614,1000.00,12,0,1,1000.917,-7.701,4.714,973.654,-0.515,0.874
1.484000,583615,1000.00,12,0,1,997.194,-13.598,5.090,972.621,-1.960,0.898
1.485000,583616,1000.00,12,0,1,999.596,-4.105,5.121,972.765,-1.115,0.902
1.486000,583617,1000.00,12,0,1,1004.016,0.041,4.992,973.173,-0.767,0.905
1.487000,583618,1000.00,12,0,1,1004.136,4.388,4.988,974.543,0.721,0.898
1.488000,583619,1000.00,12,0,1,995.200,-3.182,5.001,973.462,0.086,0.897
1.489000,583620,1000.00,12,0,1,989.508,-7.784,5.121,974.423,0.267,0.879
1.490000,583621,1000.00,12,0,1,1002.695,3.513,5.144,974.302,0.862,0.864
1.491000,583622,1000.00,12,0,1,1013.696,14.986,5.557,973.222,-0.630,0.864
1.492000,583623,1000.00,12,0,1,1012.567,11.276,5.774,973.222,-0.481,0.841
1.493000,583624,1000.00,12,0,1,999.356,-2.742,5.787,976.080,1.728,0.867
1.494000,583625,1000.00,12,0,1,1003.992,-3.858,5.810,976.176,2.362,0.928
1.495000,583626,1000.00,12,0,1,1011.486,4.363,5.834,975.696,1.009,0.938
1.496000,583627,1000.00,12,0,1,1013.913,3.410,5.769,975.311,0.757,0.940
1.497000,583628,1000.00,12,0,1,1014.729,2.518,5.780,976.152,1.003,0.939
1.498000,583629,1000.00,12,0,1,1013.408,-0.090,5.660,975.696,0.865,0.945
1.499000,583630,1000.00,12,0,1,1006.658,-6.409,5.546,975.792,0.411,0.946
1.500000,583631,1000.00,12,0,1,996.450,-14.349,5.819,975.624,0.467,0.941
1.501000,583632,1000.00,12,0,1,999.524,-11.290,6.024,975.383,0.036,0.935
1.502000,583633,1000.00,12,0,1,1007.499,0.605,6.003,973.077,-1.648,0.963
1.503000,583634,1000.00,12,0,1,1007.211,2.352,5.960,973.005,-2.075,1.007
1.504000,583635,1000.00,12,0,1,1016.939,10.481,6.054,975.119,0.311,0.990
1.505000,583636,1000.00,12,0,1,1018.813,15.322,6.430,975.071,0.652,0.983
1.506000,583637,1000.00,12,0,1,1014.849,9.311,6.564,974.134,-0.529,0.985
1.507000,583638,1000.00,12,0,1,1009.685,5.198,6.604,974.014,-0.529,0.987
1.508000,583639,1000.00,12,0,1,1013.528,6.250,6.663,975.143,0.278,0.981
1.509000,583640,1000.00,12,0,1,1014.273,8.185,6.762,973.510,-0.593,0.977
1.510000,583641,1000.00,12,0,1,1014.705,5.377,6.803,972.957,-1.809,1.009
1.511000,583642,1000.00,12,0,1,1011.342,1.905,6.809,975.431,0.706,1.012
1.512000,583643,1000.00,12,0,1,1015.186,1.379,6.810,974.014,-0.017,1.001
1.513000,583644,1000.00,12,0,1,1032.336,13.958,7.084,976.176,0.643,0.990
1.514000,583645,1000.00,12,0,1,1021.984,5.808,7.071,974.110,0.324,0.990
1.515000,583646,1000.00,12,0,1,992.150,-26.015,7.968,973.149,-2.127,1.017
1.516000,583647,1000.00,12,0,1,995.393,-25.753,8.752,973.510,-0.621,1.020
1.517000,583648,1000.00,12,0,1,1017.059,-2.350,8.758,973.462,-0.933,1.028
1.518000,583649,1000.00,12,0,1,1021.671,3.875,8.731,973.798,-0.256,1.026
1.519000,583650,1000.00,12,0,1,1023.329,2.361,8.734,974.951,0.801,1.033
1.520000,583651,1000.00,12,0,1,1023.881,3.550,8.632,976.200,1.900,1.067
1.521000,583652,1000.00,12,0,1,1022.056,0.741,8.613,974.663,0.843,1.069
1.522000,583653,1000.00,12,0,1,1016.483,-2.939,8.587,976.584,1.382,1.087
1.523000,583654,1000.00,12,0,1,1012.159,-6.433,8.544,973.702,0.338,1.076
1.524000,583655,1000.00,12,0,1,1011.895,-4.499,8.559,972.597,-2.350,1.119
1.525000,583656,1000.00,12,0,1,1010.862,-2.932,8.560,975.071,0.912,1.126
1.526000,583657,1000.00,12,0,1,1011.919,-0.834,8.555,974.182,0.274,1.127
1.527000,583658,1000.00,12,0,1,1009.661,-0.322,8.551,973.870,-0.493,1.128
1.528000,583659,1000.00,12,0,1,998.683,-8.742,8.625,973.942,-0.017,1.127
1.529000,583660,1000.00,12,0,1,993.879,-12.608,8.784,973.870,-0.384,1.128
1.530000,583661,1000.00,12,0,1,998.275,-6.521,8.828,974.615,0.406,1.091
1.531000,583662,1000.00,12,0,1,1003.704,-0.271,8.628,974.687,0.390,1.030
1.532000,583663,1000.00,12,0,1,1011.703,5.950,8.665,972.813,-1.126,1.042
1.533000,583664,1000.00,12,0,1,1020.110,12.108,8.766,974.423,-0.402,1.041
1.534000,583665,1000.00,12,0,1,1020.542,10.199,8.673,975.023,1.031,1.014
1.535000,583666,1000.00,12,0,1,1019.653,5.410,8.687,974.615,0.011,1.001
1.536000,583667,1000.00,12,0,1,1017.900,1.894,8.691,975.263,0.663,1.000
1.537000,583668,1000.00,12,0,1,1014.777,-2.882,8.679,974.615,0.177,0.995
1.538000,583669,1000.00,12,0,1,1017.876,-1.631,8.670,975.191,0.234,0.996
1.539000,583670,1000.00,12,0,1,1020.662,1.511,8.603,975.912,1.220,1.010
1.540000,583671,1000.00,12,0,1,1023.233,2.843,8.598,974.543,-0.107,1.002
1.541000,583672,1000.00,12,0,1,1019.149,0.646,8.333,975.215,0.108,0.999
1.542000,583673,1000.00,12,0,1,1013.408,-4.854,8.208,974.711,0.232,0.997
1.543000,583674,1000.00,12,0,1,1012.183,-4.138,8.219,973.510,-1.145,0.980
1.544000,583675,1000.00,12,0,1,1005.481,-6.797,8.257,973.390,-1.017,0.932
1.545000,583676,1000.00,12,0,1,1004.112,-7.203,8.297,971.780,-1.942,0.961
1.546000,583677,1000.00,12,0,1,1003.896,-3.144,8.295,973.270,-1.016,0.966
1.547000,583678,1000.00,12,0,1,1004.280,-1.823,8.291,976.993,2.839,1.037
1.548000,583679,1000.00,12,0,1,1007.163,2.560,8.299,977.233,3.026,1.115
1.549000,583680,1000.00,12,0,1,1010.646,5.739,8.289,974.735,0.264,1.114
1.550000,583681,1000.00,12,0,1,1009.493,4.707,8.065,974.351,-0.707,1.116
1.551000,583682,1000.00,12,0,1,1007.091,0.836,7.906,975.047,0.101,1.116
1.552000,583683,1000.00,12,0,1,1016.435,6.350,7.956,973.173,-1.364,1.109
1.553000,583684,1000.00,12,0,1,1019.942,9.707,8.067,973.726,-1.453,1.089
1.554000,583685,1000.00,12,0,1,1014.537,1.032,7.931,972.837,-1.234,1.102
1.555000,583686,1000.00,12,0,1,1015.306,-1.123,7.631,975.768,0.319,1.099
1.556000,583687,1000.00,12,0,1,1007.787,-7.138,7.584,976.753,2.460,1.150
1.557000,583688,1000.00,12,0,1,1014.105,-5.708,7.591,974.615,-0.286,1.148
1.558000,583689,1000.00,12,0,1,1021.191,3.981,7.561,974.855,-0.285,1.148
1.559000,583690,1000.00,12,0,1,1028.469,7.296,7.542,974.567,-0.079,1.145
1.560000,583691,1000.00,12,0,1,1032.745,11.858,7.689,974.807,-0.265,1.117
1.561000,583692,1000.00,12,0,1,1010.165,-6.859,7.745,974.375,-0.038,1.113
1.562000,583693,1000.00,12,0,1,1012.207,-10.556,7.885,973.726,-0.927,1.120
1.563000,583694,1000.00,12,0,1,1011.246,-1.966,7.639,974.687,0.173,1.117
1.564000,583695,1000.00,12,0,1,1007.691,-7.590,7.671,975.528,1.021,1.125
1.565000,583696,1000.00,12,0,1,1021.935,7.994,6.825,976.464,1.672,1.110
1.566000,583697,1000.00,12,0,1,1027.244,15.162,6.157,974.038,-0.165,1.107
1.567000,583698,1000.00,12,0,1,994.552,-11.440,6.358,975.984,0.304,1.100
1.568000,583699,1000.00,12,0,1,964.286,-40.248,8.516,975.191,0.954,1.107
1.569000,583700,1000.00,12,0,1,963.613,-35.707,9.895,972.981,-2.113,1.141
1.570000,583701,1000.00,12,0,1,1005.457,4.118,9.899,973.198,-1.535,1.130
1.571000,583702,1000.00,12,0,1,1016.627,23.332,10.434,974.807,-0.073,1.124
1.572000,583703,1000.00,12,0,1,1011.655,10.365,10.528,974.807,0.256,1.107
1.573000,583704,1000.00,12,0,1,1013.384,10.312,10.590,975.816,0.676,1.110
1.574000,583705,1000.00,12,0,1,1015.906,8.961,10.646,976.392,1.326,1.076
1.575000,583706,1000.00,12,0,1,1020.254,9.319,10.720,974.903,-0.122,1.068
1.576000,583707,1000.00,12,0,1,1029.022,14.110,10.903,974.807,-0.722,1.073
1.577000,583708,1000.00,12,0,1,1026.499,9.651,10.988,974.783,-0.247,1.071
1.578000,583709,1000.00,12,0,1,1030.151,7.948,10.976,976.272,0.554,1.074
1.579000,583710,1000.00,12,0,1,1049.055,21.676,11.256,975.648,0.746,1.078
1.580000,583711,1000.00,12,0,1,1014.321,-3.115,11.227,976.176,0.281,1.077
1.581000,583712,1000.00,12,0,1,999.020,-28.523,11.929,975.215,0.251,1.076
1.582000,583713,1000.00,12,0,1,1009.949,-8.346,11.958,974.423,-1.116,1.076
1.583000,583714,1000.00,12,0,1,1008.364,-7.234,11.879,973.726,-1.123,1.086
1.584000,583715,1000.00,12,0,1,1001.998,-9.361,11.865,973.966,-1.038,1.086
1.585000,583716,1000.00,12,0,1,999.596,-8.670,11.904,975.528,0.599,1.089
1.586000,583717,1000.00,12,0,1,1006.682,-0.448,11.901,975.023,0.536,1.088
1.587000,583718,1000.00,12,0,1,1016.699,11.304,12.001,974.951,-0.113,1.088
1.588000,583719,1000.00,12,0,1,1014.441,9.357,12.071,976.008,1.052,1.097
1.589000,583720,1000.00,12,0,1,1015.930,7.765,12.119,974.158,-0.504,1.086
1.590000,583721,1000.00,12,0,1,1019.702,9.813,12.192,974.951,-0.518,1.088
1.591000,583722,1000.00,12,0,1,1021.431,8.547,12.251,975.552,0.647,1.092
1.592000,583723,1000.00,12,0,1,1025.058,7.920,12.283,974.182,-0.861,1.098
1.593000,583724,1000.00,12,0,1,1025.034,5.495,12.294,973.390,-1.608,1.110
1.594000,583725,1000.00,12,0,1,1022.224,-1.014,12.257,972.477,-2.062,1.139
1.595000,583726,1000.00,12,0,1,1023.641,-2.322,12.219,975.840,0.448,1.107
1.596000,583727,1000.00,12,0,1,1027.220,-0.933,12.212,973.101,-0.288,1.098
1.597000,583728,1000.00,12,0,1,1023.977,-4.131,12.223,973.990,-1.424,1.042
1.598000,583729,1000.00,12,0,1,1028.853,-2.674,12.223,973.822,0.414,0.952
1.599000,583730,1000.00,12,0,1,1035.579,4.851,12.216,972.741,-1.537,0.975
1.600000,583731,1000.00,12,0,1,1035.027,3.682,12.209,972.573,-0.867,0.978
1.601000,583732,1000.00,12,0,1,1029.382,-1.142,12.209,975.263,1.186,0.992
1.602000,583733,1000.00,12,0,1,1025.178,-4.563,12.193,976.705,3.050,1.065
1.603000,583734,1000.00,12,0,1,1016.819,-9.105,12.184,977.906,3.411,1.151
1.604000,583735,1000.00,12,0,1,1017.059,-8.199,12.238,976.152,1.898,1.169
1.605000,583736,1000.00,12,0,1,1018.501,-2.560,12.242,977.017,1.504,1.187
1.606000,583737,1000.00,12,0,1,1019.533,-0.738,12.201,976.128,1.262,1.149
1.607000,583738,1000.00,12,0,1,1022.896,3.389,12.184,973.198,-1.855,1.178
1.608000,583739,1000.00,12,0,1,1025.154,5.538,12.196,974.062,-1.471,1.195
1.609000,583740,1000.00,12,0,1,1018.140,-0.835,12.153,977.017,1.678,1.218
1.610000,583741,1000.00,12,0,1,1012.928,-7.525,12.083,974.375,-0.309,1.219
1.611000,583742,1000.00,12,0,1,1014.657,-6.404,12.078,974.182,-1.504,1.237
1.612000,583743,1000.00,12,0,1,1021.695,-0.982,11.987,974.375,-0.497,1.232
1.613000,583744,1000.00,12,0,1,1028.901,4.108,11.998,972.837,-1.962,1.263
1.614000,583745,1000.00,12,0,1,1028.421,2.211,11.953,974.302,-0.879,1.261
1.615000,583746,1000.00,12,0,1,1026.764,-2.562,11.905,975.455,0.853,1.244
1.616000,583747,1000.00,12,0,1,1028.541,-2.191,11.715,974.759,-0.077,1.244
1.617000,583748,1000.00,12,0,1,1028.998,-2.500,11.608,975.119,0.153,1.243
1.618000,583749,1000.00,12,0,1,1028.901,-2.995,10.126,976.056,0.921,1.243
1.619000,583750,1000.00,12,0,1,1027.917,-3.315,8.789,976.392,1.198,1.218
1.620000,583751,1000.00,12,0,1,1027.797,-2.707,8.778,974.951,-0.139,1.199
1.621000,583752,1000.00,12,0,1,1023.449,-4.165,8.156,974.110,-1.157,1.210
1.622000,583753,1000.00,12,0,1,1027.748,-0.343,8.023,974.086,-0.911,1.216
1.623000,583754,1000.00,12,0,1,1036.804,10.606,8.031,973.606,-1.090,1.222
1.624000,583755,1000.00,12,0,1,1029.598,6.364,7.981,973.173,-1.298,1.222
1.625000,583756,1000.00,12,0,1,1023.593,-0.806,7.872,974.110,-0.329,1.222
1.626000,583757,1000.00,12,0,1,1028.589,4.895,7.646,973.510,-0.316,1.219
1.627000,583758,1000.00,12,0,1,1014.969,-3.771,7.542,971.732,-1.899,1.248
1.628000,583759,1000.00,12,0,1,1013.288,-9.209,7.571,973.774,-0.261,1.246
1.629000,583760,1000.00,12,0,1,1019.702,0.521,6.923,975.047,1.673,1.264
1.630000,583761,1000.00,12,0,1,1018.861,-1.028,6.911,974.951,1.098,1.273
