# FW/GUI: v9.6.1-multi17-dual (PyQt5)
# StartTime: 2026-04-03 16:21:04
# Slot: 13
# DeviceID: 13
# Label: EMG13
# IP: 192.168.137.206
# TCP: 3333
# DeviceFW: EMG_FW_v9.6_MULTI17_DUALCH_RUNTIMECFG_CHEN
# IMU1_RefTime = format(imu_ms) = relative since power-on Time (IMU acquisition time)
IMU1_RefTime,ax_g,ay_g,az_g,gx_dps,gy_dps,gz_dps,mx_uT,my_uT,mz_uT,temp_C,qw,qx,qy,qz
'00:12:58.404,0.059082,0.029297,1.002930,0.304878,1.341463,-0.548781,-4.843750,17.475000,19.381250,30.057,0.56770777,-0.00983662,-0.02893854,-0.82266256
'00:12:58.414,0.059082,0.028809,1.004395,0.365854,1.341463,-0.609756,-4.843750,17.475000,19.381250,30.103,0.56770664,-0.00983544,-0.02893425,-0.82266351
'00:12:58.424,0.059570,0.029785,1.003418,0.365854,1.402439,-0.609756,-4.875000,17.500000,19.381250,30.118,0.56770387,-0.00982743,-0.02893303,-0.82266556
'00:12:58.434,0.059082,0.029785,1.003906,0.243902,1.280488,-0.548781,-4.875000,17.500000,19.381250,30.072,0.56770511,-0.00983166,-0.02892701,-0.82266486
'00:12:58.444,0.060059,0.030762,1.003906,0.365854,1.402439,-0.548781,-5.025000,17.800001,19.562500,30.072,0.56770263,-0.00981831,-0.02892834,-0.82266668
'00:12:58.454,0.059570,0.028809,1.003906,0.365854,1.280488,-0.609756,-5.025000,17.800001,19.562500,30.042,0.56769593,-0.00981865,-0.02892298,-0.82267149
'00:12:58.464,0.060059,0.029785,1.003418,0.365854,1.341463,-0.548781,-4.956250,17.731251,19.481251,30.057,0.56769695,-0.00981672,-0.02892595,-0.82267071
'00:12:58.474,0.060059,0.030273,1.002930,0.365854,1.341463,-0.548781,-4.956250,17.731251,19.481251,30.027,0.56769785,-0.00981301,-0.02893182,-0.82266993
'00:12:58.484,0.059570,0.028809,1.002930,0.304878,1.341463,-0.609756,-4.943750,17.700001,19.425001,30.118,0.56769500,-0.00981539,-0.02892351,-0.82267216
'00:12:58.494,0.059082,0.029785,1.003906,0.304878,1.341463,-0.609756,-4.943750,17.700001,19.425001,30.027,0.56769198,-0.00981107,-0.02891858,-0.82267446
'00:12:58.504,0.058594,0.030273,1.004395,0.304878,1.341463,-0.548781,-4.818750,17.562500,19.318750,30.088,0.56769912,-0.00980766,-0.02892100,-0.82266949
'00:12:58.517,0.059570,0.030762,1.003418,0.304878,1.341463,-0.548781,-4.818750,17.562500,19.318750,30.088,0.56770818,-0.00980805,-0.02893305,-0.82266281
'00:12:58.524,0.059082,0.029297,1.003418,0.365854,1.341463,-0.548781,-4.831250,17.518751,19.312500,30.118,0.56771196,-0.00980728,-0.02893390,-0.82266018
'00:12:58.534,0.059570,0.029297,1.003906,0.304878,1.280488,-0.609756,-4.831250,17.518751,19.312500,30.072,0.56771276,-0.00981601,-0.02893547,-0.82265947
'00:12:58.544,0.059570,0.028809,1.004395,0.365854,1.341463,-0.548781,-4.787500,17.550001,19.306250,30.057,0.56772207,-0.00982232,-0.02893954,-0.82265283
'00:12:58.554,0.059570,0.029297,1.003906,0.365854,1.341463,-0.548781,-4.787500,17.550001,19.306250,30.072,0.56773122,-0.00982667,-0.02894646,-0.82264622
'00:12:58.564,0.059082,0.028320,1.003906,0.365854,1.341463,-0.548781,-5.081250,17.843750,19.568750,30.042,0.56772624,-0.00981908,-0.02892989,-0.82265033
'00:12:58.574,0.060059,0.028809,1.003906,0.304878,1.341463,-0.548781,-5.081250,17.843750,19.568750,30.057,0.56772114,-0.00981811,-0.02891569,-0.82265436
'00:12:58.584,0.061523,0.029785,1.003418,0.304878,1.280488,-0.609756,-4.912500,17.631250,19.431250,30.042,0.56771829,-0.00983254,-0.02892408,-0.82265586
'00:12:58.594,0.060059,0.029785,1.004395,0.365854,1.341463,-0.548781,-4.912500,17.631250,19.431250,30.072,0.56772005,-0.00983125,-0.02892762,-0.82265453
'00:12:58.604,0.060059,0.029297,1.003418,0.304878,1.341463,-0.548781,-4.868750,17.493750,19.325001,30.072,0.56772204,-0.00983557,-0.02892466,-0.82265322
'00:12:58.614,0.059570,0.029785,1.002930,0.365854,1.341463,-0.609756,-4.868750,17.493750,19.325001,30.118,0.56771960,-0.00983214,-0.02892724,-0.82265485
'00:12:58.625,0.060059,0.028809,1.004395,0.365854,1.341463,-0.548781,-4.818750,17.450001,19.287500,30.042,0.56772481,-0.00983805,-0.02892856,-0.82265113
'00:12:58.634,0.060059,0.029785,1.003906,0.304878,1.280488,-0.609756,-4.837500,17.450001,19.306250,30.057,0.56772349,-0.00984495,-0.02893222,-0.82265183
'00:12:58.644,0.059082,0.030273,1.003418,0.365854,1.341463,-0.609756,-4.837500,17.450001,19.306250,30.057,0.56772214,-0.00983788,-0.02893676,-0.82265269
'00:12:58.654,0.060547,0.029785,1.003906,0.304878,1.280488,-0.609756,-5.237500,18.118750,19.737501,30.072,0.56770769,-0.00983497,-0.02892745,-0.82266302
'00:12:58.664,0.059570,0.029785,1.003418,0.365854,1.341463,-0.609756,-5.237500,18.118750,19.737501,30.103,0.56769353,-0.00981962,-0.02891622,-0.82267338
'00:12:58.675,0.060059,0.028809,1.004883,0.304878,1.341463,-0.548781,-5.025000,17.775000,19.531250,30.042,0.56769062,-0.00982094,-0.02890345,-0.82267582
'00:12:58.684,0.059570,0.028809,1.003906,0.365854,1.341463,-0.548781,-5.025000,17.775000,19.531250,30.088,0.56768831,-0.00981709,-0.02889578,-0.82267772
'00:12:58.694,0.059570,0.028809,1.003906,0.365854,1.341463,-0.548781,-4.862500,17.543751,19.400000,30.088,0.56769197,-0.00981917,-0.02889452,-0.82267522
'00:12:58.704,0.059570,0.030273,1.004883,0.365854,1.280488,-0.548781,-4.862500,17.543751,19.400000,30.027,0.56769516,-0.00981961,-0.02890420,-0.82267267
'00:12:58.714,0.060059,0.029785,1.003906,0.304878,1.341463,-0.548781,-4.900000,17.662500,19.393751,30.088,0.56769876,-0.00982282,-0.02890580,-0.82267009
'00:12:58.724,0.061035,0.028809,1.003418,0.365854,1.280488,-0.609756,-4.900000,17.662500,19.393751,30.057,0.56769803,-0.00983643,-0.02891323,-0.82267017
'00:12:58.734,0.060059,0.029785,1.003418,0.365854,1.341463,-0.548781,-4.818750,17.537500,19.381250,30.057,0.56770434,-0.00983969,-0.02892257,-0.82266545
'00:12:58.744,0.060547,0.029297,1.003906,0.304878,1.341463,-0.609756,-4.818750,17.537500,19.381250,30.072,0.56770627,-0.00985025,-0.02892632,-0.82266386
'00:12:58.754,0.059082,0.029785,1.003906,0.304878,1.402439,-0.609756,-4.818750,17.512501,19.306250,30.027,0.56770800,-0.00984566,-0.02892365,-0.82266282
'00:12:58.764,0.060547,0.030273,1.003418,0.243902,1.341463,-0.609756,-4.818750,17.512501,19.306250,30.057,0.56770936,-0.00985482,-0.02892829,-0.82266161
'00:12:58.774,0.059082,0.030273,1.003418,0.304878,1.341463,-0.609756,-5.056250,17.806250,19.587500,30.088,0.56770031,-0.00984330,-0.02891970,-0.82266829
'00:12:58.784,0.061035,0.029785,1.004395,0.304878,1.280488,-0.548781,-5.056250,17.806250,19.587500,30.088,0.56769561,-0.00984889,-0.02891860,-0.82267151
'00:12:58.794,0.059082,0.030273,1.003418,0.304878,1.280488,-0.548781,-4.881250,17.593750,19.375000,30.057,0.56769864,-0.00984894,-0.02892197,-0.82266929
'00:12:58.804,0.060059,0.029297,1.003906,0.365854,1.341463,-0.548781,-4.881250,17.593750,19.375000,30.103,0.56770204,-0.00985070,-0.02892467,-0.82266683
'00:12:58.814,0.061035,0.029785,1.003418,0.365854,1.341463,-0.548781,-4.862500,17.506250,19.343750,30.088,0.56770462,-0.00985586,-0.02893343,-0.82266469
'00:12:58.824,0.059082,0.029297,1.004395,0.304878,1.341463,-0.548781,-4.862500,17.506250,19.343750,30.103,0.56770729,-0.00985484,-0.02892698,-0.82266308
'00:12:58.834,0.059082,0.029297,1.002441,0.365854,1.341463,-0.609756,-4.825000,17.450001,19.275000,30.088,0.56770719,-0.00985241,-0.02892754,-0.82266316
'00:12:58.844,0.059570,0.029785,1.002930,0.304878,1.341463,-0.548781,-4.825000,17.450001,19.275000,30.057,0.56771130,-0.00985388,-0.02892815,-0.82266029
'00:12:58.854,0.059570,0.030273,1.004883,0.304878,1.402439,-0.609756,-4.806250,17.543751,19.356251,30.057,0.56771429,-0.00985114,-0.02893133,-0.82265814
'00:12:58.864,0.060059,0.029785,1.003906,0.304878,1.280488,-0.548781,-4.806250,17.543751,19.356251,30.088,0.56772142,-0.00986216,-0.02893993,-0.82265279
'00:12:58.874,0.059082,0.030273,1.003906,0.304878,1.341463,-0.548781,-5.175000,18.081251,19.706251,30.072,0.56771473,-0.00984784,-0.02892838,-0.82265798
'00:12:58.884,0.059570,0.030273,1.003418,0.365854,1.341463,-0.609756,-5.125000,17.981251,19.675001,30.042,0.56770488,-0.00983473,-0.02892488,-0.82266506
'00:12:58.894,0.058594,0.029297,1.004395,0.365854,1.341463,-0.609756,-5.125000,17.981251,19.675001,30.057,0.56769532,-0.00982008,-0.02891199,-0.82267228
'00:12:58.904,0.060059,0.029297,1.002930,0.365854,1.341463,-0.548781,-4.806250,17.468750,19.356251,30.088,0.56770111,-0.00982539,-0.02891817,-0.82266801
'00:12:58.914,0.059082,0.029785,1.003418,0.304878,1.341463,-0.548781,-4.806250,17.468750,19.356251,30.103,0.56770674,-0.00982613,-0.02891865,-0.82266410
'00:12:58.924,0.059082,0.030273,1.003418,0.365854,1.402439,-0.548781,-4.831250,17.556250,19.418751,30.133,0.56771254,-0.00981737,-0.02892325,-0.82266004
'00:12:58.934,0.060059,0.030273,1.003418,0.365854,1.341463,-0.548781,-4.831250,17.556250,19.418751,30.027,0.56771813,-0.00981853,-0.02893457,-0.82265577
'00:12:58.944,0.059570,0.030273,1.003906,0.304878,1.341463,-0.548781,-4.831250,17.506250,19.293751,30.088,0.56772299,-0.00981879,-0.02893830,-0.82265228
'00:12:58.954,0.059570,0.029297,1.003906,0.304878,1.341463,-0.548781,-4.831250,17.506250,19.293751,30.088,0.56772803,-0.00982286,-0.02893641,-0.82264882
'00:12:58.964,0.059570,0.028809,1.004395,0.304878,1.280488,-0.548781,-5.175000,17.975000,19.700001,30.088,0.56771909,-0.00982015,-0.02891897,-0.82265564
'00:12:58.974,0.061035,0.029297,1.002441,0.304878,1.280488,-0.548781,-5.175000,17.975000,19.700001,30.042,0.56771006,-0.00982402,-0.02891085,-0.82266210
'00:12:58.984,0.060547,0.029785,1.004883,0.365854,1.341463,-0.609756,-4.993750,17.781250,19.556250,30.118,0.56770499,-0.00982284,-0.02891346,-0.82266553
'00:12:58.994,0.059082,0.029297,1.002930,0.365854,1.341463,-0.548781,-4.993750,17.781250,19.556250,30.118,0.56770443,-0.00981612,-0.02890841,-0.82266617
'00:12:59.004,0.059570,0.029785,1.003418,0.365854,1.402439,-0.609756,-4.806250,17.518751,19.400000,30.042,0.56770691,-0.00981301,-0.02891348,-0.82266432
'00:12:59.014,0.060547,0.028809,1.003418,0.304878,1.341463,-0.548781,-4.806250,17.518751,19.400000,30.072,0.56771372,-0.00982677,-0.02891526,-0.82265939
'00:12:59.024,0.059082,0.029297,1.005371,0.365854,1.280488,-0.609756,-4.868750,17.537500,19.362501,30.027,0.56771222,-0.00982730,-0.02891641,-0.82266038
'00:12:59.034,0.060059,0.028809,1.003418,0.365854,1.341463,-0.548781,-4.868750,17.537500,19.362501,30.012,0.56771530,-0.00983133,-0.02891625,-0.82265821
'00:12:59.044,0.059570,0.030273,1.004395,0.365854,1.280488,-0.548781,-4.818750,17.550001,19.318750,30.072,0.56772189,-0.00983414,-0.02892945,-0.82265316
'00:12:59.054,0.059570,0.029297,1.003418,0.365854,1.341463,-0.548781,-4.818750,17.550001,19.318750,30.118,0.56772879,-0.00983653,-0.02893423,-0.82264821
'00:12:59.064,0.060547,0.029297,1.004395,0.304878,1.341463,-0.609756,-4.812500,17.550001,19.287500,30.057,0.56773176,-0.00984720,-0.02893852,-0.82264588
'00:12:59.074,0.060547,0.029785,1.004883,0.365854,1.341463,-0.609756,-4.812500,17.550001,19.287500,30.088,0.56773465,-0.00985264,-0.02894966,-0.82264343
'00:12:59.085,0.058594,0.029785,1.003906,0.304878,1.341463,-0.609756,-5.168750,17.962500,19.656250,30.042,0.56772019,-0.00983440,-0.02892930,-0.82265434
'00:12:59.094,0.059570,0.029785,1.003906,0.365854,1.341463,-0.609756,-5.168750,17.962500,19.656250,30.088,0.56770848,-0.00982184,-0.02892027,-0.82266289
'00:12:59.104,0.059082,0.029785,1.003418,0.365854,1.402439,-0.548781,-4.900000,17.556250,19.375000,30.072,0.56770979,-0.00981075,-0.02891682,-0.82266224
'00:12:59.114,0.059570,0.029297,1.003906,0.365854,1.341463,-0.548781,-4.900000,17.556250,19.375000,30.088,0.56771106,-0.00980871,-0.02891538,-0.82266144
'00:12:59.124,0.059082,0.029785,1.003906,0.365854,1.341463,-0.548781,-4.793750,17.412500,19.331251,30.057,0.56771638,-0.00980648,-0.02891975,-0.82265764
'00:12:59.134,0.059570,0.029297,1.004395,0.365854,1.341463,-0.609756,-4.793750,17.412500,19.331251,30.103,0.56771741,-0.00980866,-0.02892299,-0.82265679
'00:12:59.144,0.059570,0.029785,1.001953,0.304878,1.341463,-0.548781,-4.787500,17.468750,19.312500,30.057,0.56772448,-0.00981368,-0.02892743,-0.82265169
'00:12:59.154,0.060059,0.028809,1.002930,0.365854,1.341463,-0.548781,-4.768750,17.462500,19.306250,30.088,0.56773296,-0.00982301,-0.02893342,-0.82264552
'00:12:59.164,0.061035,0.029297,1.002930,0.304878,1.280488,-0.609756,-4.768750,17.462500,19.306250,30.057,0.56773665,-0.00984290,-0.02894452,-0.82264234
'00:12:59.174,0.059570,0.029785,1.002441,0.426829,1.341463,-0.609756,-5.062500,17.893751,19.568750,30.042,0.56772942,-0.00983099,-0.02894558,-0.82264744
'00:12:59.184,0.059570,0.030273,1.003418,0.304878,1.341463,-0.548781,-5.062500,17.893751,19.568750,30.088,0.56772640,-0.00982338,-0.02894019,-0.82264981
'00:12:59.194,0.060547,0.028320,1.003906,0.365854,1.341463,-0.548781,-5.025000,17.762501,19.518751,30.103,0.56772348,-0.00982593,-0.02893169,-0.82265209
'00:12:59.204,0.060059,0.028809,1.003418,0.365854,1.402439,-0.609756,-5.025000,17.762501,19.518751,30.118,0.56771628,-0.00981948,-0.02892142,-0.82265750
'00:12:59.214,0.059570,0.030273,1.001953,0.365854,1.341463,-0.609756,-4.825000,17.531250,19.375000,30.027,0.56771752,-0.00981796,-0.02893149,-0.82265631
'00:12:59.224,0.060547,0.028809,1.004395,0.304878,1.341463,-0.548781,-4.825000,17.531250,19.375000,30.027,0.56772335,-0.00983027,-0.02893143,-0.82265214
'00:12:59.234,0.061035,0.030273,1.003418,0.304878,1.341463,-0.548781,-4.806250,17.518751,19.400000,30.103,0.56772970,-0.00984060,-0.02894307,-0.82264722
'00:12:59.244,0.060059,0.029297,1.003418,0.365854,1.341463,-0.548781,-4.806250,17.518751,19.400000,30.088,0.56773630,-0.00984616,-0.02894951,-0.82264237
'00:12:59.254,0.059570,0.029297,1.003906,0.304878,1.341463,-0.548781,-4.856250,17.512501,19.331251,30.148,0.56773948,-0.00984841,-0.02894545,-0.82264030
'00:12:59.264,0.060059,0.029297,1.004395,0.304878,1.341463,-0.548781,-4.856250,17.512501,19.331251,30.057,0.56774263,-0.00985322,-0.02894314,-0.82263814
'00:12:59.274,0.059570,0.029297,1.004395,0.304878,1.341463,-0.548781,-5.081250,17.900000,19.593750,30.088,0.56773853,-0.00984787,-0.02893058,-0.82264148
'00:12:59.284,0.059082,0.027832,1.004883,0.304878,1.280488,-0.548781,-5.081250,17.900000,19.593750,30.088,0.56773464,-0.00984986,-0.02891107,-0.82264482
'00:12:59.294,0.058105,0.030273,1.004395,0.365854,1.280488,-0.548781,-5.100000,17.856251,19.537500,30.118,0.56772831,-0.00983243,-0.02890402,-0.82264965
'00:12:59.304,0.058594,0.029785,1.003418,0.365854,1.341463,-0.548781,-5.100000,17.856251,19.537500,30.057,0.56772227,-0.00981565,-0.02889364,-0.82265438
'00:12:59.314,0.060059,0.030273,1.003906,0.243902,1.341463,-0.548781,-4.768750,17.487501,19.318750,30.088,0.56773096,-0.00982543,-0.02889999,-0.82264805
'00:12:59.324,0.059570,0.029785,1.003418,0.365854,1.402439,-0.609756,-4.768750,17.487501,19.318750,30.057,0.56773559,-0.00982378,-0.02890748,-0.82264461
'00:12:59.334,0.059570,0.029297,1.003418,0.365854,1.341463,-0.548781,-4.793750,17.500000,19.350000,30.057,0.56774293,-0.00982730,-0.02891327,-0.82263930
'00:12:59.344,0.058105,0.029785,1.004395,0.304878,1.280488,-0.548781,-4.793750,17.500000,19.350000,30.057,0.56774999,-0.00982781,-0.02891428,-0.82263439
'00:12:59.354,0.060059,0.029297,1.003906,0.365854,1.341463,-0.548781,-4.731250,17.468750,19.343750,30.118,0.56776093,-0.00983731,-0.02892581,-0.82262632
'00:12:59.364,0.060059,0.029785,1.003906,0.365854,1.341463,-0.609756,-4.731250,17.468750,19.343750,30.088,0.56776732,-0.00984453,-0.02893996,-0.82262132
'00:12:59.374,0.060059,0.029297,1.002930,0.365854,1.402439,-0.609756,-5.000000,17.812500,19.575001,30.118,0.56776246,-0.00983820,-0.02893525,-0.82262491
'00:12:59.384,0.061035,0.029297,1.002930,0.365854,1.341463,-0.548781,-5.000000,17.812500,19.575001,30.072,0.56776183,-0.00984187,-0.02893734,-0.82262523
'00:12:59.394,0.059570,0.029785,1.003906,0.304878,1.341463,-0.609756,-5.118750,17.993750,19.725000,30.103,0.56775238,-0.00983415,-0.02892690,-0.82263221
'00:12:59.404,0.060547,0.029785,1.002930,0.426829,1.280488,-0.548781,-5.118750,17.993750,19.725000,30.057,0.56774729,-0.00983061,-0.02893248,-0.82263557
'00:12:59.414,0.060059,0.029785,1.003418,0.365854,1.341463,-0.609756,-4.893750,17.562500,19.425001,30.088,0.56774425,-0.00982947,-0.02893602,-0.82263756
'00:12:59.424,0.060059,0.029785,1.003418,0.365854,1.341463,-0.609756,-4.775000,17.512501,19.381250,30.088,0.56774848,-0.00983490,-0.02894775,-0.82263416
'00:12:59.434,0.058594,0.030762,1.003418,0.304878,1.341463,-0.609756,-4.775000,17.512501,19.381250,30.118,0.56775247,-0.00983117,-0.02895478,-0.82263121
'00:12:59.444,0.060059,0.030273,1.002930,0.304878,1.341463,-0.548781,-4.812500,17.475000,19.381250,30.012,0.56775732,-0.00983499,-0.02896084,-0.82262760
'00:12:59.454,0.060059,0.028809,1.004395,0.365854,1.280488,-0.609756,-4.812500,17.475000,19.381250,30.088,0.56775799,-0.00984540,-0.02896527,-0.82262686
'00:12:59.464,0.059082,0.028320,1.003906,0.365854,1.402439,-0.548781,-4.737500,17.462500,19.275000,30.088,0.56776889,-0.00984788,-0.02896302,-0.82261939
'00:12:59.474,0.059570,0.029785,1.003418,0.365854,1.341463,-0.609756,-4.737500,17.462500,19.275000,30.072,0.56777489,-0.00985153,-0.02897430,-0.82261480
'00:12:59.484,0.058594,0.029785,1.003906,0.426829,1.341463,-0.609756,-5.012500,17.812500,19.575001,30.057,0.56776893,-0.00983548,-0.02897218,-0.82261918
'00:12:59.494,0.060547,0.029297,1.003906,0.304878,1.280488,-0.548781,-5.012500,17.812500,19.575001,30.057,0.56776719,-0.00984287,-0.02896911,-0.82262040
'00:12:59.504,0.060547,0.029785,1.003906,0.304878,1.280488,-0.548781,-5.043750,17.875000,19.562500,30.057,0.56776476,-0.00984724,-0.02896799,-0.82262207
'00:12:59.514,0.059570,0.029785,1.004395,0.365854,1.341463,-0.548781,-5.043750,17.875000,19.562500,30.088,0.56776256,-0.00983873,-0.02896434,-0.82262381
'00:12:59.525,0.060059,0.029297,1.004395,0.243902,1.280488,-0.548781,-4.806250,17.512501,19.437500,30.027,0.56776905,-0.00985598,-0.02896391,-0.82261914
'00:12:59.534,0.059082,0.029297,1.003906,0.365854,1.341463,-0.548781,-4.806250,17.512501,19.437500,30.088,0.56777458,-0.00985566,-0.02896542,-0.82261528
'00:12:59.545,0.059082,0.029785,1.003418,0.304878,1.341463,-0.548781,-4.825000,17.543751,19.375000,30.088,0.56778081,-0.00985558,-0.02896510,-0.82261099
'00:12:59.554,0.059570,0.030273,1.002441,0.365854,1.341463,-0.609756,-4.825000,17.543751,19.375000,30.088,0.56778188,-0.00985353,-0.02897336,-0.82260998
'00:12:59.564,0.060547,0.028809,1.002930,0.365854,1.341463,-0.548781,-4.787500,17.493750,19.293751,30.072,0.56778948,-0.00986392,-0.02897952,-0.82260440
'00:12:59.574,0.060059,0.029297,1.003418,0.365854,1.341463,-0.548781,-4.787500,17.493750,19.293751,30.027,0.56779695,-0.00986938,-0.02898624,-0.82259894
'00:12:59.584,0.058594,0.030762,1.003418,0.426829,1.341463,-0.609756,-5.131250,17.981251,19.675001,30.088,0.56778626,-0.00984504,-0.02898442,-0.82260668
'00:12:59.596,0.059082,0.028809,1.002930,0.304878,1.341463,-0.609756,-5.131250,17.981251,19.675001,30.103,0.56777386,-0.00983589,-0.02896130,-0.82261616
'00:12:59.605,0.058594,0.030273,1.003418,0.365854,1.341463,-0.548781,-5.125000,18.056250,19.643751,30.088,0.56777044,-0.00982028,-0.02895584,-0.82261890
'00:12:59.614,0.060059,0.030273,1.003418,0.426829,1.341463,-0.548781,-5.125000,18.056250,19.643751,30.118,0.56776707,-0.00980933,-0.02895941,-0.82262122
'00:12:59.624,0.061035,0.029297,1.004395,0.304878,1.280488,-0.548781,-4.781250,17.475000,19.256250,30.118,0.56777466,-0.00982831,-0.02896878,-0.82261543
'00:12:59.634,0.060059,0.030273,1.003906,0.304878,1.341463,-0.548781,-4.781250,17.475000,19.256250,30.088,0.56778215,-0.00983346,-0.02897689,-0.82260992
'00:12:59.644,0.061035,0.030273,1.002930,0.304878,1.280488,-0.609756,-4.756250,17.406250,19.325001,30.042,0.56778483,-0.00984919,-0.02899228,-0.82260733
'00:12:59.654,0.059570,0.029785,1.003906,0.365854,1.280488,-0.548781,-4.756250,17.406250,19.325001,30.057,0.56779205,-0.00985533,-0.02900281,-0.82260191
'00:12:59.664,0.059570,0.030273,1.003906,0.426829,1.341463,-0.609756,-4.787500,17.400000,19.256250,30.027,0.56779289,-0.00984962,-0.02901486,-0.82260097
'00:12:59.674,0.059570,0.029297,1.003906,0.304878,1.280488,-0.548781,-4.987500,17.812500,19.562500,30.088,0.56779274,-0.00985276,-0.02900918,-0.82260123
'00:12:59.684,0.061035,0.030273,1.002930,0.304878,1.341463,-0.548781,-4.987500,17.812500,19.562500,30.057,0.56779250,-0.00985593,-0.02901203,-0.82260127
'00:12:59.694,0.060059,0.028809,1.003906,0.365854,1.280488,-0.548781,-5.118750,17.862501,19.656250,30.088,0.56778446,-0.00985374,-0.02900101,-0.82260723
'00:12:59.704,0.060547,0.029785,1.004395,0.365854,1.341463,-0.609756,-5.118750,17.862501,19.656250,30.088,0.56777204,-0.00984589,-0.02899434,-0.82261613
'00:12:59.714,0.061035,0.029785,1.003418,0.365854,1.341463,-0.548781,-4.793750,17.537500,19.350000,30.057,0.56777979,-0.00985552,-0.02900788,-0.82261019
'00:12:59.724,0.060547,0.030273,1.002930,0.304878,1.280488,-0.548781,-4.793750,17.537500,19.350000,30.042,0.56778717,-0.00986782,-0.02902090,-0.82260449
'00:12:59.734,0.060059,0.029785,1.003906,0.304878,1.341463,-0.609756,-4.906250,17.625000,19.425001,30.088,0.56778435,-0.00986887,-0.02901878,-0.82260649
'00:12:59.744,0.059570,0.029297,1.002441,0.304878,1.341463,-0.548781,-4.906250,17.625000,19.425001,30.057,0.56778603,-0.00986960,-0.02901260,-0.82260555
'00:12:59.754,0.060547,0.029297,1.003906,0.304878,1.280488,-0.609756,-4.793750,17.481251,19.343750,30.088,0.56778789,-0.00988436,-0.02901825,-0.82260389
'00:12:59.764,0.060547,0.030273,1.003906,0.304878,1.341463,-0.548781,-4.793750,17.481251,19.343750,30.057,0.56779402,-0.00989081,-0.02902627,-0.82259929
'00:12:59.774,0.059570,0.029297,1.003906,0.304878,1.341463,-0.548781,-4.893750,17.656250,19.375000,30.057,0.56779744,-0.00989191,-0.02902118,-0.82259710
'00:12:59.784,0.059570,0.029785,1.002930,0.304878,1.341463,-0.609756,-4.893750,17.656250,19.375000,30.088,0.56779637,-0.00989114,-0.02901935,-0.82259791
'00:12:59.794,0.060547,0.029297,1.004395,0.365854,1.341463,-0.548781,-5.262500,18.168751,19.781250,30.072,0.56778549,-0.00988100,-0.02900610,-0.82260601
'00:12:59.805,0.060059,0.029297,1.003906,0.365854,1.402439,-0.609756,-5.262500,18.168751,19.781250,30.072,0.56776897,-0.00986233,-0.02898675,-0.82261832
'00:12:59.814,0.061035,0.028809,1.003906,0.365854,1.402439,-0.548781,-5.012500,17.856251,19.600000,30.072,0.56776856,-0.00986271,-0.02898234,-0.82261875
'00:12:59.824,0.059570,0.029785,1.003906,0.243902,1.280488,-0.548781,-5.012500,17.856251,19.600000,30.072,0.56776756,-0.00986612,-0.02897468,-0.82261967
'00:12:59.834,0.059082,0.030273,1.003418,0.304878,1.341463,-0.548781,-4.725000,17.537500,19.381250,30.057,0.56777997,-0.00987011,-0.02898478,-0.82261070
'00:12:59.845,0.060547,0.029297,1.003418,0.304878,1.341463,-0.609756,-4.725000,17.537500,19.381250,30.057,0.56778888,-0.00988747,-0.02899580,-0.82260395
'00:12:59.854,0.058594,0.029297,1.004883,0.365854,1.341463,-0.609756,-4.806250,17.493750,19.325001,30.103,0.56779037,-0.00988332,-0.02899459,-0.82260302
'00:12:59.864,0.060059,0.029297,1.003418,0.304878,1.341463,-0.609756,-4.806250,17.493750,19.325001,30.088,0.56779190,-0.00989025,-0.02899515,-0.82260186
'00:12:59.874,0.060059,0.030273,1.002930,0.304878,1.341463,-0.609756,-4.743750,17.437500,19.306250,30.088,0.56779632,-0.00989639,-0.02900509,-0.82259839
'00:12:59.884,0.060547,0.030273,1.004395,0.365854,1.341463,-0.548781,-4.743750,17.437500,19.306250,30.072,0.56780512,-0.00990195,-0.02902046,-0.82259170
'00:12:59.894,0.059570,0.029297,1.002930,0.365854,1.341463,-0.609756,-5.075000,17.925001,19.606251,30.027,0.56779722,-0.00989343,-0.02901240,-0.82259754
'00:12:59.905,0.059082,0.029785,1.002930,0.365854,1.341463,-0.487805,-5.075000,17.925001,19.606251,30.072,0.56779811,-0.00987958,-0.02900455,-0.82259737
'00:12:59.914,0.061035,0.029785,1.003418,0.365854,1.341463,-0.609756,-5.193750,18.031250,19.737501,30.057,0.56778563,-0.00987309,-0.02899892,-0.82260626
'00:12:59.924,0.059570,0.029785,1.004395,0.243902,1.341463,-0.609756,-4.800000,17.493750,19.387501,30.042,0.56778723,-0.00987892,-0.02899591,-0.82260519
'00:12:59.935,0.058594,0.028809,1.004395,0.365854,1.341463,-0.548781,-4.800000,17.493750,19.387501,30.088,0.56779418,-0.00987702,-0.02899187,-0.82260057
'00:12:59.944,0.059570,0.029297,1.003906,0.304878,1.280488,-0.609756,-4.768750,17.493750,19.293751,30.103,0.56779793,-0.00988676,-0.02899598,-0.82259771
'00:12:59.954,0.061035,0.030762,1.003906,0.304878,1.341463,-0.609756,-4.768750,17.493750,19.293751,30.088,0.56780184,-0.00989538,-0.02901142,-0.82259437
'00:12:59.964,0.060059,0.028809,1.003906,0.365854,1.402439,-0.609756,-4.775000,17.493750,19.375000,30.118,0.56780557,-0.00989861,-0.02901235,-0.82259172
'00:12:59.974,0.060059,0.030762,1.003906,0.365854,1.280488,-0.548781,-4.775000,17.493750,19.375000,30.088,0.56781293,-0.00990293,-0.02903040,-0.82258595
'00:12:59.984,0.060059,0.029785,1.002930,0.365854,1.341463,-0.609756,-5.012500,17.787500,19.531250,30.057,0.56780615,-0.00989672,-0.02902829,-0.82259078
'00:12:59.994,0.060059,0.029297,1.003418,0.365854,1.280488,-0.548781,-5.012500,17.787500,19.531250,30.027,0.56780373,-0.00989695,-0.02902629,-0.82259251
'00:13:00.004,0.059082,0.029785,1.003418,0.304878,1.341463,-0.548781,-5.187500,18.087500,19.731251,30.118,0.56779589,-0.00988314,-0.02900968,-0.82259868
'00:13:00.014,0.060059,0.029297,1.003418,0.365854,1.341463,-0.548781,-5.187500,18.087500,19.731251,30.088,0.56778826,-0.00987371,-0.02899876,-0.82260445
'00:13:00.024,0.060059,0.029785,1.003418,0.365854,1.341463,-0.548781,-4.793750,17.531250,19.375000,30.072,0.56779568,-0.00987744,-0.02900815,-0.82259895
'00:13:00.034,0.059570,0.029297,1.004395,0.304878,1.341463,-0.548781,-4.793750,17.531250,19.375000,30.088,0.56780314,-0.00988310,-0.02900791,-0.82259374
'00:13:00.046,0.060059,0.029297,1.002930,0.304878,1.341463,-0.548781,-4.850000,17.537500,19.393751,30.072,0.56780738,-0.00988937,-0.02900539,-0.82259082
'00:13:00.054,0.060059,0.029785,1.004395,0.365854,1.341463,-0.548781,-4.850000,17.537500,19.393751,30.088,0.56781016,-0.00988926,-0.02900898,-0.82258878
'00:13:00.064,0.059570,0.029785,1.003418,0.365854,1.341463,-0.548781,-4.812500,17.525000,19.350000,30.088,0.56781613,-0.00988863,-0.02901464,-0.82258447
'00:13:00.074,0.060059,0.029297,1.003906,0.304878,1.280488,-0.548781,-4.812500,17.525000,19.350000,30.088,0.56782196,-0.00989990,-0.02901775,-0.82258020
'00:13:00.084,0.058594,0.030273,1.005371,0.365854,1.341463,-0.548781,-4.787500,17.468750,19.375000,30.057,0.56782811,-0.00989209,-0.02902196,-0.82257590
'00:13:00.094,0.059570,0.028809,1.002930,0.304878,1.341463,-0.609756,-4.787500,17.468750,19.375000,30.118,0.56783008,-0.00989903,-0.02901816,-0.82257459
'00:13:00.104,0.060547,0.029297,1.003906,0.304878,1.280488,-0.548781,-5.062500,17.887501,19.625000,30.027,0.56782614,-0.00990342,-0.02901195,-0.82257748
'00:13:00.114,0.059570,0.029297,1.004883,0.365854,1.341463,-0.609756,-5.062500,17.887501,19.625000,30.088,0.56781808,-0.00989468,-0.02900315,-0.82258346
'00:13:00.126,0.059570,0.028809,1.004883,0.304878,1.341463,-0.548781,-4.918750,17.656250,19.450001,30.057,0.56781982,-0.00989636,-0.02899107,-0.82258266
'00:13:00.134,0.061035,0.030762,1.004395,0.365854,1.341463,-0.609756,-4.918750,17.656250,19.450001,30.027,0.56781716,-0.00989537,-0.02900017,-0.82258419
'00:13:00.144,0.060059,0.029297,1.003418,0.304878,1.341463,-0.609756,-4.762500,17.518751,19.375000,30.088,0.56782203,-0.00990526,-0.02900446,-0.82258056
'00:13:00.154,0.060547,0.029297,1.004395,0.365854,1.280488,-0.609756,-4.762500,17.518751,19.375000,30.072,0.56782674,-0.00991884,-0.02901754,-0.82257668
'00:13:00.164,0.060059,0.029785,1.004395,0.365854,1.341463,-0.548781,-4.793750,17.512501,19.318750,30.118,0.56783373,-0.00992110,-0.02902570,-0.82257154
'00:13:00.174,0.060059,0.029785,1.004395,0.365854,1.341463,-0.548781,-4.793750,17.512501,19.318750,30.118,0.56784067,-0.00992329,-0.02903369,-0.82256644
'00:13:00.184,0.059570,0.029297,1.003906,0.304878,1.280488,-0.609756,-4.800000,17.487501,19.331251,30.042,0.56784203,-0.00993127,-0.02903462,-0.82256537
'00:13:00.194,0.059082,0.030273,1.002930,0.365854,1.402439,-0.548781,-4.800000,17.487501,19.331251,30.088,0.56784790,-0.00992114,-0.02903786,-0.82256133
'00:13:00.205,0.060547,0.029297,1.002441,0.304878,1.341463,-0.609756,-5.056250,17.918751,19.556250,30.072,0.56784034,-0.00992154,-0.02902950,-0.82256683
'00:13:00.215,0.059570,0.029297,1.002441,0.365854,1.341463,-0.609756,-5.125000,18.000000,19.656250,30.088,0.56783049,-0.00991099,-0.02901931,-0.82257412
'00:13:00.224,0.059570,0.029297,1.002441,0.365854,1.341463,-0.609756,-5.125000,18.000000,19.656250,30.088,0.56782169,-0.00990167,-0.02901033,-0.82258063
'00:13:00.234,0.060059,0.029785,1.004395,0.304878,1.341463,-0.609756,-4.781250,17.525000,19.337500,30.088,0.56782541,-0.00990809,-0.02901557,-0.82257780
'00:13:00.245,0.058594,0.029297,1.003418,0.304878,1.402439,-0.548781,-4.781250,17.525000,19.337500,30.103,0.56783462,-0.00990376,-0.02900896,-0.82257173
'00:13:00.254,0.060059,0.029297,1.003418,0.365854,1.341463,-0.548781,-4.818750,17.525000,19.393751,30.072,0.56783941,-0.00990687,-0.02901262,-0.82256825
'00:13:00.264,0.059082,0.030273,1.003418,0.365854,1.341463,-0.548781,-4.818750,17.525000,19.393751,30.057,0.56784455,-0.00990096,-0.02901838,-0.82256457
'00:13:00.274,0.058594,0.029785,1.003418,0.365854,1.402439,-0.609756,-4.743750,17.456251,19.293751,30.057,0.56784963,-0.00989323,-0.02902088,-0.82256107
'00:13:00.286,0.059082,0.029785,1.004395,0.365854,1.341463,-0.548781,-4.743750,17.456251,19.293751,30.088,0.56786077,-0.00989252,-0.02902920,-0.82255309
'00:13:00.294,0.059082,0.029785,1.004395,0.365854,1.341463,-0.548781,-5.218750,18.212500,19.806250,30.088,0.56785484,-0.00987892,-0.02901934,-0.82255770
'00:13:00.304,0.060059,0.028809,1.002930,0.243902,1.341463,-0.609756,-5.218750,18.212500,19.806250,30.088,0.56784317,-0.00987733,-0.02899740,-0.82256654
'00:13:00.314,0.060059,0.030762,1.003418,0.304878,1.341463,-0.548781,-5.162500,18.056250,19.725000,30.103,0.56783601,-0.00986627,-0.02899134,-0.82257183
'00:13:00.325,0.060547,0.029297,1.003906,0.365854,1.341463,-0.548781,-5.162500,18.056250,19.725000,30.057,0.56782858,-0.00985997,-0.02898255,-0.82257735
'00:13:00.334,0.060059,0.029297,1.003906,0.365854,1.280488,-0.548781,-4.812500,17.500000,19.362501,30.072,0.56783335,-0.00986753,-0.02898919,-0.82257373
'00:13:00.344,0.059570,0.029785,1.002930,0.304878,1.341463,-0.609756,-4.812500,17.500000,19.362501,30.072,0.56783425,-0.00986986,-0.02899037,-0.82257304
'00:13:00.354,0.059082,0.030273,1.003418,0.365854,1.341463,-0.548781,-4.750000,17.437500,19.287500,30.088,0.56784270,-0.00986732,-0.02900015,-0.82256690
'00:13:00.365,0.059570,0.030273,1.003906,0.304878,1.280488,-0.609756,-4.750000,17.437500,19.287500,30.088,0.56784689,-0.00987538,-0.02901114,-0.82256352
'00:13:00.375,0.058594,0.029297,1.003418,0.365854,1.341463,-0.609756,-4.862500,17.593750,19.356251,30.103,0.56784667,-0.00986910,-0.02900793,-0.82256386
'00:13:00.384,0.058594,0.029785,1.002441,0.304878,1.341463,-0.548781,-4.862500,17.593750,19.356251,30.072,0.56785027,-0.00986486,-0.02900396,-0.82256157
'00:13:00.394,0.061035,0.029297,1.003418,0.304878,1.341463,-0.548781,-4.968750,17.662500,19.468750,30.103,0.56784816,-0.00987020,-0.02899904,-0.82256313
'00:13:00.406,0.060547,0.029297,1.002930,0.304878,1.341463,-0.609756,-4.968750,17.662500,19.468750,30.027,0.56784040,-0.00987325,-0.02899129,-0.82256873
'00:13:00.414,0.060059,0.029785,1.003906,0.243902,1.280488,-0.548781,-4.962500,17.781250,19.481251,30.072,0.56784107,-0.00987911,-0.02898817,-0.82256830
'00:13:00.424,0.059570,0.029785,1.003906,0.365854,1.341463,-0.548781,-4.962500,17.781250,19.481251,30.118,0.56784217,-0.00987327,-0.02898816,-0.82256761
'00:13:00.434,0.060547,0.029297,1.003418,0.365854,1.341463,-0.609756,-4.993750,17.650000,19.468750,30.133,0.56783380,-0.00987101,-0.02898386,-0.82257357
'00:13:00.445,0.059570,0.029785,1.003906,0.365854,1.280488,-0.548781,-4.775000,17.456251,19.325001,30.057,0.56784141,-0.00987673,-0.02899507,-0.82256785
'00:13:00.454,0.060059,0.029785,1.003906,0.365854,1.341463,-0.548781,-4.775000,17.456251,19.325001,30.088,0.56784771,-0.00987980,-0.02900304,-0.82256319
'00:13:00.464,0.060059,0.029785,1.002930,0.304878,1.280488,-0.609756,-4.800000,17.543751,19.293751,30.072,0.56785055,-0.00989013,-0.02901103,-0.82256082
'00:13:00.474,0.059570,0.030273,1.003906,0.365854,1.402439,-0.609756,-4.800000,17.543751,19.293751,30.072,0.56785363,-0.00988369,-0.02901770,-0.82255853
'00:13:00.486,0.059570,0.029297,1.002930,0.304878,1.341463,-0.609756,-4.768750,17.475000,19.331251,30.057,0.56785778,-0.00989112,-0.02901859,-0.82255555
'00:13:00.494,0.059570,0.028809,1.003418,0.304878,1.341463,-0.548781,-4.768750,17.475000,19.331251,30.118,0.56786411,-0.00989756,-0.02901672,-0.82255116
'00:13:00.504,0.061035,0.028809,1.004883,0.426829,1.341463,-0.548781,-5.131250,17.925001,19.656250,30.103,0.56785660,-0.00989236,-0.02901063,-0.82255663
'00:13:00.516,0.059082,0.029785,1.003418,0.365854,1.341463,-0.609756,-5.131250,17.925001,19.656250,30.057,0.56784212,-0.00987283,-0.02899658,-0.82256735
'00:13:00.526,0.060059,0.029297,1.003418,0.365854,1.341463,-0.609756,-4.981250,17.862501,19.562500,30.057,0.56783923,-0.00987181,-0.02899613,-0.82256938
'00:13:00.534,0.059082,0.028809,1.002930,0.304878,1.280488,-0.609756,-4.981250,17.862501,19.562500,30.027,0.56783686,-0.00987423,-0.02898967,-0.82257121
'00:13:00.544,0.060059,0.029297,1.003418,0.365854,1.341463,-0.548781,-4.787500,17.487501,19.350000,30.027,0.56784375,-0.00987947,-0.02899575,-0.82256618
'00:13:00.554,0.059570,0.029297,1.003906,0.365854,1.341463,-0.609756,-4.787500,17.487501,19.350000,30.057,0.56784625,-0.00988162,-0.02899966,-0.82256429
'00:13:00.565,0.058594,0.028320,1.003906,0.304878,1.341463,-0.609756,-4.787500,17.500000,19.306250,30.103,0.56784973,-0.00988556,-0.02898924,-0.82256221
'00:13:00.574,0.059082,0.030273,1.003906,0.365854,1.341463,-0.548781,-4.787500,17.500000,19.306250,30.057,0.56785617,-0.00988167,-0.02899645,-0.82255755
'00:13:00.584,0.059082,0.029297,1.003418,0.365854,1.341463,-0.548781,-4.850000,17.581251,19.356251,30.088,0.56786086,-0.00987874,-0.02899594,-0.82255437
'00:13:00.594,0.059570,0.029785,1.003418,0.304878,1.341463,-0.548781,-4.850000,17.581251,19.356251,30.118,0.56786536,-0.00987965,-0.02899570,-0.82255126
'00:13:00.605,0.060059,0.029297,1.004395,0.304878,1.402439,-0.548781,-5.075000,17.843750,19.556250,30.042,0.56785960,-0.00987041,-0.02897831,-0.82255596
'00:13:00.614,0.059082,0.029297,1.003906,0.304878,1.341463,-0.609756,-5.075000,17.843750,19.556250,30.133,0.56785089,-0.00986210,-0.02896394,-0.82256258
'00:13:00.624,0.060059,0.029785,1.003418,0.365854,1.341463,-0.609756,-5.143750,17.956251,19.618750,30.072,0.56783902,-0.00985132,-0.02895671,-0.82257116
'00:13:00.634,0.060547,0.028809,1.003906,0.365854,1.341463,-0.548781,-5.143750,17.956251,19.618750,30.103,0.56783177,-0.00984716,-0.02894585,-0.82257659
'00:13:00.644,0.059082,0.029297,1.004395,0.365854,1.280488,-0.548781,-4.793750,17.450001,19.318750,30.103,0.56783750,-0.00985063,-0.02895023,-0.82257244
'00:13:00.654,0.058594,0.030762,1.004395,0.365854,1.341463,-0.609756,-4.793750,17.450001,19.318750,30.057,0.56783868,-0.00984097,-0.02895800,-0.82257147
'00:13:00.664,0.059570,0.030762,1.003906,0.304878,1.280488,-0.548781,-4.818750,17.500000,19.318750,30.103,0.56784343,-0.00984370,-0.02896746,-0.82256782
'00:13:00.674,0.059082,0.029785,1.003418,0.304878,1.341463,-0.548781,-4.818750,17.500000,19.318750,30.057,0.56784853,-0.00984322,-0.02896648,-0.82256435
'00:13:00.687,0.060059,0.030273,1.003418,0.365854,1.341463,-0.548781,-4.787500,17.493750,19.312500,30.088,0.56785769,-0.00984559,-0.02898244,-0.82255743
'00:13:00.694,0.060059,0.028809,1.003418,0.365854,1.341463,-0.609756,-4.787500,17.493750,19.312500,30.042,0.56785974,-0.00985075,-0.02898503,-0.82255586
'00:13:00.704,0.059570,0.029297,1.001953,0.365854,1.341463,-0.609756,-5.018750,17.793751,19.556250,30.088,0.56785272,-0.00984447,-0.02897898,-0.82256099
'00:13:00.714,0.059570,0.030273,1.004395,0.304878,1.280488,-0.548781,-5.018750,17.793751,19.556250,30.103,0.56784973,-0.00984156,-0.02897616,-0.82256319
'00:13:00.724,0.060059,0.029785,1.004395,0.365854,1.341463,-0.609756,-4.962500,17.731251,19.537500,30.088,0.56784510,-0.00983817,-0.02897676,-0.82256641
'00:13:00.734,0.059082,0.030273,1.002930,0.304878,1.341463,-0.548781,-5.156250,17.925001,19.668751,30.072,0.56783573,-0.00982278,-0.02896231,-0.82257357
'00:13:00.744,0.060547,0.029785,1.003418,0.426829,1.341463,-0.548781,-5.156250,17.925001,19.668751,30.088,0.56782663,-0.00981138,-0.02895956,-0.82258009
'00:13:00.754,0.060059,0.029297,1.002441,0.304878,1.341463,-0.609756,-5.037500,17.800001,19.562500,30.088,0.56781863,-0.00981042,-0.02895012,-0.82258595
'00:13:00.764,0.060059,0.029785,1.003418,0.304878,1.280488,-0.487805,-5.037500,17.800001,19.562500,30.012,0.56781917,-0.00981209,-0.02894613,-0.82258570
'00:13:00.774,0.059082,0.029785,1.003418,0.304878,1.341463,-0.609756,-4.887500,17.587500,19.362501,30.057,0.56781718,-0.00980918,-0.02894236,-0.82258724
'00:13:00.784,0.060547,0.029785,1.003906,0.304878,1.280488,-0.548781,-4.887500,17.587500,19.362501,30.042,0.56781938,-0.00981883,-0.02894707,-0.82258544
'00:13:00.794,0.059570,0.029785,1.004883,0.365854,1.341463,-0.609756,-4.781250,17.493750,19.356251,30.088,0.56782263,-0.00982041,-0.02895500,-0.82258290
'00:13:00.804,0.060059,0.029785,1.002441,0.304878,1.341463,-0.609756,-4.781250,17.493750,19.356251,30.042,0.56782575,-0.00982821,-0.02896128,-0.82258043
'00:13:00.814,0.059570,0.030273,1.003906,0.365854,1.341463,-0.548781,-5.131250,17.968750,19.568750,30.057,0.56781963,-0.00981431,-0.02895620,-0.82258501
'00:13:00.825,0.059082,0.030762,1.002930,0.365854,1.341463,-0.609756,-5.131250,17.968750,19.568750,30.088,0.56780803,-0.00979436,-0.02895218,-0.82259339
'00:13:00.834,0.060059,0.029785,1.001953,0.304878,1.280488,-0.548781,-5.018750,17.750000,19.518751,30.103,0.56780486,-0.00979651,-0.02894946,-0.82259565
'00:13:00.844,0.061035,0.030273,1.003906,0.304878,1.341463,-0.548781,-5.018750,17.750000,19.518751,30.027,0.56780139,-0.00979755,-0.02894916,-0.82259804
'00:13:00.854,0.060547,0.029297,1.003906,0.365854,1.341463,-0.548781,-4.762500,17.468750,19.387501,30.072,0.56780974,-0.00980819,-0.02895930,-0.82259180
'00:13:00.864,0.061035,0.029785,1.003906,0.304878,1.341463,-0.609756,-4.762500,17.468750,19.387501,30.103,0.56781347,-0.00982227,-0.02896960,-0.82258869
'00:13:00.875,0.060059,0.030273,1.002441,0.426829,1.341463,-0.548781,-4.843750,17.537500,19.318750,30.088,0.56781822,-0.00981850,-0.02898473,-0.82258492
'00:13:00.884,0.060059,0.030273,1.002930,0.304878,1.280488,-0.548781,-4.843750,17.537500,19.318750,30.072,0.56782186,-0.00982471,-0.02899155,-0.82258209
'00:13:00.894,0.060059,0.029785,1.002441,0.304878,1.341463,-0.609756,-4.793750,17.437500,19.381250,30.072,0.56782257,-0.00983090,-0.02899480,-0.82258141
'00:13:00.904,0.060059,0.029785,1.002441,0.304878,1.341463,-0.609756,-4.793750,17.437500,19.381250,30.072,0.56782327,-0.00983699,-0.02899799,-0.82258075
'00:13:00.914,0.057617,0.029297,1.002930,0.304878,1.280488,-0.609756,-4.943750,17.687500,19.456251,30.118,0.56781923,-0.00983014,-0.02898599,-0.82258404
'00:13:00.924,0.057617,0.029297,1.002930,0.304878,1.280488,-0.609756,-4.943750,17.687500,19.456251,30.118,0.56781524,-0.00982342,-0.02897421,-0.82258729
'00:13:00.934,0.058594,0.029785,1.004883,0.426829,1.341463,-0.609756,-5.056250,17.943750,19.631250,30.027,0.56780912,-0.00980689,-0.02897138,-0.82259181
'00:13:00.944,0.060547,0.029785,1.004883,0.304878,1.341463,-0.609756,-5.056250,17.943750,19.631250,30.088,0.56780290,-0.00980732,-0.02896732,-0.82259624
'00:13:00.954,0.059570,0.028809,1.004883,0.304878,1.280488,-0.548781,-4.881250,17.462500,19.306250,30.118,0.56780303,-0.00981370,-0.02895957,-0.82259635
'00:13:00.964,0.060547,0.028320,1.004395,0.304878,1.402439,-0.609756,-4.881250,17.462500,19.306250,30.118,0.56779916,-0.00981851,-0.02894716,-0.82259940
'00:13:00.974,0.061523,0.029785,1.002441,0.304878,1.280488,-0.548781,-4.756250,17.412500,19.318750,30.057,0.56780650,-0.00983944,-0.02896241,-0.82259355
'00:13:00.984,0.060547,0.030273,1.002930,0.365854,1.341463,-0.548781,-4.756250,17.412500,19.318750,30.057,0.56781389,-0.00984514,-0.02897752,-0.82258784
'00:13:00.994,0.060059,0.030762,1.004395,0.304878,1.280488,-0.548781,-4.806250,17.468750,19.312500,30.103,0.56781882,-0.00985077,-0.02898867,-0.82258398
'00:13:01.004,0.060059,0.028320,1.002930,0.304878,1.341463,-0.548781,-4.987500,17.762501,19.531250,30.057,0.56781792,-0.00985540,-0.02897594,-0.82258500
'00:13:01.014,0.060059,0.030273,1.001953,0.304878,1.280488,-0.548781,-4.987500,17.762501,19.531250,30.057,0.56781647,-0.00985697,-0.02897780,-0.82258591
'00:13:01.024,0.057617,0.028809,1.003418,0.365854,1.341463,-0.609756,-5.137500,17.931250,19.706251,30.057,0.56780441,-0.00983697,-0.02895530,-0.82259527
'00:13:01.034,0.058105,0.029297,1.003418,0.304878,1.341463,-0.609756,-5.137500,17.931250,19.706251,30.027,0.56779230,-0.00982115,-0.02893347,-0.82260458
'00:13:01.044,0.059570,0.028809,1.004883,0.304878,1.280488,-0.548781,-4.818750,17.518751,19.356251,30.088,0.56779800,-0.00983221,-0.02893240,-0.82260056
'00:13:01.054,0.060059,0.029297,1.003906,0.365854,1.341463,-0.548781,-4.818750,17.518751,19.356251,30.118,0.56780373,-0.00983669,-0.02893772,-0.82259636
'00:13:01.064,0.061035,0.028809,1.005371,0.304878,1.341463,-0.548781,-4.837500,17.550001,19.381250,30.148,0.56780878,-0.00985043,-0.02893820,-0.82259269
'00:13:01.074,0.060059,0.028809,1.003418,0.365854,1.341463,-0.548781,-4.837500,17.550001,19.381250,30.103,0.56781386,-0.00985595,-0.02894000,-0.82258905
'00:13:01.084,0.061035,0.029297,1.003418,0.365854,1.341463,-0.548781,-4.812500,17.531250,19.325001,30.057,0.56782031,-0.00986598,-0.02894993,-0.82258414
'00:13:01.094,0.059570,0.030762,1.000977,0.365854,1.341463,-0.548781,-4.812500,17.531250,19.325001,30.057,0.56782642,-0.00986245,-0.02896331,-0.82257949
'00:13:01.104,0.059570,0.030273,1.001953,0.365854,1.341463,-0.609756,-4.887500,17.612501,19.425001,30.057,0.56782454,-0.00985732,-0.02896920,-0.82258064
'00:13:01.115,0.059570,0.029297,1.003906,0.304878,1.280488,-0.548781,-4.887500,17.612501,19.425001,30.057,0.56782731,-0.00986381,-0.02896710,-0.82257872
'00:13:01.124,0.059082,0.028809,1.003418,0.304878,1.280488,-0.548781,-5.156250,17.962500,19.668751,30.088,0.56781983,-0.00985906,-0.02895032,-0.82258453
'00:13:01.136,0.058594,0.028320,1.003418,0.365854,1.280488,-0.548781,-5.156250,17.962500,19.668751,30.042,0.56781014,-0.00984831,-0.02892808,-0.82259214
'00:13:01.144,0.058594,0.029297,1.002441,0.304878,1.280488,-0.548781,-4.962500,17.718750,19.493750,30.118,0.56780994,-0.00984687,-0.02892192,-0.82259251
'00:13:01.154,0.059570,0.030762,1.004883,0.304878,1.341463,-0.548781,-4.962500,17.718750,19.493750,30.072,0.56780954,-0.00983989,-0.02892233,-0.82259285
'00:13:01.165,0.059570,0.029297,1.004883,0.365854,1.341463,-0.548781,-4.787500,17.493750,19.343750,30.118,0.56781765,-0.00984319,-0.02892787,-0.82258702
'00:13:01.174,0.060059,0.029297,1.003906,0.365854,1.341463,-0.609756,-4.787500,17.493750,19.343750,30.042,0.56782029,-0.00984830,-0.02893439,-0.82258491
'00:13:01.184,0.060547,0.030273,1.003418,0.304878,1.280488,-0.609756,-4.818750,17.506250,19.375000,30.088,0.56782073,-0.00985855,-0.02894556,-0.82258409
'00:13:01.194,0.060059,0.029297,1.003906,0.304878,1.341463,-0.548781,-4.818750,17.506250,19.375000,30.118,0.56782588,-0.00986545,-0.02894582,-0.82258044
'00:13:01.204,0.060059,0.028809,1.004883,0.304878,1.341463,-0.609756,-4.800000,17.468750,19.400000,30.103,0.56782706,-0.00987452,-0.02894341,-0.82257960
'00:13:01.214,0.060547,0.028809,1.003906,0.365854,1.341463,-0.548781,-4.800000,17.468750,19.400000,30.088,0.56783261,-0.00988352,-0.02894763,-0.82257551
'00:13:01.224,0.058594,0.031250,1.003418,0.365854,1.341463,-0.548781,-4.893750,17.643751,19.450001,30.072,0.56783512,-0.00986879,-0.02895505,-0.82257370
'00:13:01.235,0.059570,0.029785,1.003906,0.365854,1.341463,-0.548781,-5.212500,18.037500,19.762501,30.072,0.56782341,-0.00985133,-0.02894116,-0.82258248
'00:13:01.244,0.059570,0.029297,1.002930,0.243902,1.280488,-0.548781,-5.212500,18.037500,19.762501,30.027,0.56781376,-0.00984856,-0.02892281,-0.82258982
'00:13:01.254,0.058594,0.030273,1.003906,0.304878,1.280488,-0.548781,-4.862500,17.506250,19.356251,30.118,0.56781572,-0.00984531,-0.02892300,-0.82258850
'00:13:01.264,0.059082,0.028809,1.003906,0.365854,1.402439,-0.609756,-4.862500,17.506250,19.356251,30.042,0.56781397,-0.00983866,-0.02891515,-0.82259007
'00:13:01.274,0.060059,0.028809,1.003906,0.365854,1.280488,-0.548781,-4.812500,17.525000,19.287500,30.088,0.56782049,-0.00984957,-0.02892174,-0.82258520
'00:13:01.285,0.059570,0.030273,1.003418,0.365854,1.341463,-0.548781,-4.812500,17.525000,19.287500,30.072,0.56782746,-0.00984736,-0.02893279,-0.82258002
'00:13:01.294,0.060059,0.029297,1.001953,0.365854,1.341463,-0.548781,-4.818750,17.500000,19.362501,30.057,0.56783207,-0.00985128,-0.02893774,-0.82257662
'00:13:01.304,0.060059,0.030273,1.002441,0.365854,1.341463,-0.609756,-4.818750,17.500000,19.362501,30.072,0.56783258,-0.00985143,-0.02894855,-0.82257589
'00:13:01.314,0.060059,0.031250,1.002930,0.304878,1.280488,-0.548781,-4.956250,17.693750,19.481251,30.042,0.56783165,-0.00984983,-0.02895676,-0.82257626
'00:13:01.324,0.059570,0.029297,1.003418,0.365854,1.341463,-0.548781,-4.956250,17.693750,19.481251,30.072,0.56783135,-0.00984567,-0.02895315,-0.82257664
'00:13:01.334,0.059082,0.029785,1.006348,0.365854,1.341463,-0.609756,-5.150000,17.962500,19.656250,30.133,0.56781921,-0.00982911,-0.02894093,-0.82258566
'00:13:01.344,0.059082,0.029297,1.004883,0.304878,1.341463,-0.548781,-5.150000,17.962500,19.656250,30.012,0.56781156,-0.00981819,-0.02892241,-0.82259171
'00:13:01.354,0.058105,0.029785,1.003418,0.304878,1.280488,-0.548781,-4.818750,17.581251,19.375000,30.088,0.56781847,-0.00981850,-0.02892340,-0.82258690
'00:13:01.364,0.060547,0.029785,1.003418,0.365854,1.341463,-0.548781,-4.818750,17.581251,19.375000,30.072,0.56782546,-0.00982494,-0.02893513,-0.82258159
'00:13:01.374,0.060059,0.028809,1.002930,0.365854,1.280488,-0.548781,-4.775000,17.512501,19.393751,30.072,0.56783382,-0.00983874,-0.02894415,-0.82257534
'00:13:01.384,0.060059,0.029785,1.001465,0.365854,1.341463,-0.609756,-4.775000,17.512501,19.393751,30.072,0.56783766,-0.00984420,-0.02895617,-0.82257220
'00:13:01.394,0.060547,0.029785,1.003906,0.365854,1.280488,-0.548781,-4.775000,17.443750,19.343750,30.088,0.56784424,-0.00985517,-0.02897030,-0.82256703
'00:13:01.404,0.060547,0.029785,1.003906,0.365854,1.341463,-0.548781,-4.775000,17.443750,19.343750,30.072,0.56785092,-0.00986155,-0.02898114,-0.82256196
'00:13:01.414,0.059570,0.029297,1.005371,0.304878,1.341463,-0.548781,-4.793750,17.512501,19.331251,30.057,0.56785803,-0.00986674,-0.02898046,-0.82255702
'00:13:01.424,0.059082,0.028809,1.005371,0.304878,1.341463,-0.548781,-4.793750,17.512501,19.331251,30.072,0.56786523,-0.00987104,-0.02897508,-0.82255218
'00:13:01.434,0.058594,0.028809,1.003418,0.304878,1.341463,-0.548781,-5.062500,17.887501,19.625000,30.088,0.56786161,-0.00986276,-0.02895648,-0.82255543
'00:13:01.444,0.060059,0.029297,1.003906,0.426829,1.280488,-0.609756,-5.062500,17.887501,19.625000,30.088,0.56785350,-0.00985885,-0.02895816,-0.82256102
'00:13:01.454,0.060059,0.029785,1.001953,0.304878,1.341463,-0.548781,-4.931250,17.750000,19.518751,30.088,0.56785581,-0.00986099,-0.02895845,-0.82255939
'00:13:01.464,0.059082,0.029785,1.002441,0.365854,1.341463,-0.548781,-4.931250,17.750000,19.518751,30.148,0.56785821,-0.00985458,-0.02895915,-0.82255779
'00:13:01.474,0.058594,0.030273,1.000977,0.365854,1.341463,-0.548781,-4.787500,17.450001,19.306250,30.103,0.56786424,-0.00984794,-0.02896575,-0.82255347
'00:13:01.484,0.060059,0.030273,1.003906,0.243902,1.341463,-0.548781,-4.787500,17.450001,19.306250,30.118,0.56787011,-0.00985496,-0.02896799,-0.82254925
'00:13:01.494,0.061035,0.027832,1.006836,0.304878,1.341463,-0.609756,-4.793750,17.393751,19.312500,30.072,0.56787031,-0.00987193,-0.02896141,-0.82254914
'00:13:01.504,0.061035,0.028320,1.005371,0.304878,1.341463,-0.548781,-4.793750,17.393751,19.312500,30.088,0.56787475,-0.00988721,-0.02895822,-0.82254600
'00:13:01.514,0.059570,0.029785,1.003906,0.365854,1.402439,-0.548781,-4.831250,17.512501,19.318750,30.072,0.56787930,-0.00988062,-0.02895959,-0.82254290
'00:13:01.524,0.060547,0.028320,1.001465,0.426829,1.341463,-0.548781,-5.062500,17.900000,19.531250,30.057,0.56787646,-0.00987902,-0.02895600,-0.82254500
'00:13:01.534,0.060059,0.030762,1.002930,0.304878,1.341463,-0.548781,-5.062500,17.900000,19.531250,30.088,0.56787306,-0.00987114,-0.02895488,-0.82254749
'00:13:01.544,0.061035,0.029785,1.002441,0.365854,1.341463,-0.609756,-5.118750,17.968750,19.725000,30.057,0.56786260,-0.00986757,-0.02895365,-0.82255479
'00:13:01.554,0.060059,0.028809,1.003906,0.304878,1.280488,-0.548781,-5.118750,17.968750,19.725000,30.088,0.56785659,-0.00986976,-0.02894135,-0.82255935
'00:13:01.564,0.061035,0.029297,1.005371,0.304878,1.341463,-0.548781,-4.812500,17.487501,19.275000,30.118,0.56786200,-0.00988127,-0.02894500,-0.82255534
'00:13:01.574,0.060059,0.027832,1.005371,0.365854,1.280488,-0.609756,-4.812500,17.487501,19.275000,30.042,0.56786325,-0.00989415,-0.02894393,-0.82255437
'00:13:01.584,0.060059,0.029785,1.004883,0.426829,1.341463,-0.609756,-4.818750,17.531250,19.387501,30.042,0.56786439,-0.00989244,-0.02895577,-0.82255318
'00:13:01.594,0.060059,0.029785,1.002441,0.365854,1.402439,-0.609756,-4.818750,17.531250,19.387501,30.103,0.56786559,-0.00988989,-0.02896100,-0.82255220
'00:13:01.604,0.059570,0.029785,1.001465,0.304878,1.341463,-0.548781,-4.793750,17.500000,19.362501,30.088,0.56787206,-0.00989346,-0.02896451,-0.82254756
'00:13:01.614,0.059082,0.031250,1.002441,0.304878,1.341463,-0.548781,-4.793750,17.500000,19.362501,30.042,0.56787822,-0.00988820,-0.02897402,-0.82254304
'00:13:01.624,0.058594,0.030273,1.004395,0.243902,1.280488,-0.609756,-5.075000,17.850000,19.531250,30.042,0.56786832,-0.00987956,-0.02896030,-0.82255047
'00:13:01.634,0.059570,0.029297,1.004883,0.243902,1.280488,-0.609756,-5.075000,17.850000,19.531250,30.118,0.56785867,-0.00988008,-0.02894495,-0.82255766
'00:13:01.644,0.059570,0.029297,1.004395,0.426829,1.341463,-0.548781,-4.975000,17.750000,19.456251,30.118,0.56785847,-0.00987178,-0.02894539,-0.82255788
'00:13:01.655,0.059570,0.029297,1.004395,0.426829,1.341463,-0.548781,-4.975000,17.750000,19.456251,30.118,0.56785826,-0.00986279,-0.02894589,-0.82255812
'00:13:01.664,0.060547,0.029297,1.004395,0.365854,1.341463,-0.548781,-4.787500,17.543751,19.375000,30.088,0.56786560,-0.00987068,-0.02895448,-0.82255266
'00:13:01.674,0.061035,0.029785,1.002930,0.365854,1.341463,-0.548781,-4.787500,17.543751,19.375000,30.072,0.56787355,-0.00988039,-0.02896911,-0.82254653
'00:13:01.684,0.060059,0.030762,1.001953,0.304878,1.341463,-0.548781,-4.775000,17.493750,19.268751,30.088,0.56788134,-0.00988362,-0.02898128,-0.82254069
'00:13:01.698,0.060547,0.028809,1.002930,0.304878,1.341463,-0.609756,-4.800000,17.493750,19.293751,30.057,0.56788402,-0.00990000,-0.02898176,-0.82253862
'00:13:01.704,0.060547,0.028809,1.002930,0.304878,1.341463,-0.609756,-4.800000,17.493750,19.293751,30.057,0.56788514,-0.00990687,-0.02898194,-0.82253776
'00:13:01.714,0.061035,0.028320,1.004395,0.304878,1.280488,-0.609756,-4.800000,17.493750,19.293751,30.057,0.56788694,-0.00992687,-0.02898377,-0.82253621
'00:13:01.724,0.060547,0.029297,1.005859,0.365854,1.341463,-0.548781,-4.775000,17.475000,19.362501,30.118,0.56789411,-0.00993400,-0.02899126,-0.82253091
'00:13:01.734,0.058594,0.028320,1.004883,0.426829,1.402439,-0.609756,-4.775000,17.475000,19.362501,30.133,0.56789735,-0.00992663,-0.02898719,-0.82252891
'00:13:01.744,0.059082,0.029297,1.003906,0.304878,1.341463,-0.609756,-5.231250,18.112501,19.712500,30.088,0.56788276,-0.00991165,-0.02896553,-0.82253993
'00:13:01.754,0.059082,0.029785,1.002930,0.365854,1.341463,-0.609756,-5.231250,18.112501,19.712500,30.057,0.56786821,-0.00989229,-0.02895172,-0.82255069
'00:13:01.764,0.059570,0.030273,1.001465,0.304878,1.341463,-0.548781,-5.118750,17.981251,19.662500,30.133,0.56786253,-0.00988195,-0.02894410,-0.82255500
'00:13:01.777,0.059570,0.029297,1.004395,0.304878,1.341463,-0.548781,-5.081250,17.968750,19.706251,30.072,0.56785814,-0.00987558,-0.02892892,-0.82255864
'00:13:01.784,0.059570,0.029297,1.004395,0.304878,1.341463,-0.548781,-5.081250,17.968750,19.706251,30.072,0.56785582,-0.00987224,-0.02892093,-0.82256057
'00:13:01.794,0.060059,0.029297,1.004395,0.365854,1.341463,-0.548781,-4.850000,17.550001,19.275000,30.103,0.56786023,-0.00987411,-0.02892450,-0.82255738
'00:13:01.804,0.060547,0.029785,1.004883,0.365854,1.280488,-0.548781,-4.850000,17.550001,19.275000,30.118,0.56786434,-0.00988097,-0.02893544,-0.82255407
'00:13:01.814,0.060059,0.028809,1.004395,0.365854,1.341463,-0.548781,-4.768750,17.475000,19.275000,30.148,0.56787269,-0.00988860,-0.02894050,-0.82254804
'00:13:01.824,0.059570,0.029785,1.002441,0.365854,1.402439,-0.548781,-4.768750,17.475000,19.275000,30.057,0.56788093,-0.00988556,-0.02894687,-0.82254216
'00:13:01.834,0.060547,0.029785,1.001953,0.304878,1.402439,-0.609756,-5.106250,17.931250,19.631250,30.057,0.56787088,-0.00987783,-0.02893694,-0.82254954
'00:13:01.844,0.060059,0.031250,1.001953,0.243902,1.341463,-0.548781,-5.106250,17.931250,19.631250,30.088,0.56786477,-0.00986949,-0.02893210,-0.82255403
'00:13:01.855,0.059082,0.030273,1.003906,0.304878,1.341463,-0.548781,-5.075000,17.812500,19.593750,30.042,0.56785781,-0.00985506,-0.02892032,-0.82255942
'00:13:01.864,0.059570,0.028809,1.004883,0.365854,1.341463,-0.548781,-5.075000,17.812500,19.593750,30.088,0.56785250,-0.00984807,-0.02890880,-0.82256358
'00:13:01.874,0.059570,0.028809,1.006348,0.304878,1.341463,-0.609756,-4.887500,17.587500,19.393751,30.072,0.56785049,-0.00985057,-0.02890060,-0.82256522
'00:13:01.884,0.059570,0.029297,1.003418,0.365854,1.341463,-0.548781,-4.887500,17.587500,19.393751,30.042,0.56785280,-0.00984889,-0.02890076,-0.82256364
'00:13:01.894,0.060547,0.029297,1.002930,0.304878,1.341463,-0.609756,-5.043750,17.762501,19.468750,30.088,0.56784382,-0.00984881,-0.02889267,-0.82257013
'00:13:01.904,0.059570,0.028809,1.002930,0.426829,1.341463,-0.609756,-5.043750,17.762501,19.468750,30.072,0.56783512,-0.00983930,-0.02888705,-0.82257644
'00:13:01.914,0.060059,0.029785,1.001465,0.243902,1.341463,-0.609756,-4.850000,17.568750,19.400000,30.118,0.56783503,-0.00984701,-0.02888669,-0.82257642
'00:13:01.924,0.059570,0.030273,1.003418,0.304878,1.280488,-0.548781,-4.850000,17.568750,19.400000,30.088,0.56783913,-0.00985106,-0.02889377,-0.82257329
'00:13:01.934,0.061523,0.028320,1.004883,0.243902,1.341463,-0.548781,-5.381250,18.256250,19.862501,30.133,0.56782256,-0.00985121,-0.02886526,-0.82258573
'00:13:01.944,0.059570,0.029297,1.004395,0.304878,1.341463,-0.548781,-5.381250,18.256250,19.862501,30.103,0.56780597,-0.00983447,-0.02883983,-0.82259828
'00:13:01.954,0.059570,0.028809,1.005371,0.365854,1.341463,-0.548781,-5.137500,17.925001,19.700001,30.072,0.56779846,-0.00982539,-0.02882616,-0.82260405
'00:13:01.964,0.059570,0.029297,1.003906,0.365854,1.341463,-0.548781,-5.137500,17.925001,19.700001,30.088,0.56779090,-0.00981492,-0.02881604,-0.82260975
'00:13:01.974,0.060059,0.029785,1.002441,0.304878,1.341463,-0.548781,-4.825000,17.456251,19.325001,30.118,0.56779493,-0.00981995,-0.02882038,-0.82260675
'00:13:01.984,0.060059,0.029785,1.001953,0.304878,1.341463,-0.548781,-4.825000,17.456251,19.325001,30.088,0.56779892,-0.00982499,-0.02882482,-0.82260378
'00:13:01.994,0.060059,0.029785,1.003906,0.304878,1.280488,-0.609756,-4.856250,17.487501,19.331251,30.088,0.56779693,-0.00983225,-0.02882974,-0.82260490
'00:13:02.004,0.059082,0.029785,1.004395,0.365854,1.341463,-0.548781,-4.856250,17.487501,19.331251,30.103,0.56779953,-0.00982665,-0.02883191,-0.82260310
'00:13:02.014,0.059082,0.030273,1.003906,0.304878,1.280488,-0.548781,-4.862500,17.462500,19.318750,30.088,0.56780083,-0.00982593,-0.02883459,-0.82260211
'00:13:02.024,0.060059,0.030273,1.004395,0.304878,1.341463,-0.609756,-4.862500,17.462500,19.318750,30.118,0.56779788,-0.00982599,-0.02883782,-0.82260403
'00:13:02.034,0.059570,0.028809,1.003418,0.365854,1.402439,-0.609756,-5.025000,17.750000,19.531250,30.118,0.56779028,-0.00981668,-0.02882661,-0.82260978
'00:13:02.044,0.060059,0.029297,1.004395,0.304878,1.341463,-0.548781,-5.043750,17.912500,19.575001,30.088,0.56778919,-0.00981690,-0.02882084,-0.82261074
'00:13:02.055,0.059570,0.029785,1.002441,0.304878,1.402439,-0.609756,-5.043750,17.912500,19.575001,30.042,0.56778324,-0.00980763,-0.02881312,-0.82261523
'00:13:02.064,0.060547,0.030273,1.002930,0.304878,1.341463,-0.609756,-5.081250,17.900000,19.593750,30.072,0.56777557,-0.00980505,-0.02881244,-0.82262057
'00:13:02.074,0.058594,0.029297,1.004395,0.304878,1.280488,-0.609756,-5.081250,17.900000,19.593750,30.072,0.56776719,-0.00979943,-0.02880132,-0.82262681
'00:13:02.084,0.060059,0.029297,1.003906,0.365854,1.341463,-0.548781,-4.843750,17.425001,19.362501,30.057,0.56776930,-0.00980190,-0.02880467,-0.82262521
'00:13:02.095,0.060547,0.030762,1.002930,0.304878,1.341463,-0.548781,-4.843750,17.425001,19.362501,30.072,0.56777117,-0.00980473,-0.02881517,-0.82262352
'00:13:02.105,0.060059,0.028320,1.003418,0.304878,1.341463,-0.548781,-4.818750,17.493750,19.325001,30.057,0.56777694,-0.00981643,-0.02881229,-0.82261950
'00:13:02.114,0.059082,0.029785,1.003418,0.365854,1.341463,-0.548781,-4.818750,17.493750,19.325001,30.057,0.56778190,-0.00981401,-0.02881774,-0.82261591
'00:13:02.124,0.059082,0.029297,1.003906,0.365854,1.341463,-0.609756,-4.837500,17.512501,19.350000,30.042,0.56778216,-0.00981218,-0.02881970,-0.82261568
'00:13:02.135,0.058594,0.028809,1.003418,0.365854,1.341463,-0.609756,-4.837500,17.512501,19.350000,30.072,0.56778258,-0.00980943,-0.02881690,-0.82261553
'00:13:02.144,0.060059,0.029297,1.003906,0.304878,1.341463,-0.548781,-5.093750,17.812500,19.575001,30.057,0.56777650,-0.00980599,-0.02880650,-0.82262013
'00:13:02.154,0.059082,0.029785,1.003906,0.304878,1.341463,-0.548781,-5.093750,17.812500,19.575001,30.042,0.56776972,-0.00979504,-0.02879415,-0.82262537
'00:13:02.164,0.060059,0.029297,1.002930,0.304878,1.341463,-0.609756,-5.131250,17.993750,19.643751,30.088,0.56776017,-0.00979204,-0.02878489,-0.82263232
'00:13:02.174,0.060059,0.028320,1.004883,0.304878,1.341463,-0.548781,-5.131250,17.993750,19.643751,30.088,0.56775525,-0.00979261,-0.02876960,-0.82263624
'00:13:02.184,0.060059,0.029785,1.001953,0.426829,1.341463,-0.609756,-4.818750,17.462500,19.306250,30.057,0.56775592,-0.00979249,-0.02878455,-0.82263526
'00:13:02.196,0.061523,0.029785,1.002930,0.365854,1.341463,-0.548781,-4.818750,17.462500,19.306250,30.118,0.56776179,-0.00980560,-0.02880317,-0.82263040
'00:13:02.204,0.060547,0.030273,1.003418,0.304878,1.341463,-0.548781,-5.075000,17.750000,19.550001,30.042,0.56775620,-0.00980198,-0.02880011,-0.82263441
'00:13:02.214,0.060059,0.029785,1.003418,0.304878,1.341463,-0.609756,-5.075000,17.750000,19.550001,30.057,0.56774498,-0.00979660,-0.02879184,-0.82264251
'00:13:02.224,0.059570,0.030762,1.003906,0.304878,1.280488,-0.548781,-4.856250,17.512501,19.393751,30.148,0.56774778,-0.00979863,-0.02880161,-0.82264021
'00:13:02.234,0.060059,0.029785,1.003906,0.365854,1.341463,-0.548781,-4.856250,17.512501,19.393751,30.163,0.56775095,-0.00979978,-0.02880889,-0.82263775
'00:13:02.244,0.059570,0.029297,1.004883,0.365854,1.402439,-0.548781,-5.006250,17.712500,19.518751,30.057,0.56774831,-0.00978955,-0.02880100,-0.82263997
'00:13:02.255,0.059570,0.029297,1.002930,0.365854,1.341463,-0.548781,-5.006250,17.712500,19.518751,30.118,0.56774527,-0.00978376,-0.02879665,-0.82264229
'00:13:02.264,0.059570,0.030273,1.003906,0.365854,1.402439,-0.609756,-5.143750,18.006250,19.750000,30.148,0.56773591,-0.00976842,-0.02879164,-0.82264911
'00:13:02.274,0.060059,0.029785,1.003418,0.304878,1.341463,-0.548781,-5.143750,18.006250,19.750000,30.027,0.56772983,-0.00976382,-0.02878413,-0.82265362
'00:13:02.284,0.059082,0.029297,1.002930,0.304878,1.341463,-0.548781,-4.850000,17.506250,19.375000,30.088,0.56773360,-0.00976555,-0.02878167,-0.82265109
'00:13:02.294,0.060059,0.029785,1.003418,0.304878,1.341463,-0.609756,-5.156250,17.956251,19.662500,30.057,0.56772153,-0.00975923,-0.02877249,-0.82265981
'00:13:02.304,0.058594,0.029297,1.003418,0.365854,1.280488,-0.548781,-5.156250,17.956251,19.662500,30.103,0.56771393,-0.00974848,-0.02876259,-0.82266553
'00:13:02.314,0.059082,0.030273,1.003906,0.304878,1.341463,-0.609756,-5.093750,17.868750,19.556250,30.088,0.56770445,-0.00973736,-0.02875544,-0.82267245
'00:13:02.324,0.061035,0.028809,1.004395,0.365854,1.280488,-0.609756,-5.093750,17.868750,19.556250,30.072,0.56769519,-0.00974391,-0.02875493,-0.82267879
'00:13:02.335,0.060059,0.029785,1.004883,0.304878,1.341463,-0.609756,-5.262500,18.131250,19.750000,30.088,0.56767859,-0.00973340,-0.02874069,-0.82269086
'00:13:02.344,0.060059,0.028809,1.003418,0.304878,1.341463,-0.609756,-5.262500,18.131250,19.750000,30.088,0.56766526,-0.00972861,-0.02872500,-0.82270067
'00:13:02.354,0.060059,0.029297,1.001465,0.365854,1.341463,-0.548781,-5.056250,17.843750,19.537500,30.057,0.56766262,-0.00972651,-0.02872445,-0.82270253
'00:13:02.364,0.060059,0.030762,1.002930,0.365854,1.341463,-0.548781,-5.056250,17.843750,19.537500,30.103,0.56765970,-0.00971847,-0.02873152,-0.82270439
'00:13:02.375,0.059570,0.030273,1.003418,0.304878,1.341463,-0.609756,-4.912500,17.693750,19.462500,30.118,0.56765898,-0.00971886,-0.02873752,-0.82270467
'00:13:02.384,0.060059,0.029785,1.003418,0.304878,1.341463,-0.609756,-4.912500,17.693750,19.462500,30.027,0.56765846,-0.00972330,-0.02874155,-0.82270484
'00:13:02.394,0.060547,0.029297,1.003418,0.304878,1.341463,-0.609756,-4.850000,17.556250,19.400000,30.072,0.56765926,-0.00973455,-0.02874678,-0.82270397
'00:13:02.404,0.060547,0.029297,1.003418,0.304878,1.341463,-0.609756,-4.850000,17.556250,19.400000,30.072,0.56766003,-0.00974562,-0.02875190,-0.82270313
'00:13:02.416,0.060059,0.029785,1.004883,0.426829,1.402439,-0.548781,-4.843750,17.462500,19.350000,30.088,0.56766448,-0.00973919,-0.02876309,-0.82269975
'00:13:02.424,0.060059,0.029785,1.004883,0.426829,1.402439,-0.548781,-4.843750,17.462500,19.350000,30.088,0.56766742,-0.00973495,-0.02877040,-0.82269751
'00:13:02.434,0.059570,0.029297,1.004395,0.304878,1.341463,-0.548781,-4.862500,17.618750,19.431250,30.103,0.56767303,-0.00974067,-0.02877136,-0.82269354
'00:13:02.444,0.060059,0.028809,1.002441,0.426829,1.341463,-0.609756,-4.862500,17.618750,19.431250,30.088,0.56767441,-0.00974514,-0.02878096,-0.82269220
'00:13:02.454,0.059082,0.029785,1.001953,0.304878,1.280488,-0.609756,-5.212500,18.018751,19.706251,30.027,0.56766000,-0.00973644,-0.02876918,-0.82270265
'00:13:02.464,0.060059,0.030273,1.002930,0.365854,1.280488,-0.548781,-5.212500,18.018751,19.706251,30.088,0.56764999,-0.00972830,-0.02876797,-0.82270970
'00:13:02.474,0.058594,0.029785,1.003418,0.365854,1.280488,-0.609756,-5.187500,18.062500,19.700001,30.103,0.56763847,-0.00971598,-0.02876137,-0.82271803
'00:13:02.484,0.059570,0.029297,1.002930,0.304878,1.280488,-0.609756,-5.187500,18.062500,19.700001,30.057,0.56762704,-0.00971416,-0.02875174,-0.82272627
'00:13:02.496,0.061035,0.028809,1.003906,0.365854,1.341463,-0.609756,-4.831250,17.481251,19.375000,30.118,0.56762783,-0.00972980,-0.02876156,-0.82272520
'00:13:02.504,0.061035,0.028809,1.003906,0.365854,1.341463,-0.609756,-4.831250,17.481251,19.375000,30.118,0.56762832,-0.00974002,-0.02876796,-0.82272452
'00:13:02.514,0.060547,0.029297,1.003906,0.304878,1.341463,-0.609756,-4.806250,17.512501,19.318750,30.072,0.56763150,-0.00975282,-0.02877519,-0.82272192
'00:13:02.524,0.059570,0.030273,1.002930,0.365854,1.341463,-0.548781,-4.806250,17.512501,19.318750,30.057,0.56763888,-0.00975350,-0.02878878,-0.82271634
'00:13:02.536,0.060547,0.030273,1.002930,0.304878,1.341463,-0.609756,-4.806250,17.475000,19.350000,30.118,0.56764108,-0.00976368,-0.02880296,-0.82271420
'00:13:02.544,0.060059,0.029785,1.003418,0.365854,1.341463,-0.548781,-4.806250,17.475000,19.350000,30.057,0.56764615,-0.00976732,-0.02881178,-0.82271035
'00:13:02.554,0.060547,0.029297,1.004395,0.304878,1.341463,-0.548781,-4.968750,17.650000,19.412500,30.088,0.56764517,-0.00977180,-0.02880843,-0.82271110
'00:13:02.564,0.058594,0.028320,1.004883,0.365854,1.341463,-0.548781,-5.175000,18.031250,19.675001,30.163,0.56763855,-0.00976008,-0.02878964,-0.82271646
'00:13:02.576,0.059082,0.027832,1.004395,0.365854,1.402439,-0.609756,-5.175000,18.031250,19.675001,30.072,0.56762573,-0.00974639,-0.02876315,-0.82272640
'00:13:02.584,0.060547,0.028809,1.003418,0.304878,1.280488,-0.548781,-5.087500,17.925001,19.656250,30.133,0.56762302,-0.00975342,-0.02875936,-0.82272832
'00:13:02.594,0.060547,0.030273,1.003418,0.426829,1.341463,-0.609756,-5.087500,17.925001,19.656250,30.042,0.56761521,-0.00974592,-0.02876863,-0.82273347
'00:13:02.606,0.059082,0.030273,1.001953,0.365854,1.341463,-0.609756,-5.331250,18.181250,19.768751,30.133,0.56759327,-0.00971958,-0.02875403,-0.82274943
'00:13:02.617,0.059082,0.031250,1.001953,0.365854,1.341463,-0.609756,-5.331250,18.181250,19.768751,30.088,0.56757308,-0.00969188,-0.02874689,-0.82276393
'00:13:02.624,0.061035,0.029785,1.003906,0.365854,1.341463,-0.548781,-4.887500,17.518751,19.387501,30.088,0.56757447,-0.00969671,-0.02875419,-0.82276266
'00:13:02.634,0.060547,0.029297,1.004395,0.365854,1.341463,-0.548781,-4.887500,17.518751,19.387501,30.103,0.56757656,-0.00970264,-0.02875966,-0.82276096
'00:13:02.644,0.059570,0.028320,1.005859,0.365854,1.280488,-0.548781,-4.956250,17.631250,19.431250,30.088,0.56757648,-0.00970842,-0.02875555,-0.82276109
'00:13:02.657,0.058594,0.028809,1.004883,0.365854,1.341463,-0.609756,-4.956250,17.631250,19.431250,30.057,0.56757078,-0.00970078,-0.02874562,-0.82276545
'00:13:02.664,0.059082,0.029785,1.003418,0.304878,1.341463,-0.609756,-5.081250,17.900000,19.625000,30.103,0.56756551,-0.00969610,-0.02874048,-0.82276932
'00:13:02.674,0.057617,0.030273,1.001465,0.365854,1.402439,-0.548781,-5.081250,17.900000,19.625000,30.057,0.56756252,-0.00967275,-0.02873246,-0.82277194
'00:13:02.684,0.060059,0.030273,1.001953,0.365854,1.280488,-0.609756,-4.912500,17.650000,19.518751,30.148,0.56756085,-0.00967800,-0.02874700,-0.82277253
'00:13:02.696,0.060059,0.029785,1.002930,0.304878,1.280488,-0.548781,-4.912500,17.650000,19.518751,30.088,0.56756412,-0.00969003,-0.02875505,-0.82276984
'00:13:02.704,0.059570,0.029785,1.002930,0.304878,1.341463,-0.548781,-4.800000,17.525000,19.456251,30.088,0.56757049,-0.00969626,-0.02876114,-0.82276517
'00:13:02.715,0.061523,0.028809,1.004883,0.304878,1.280488,-0.548781,-4.800000,17.525000,19.456251,30.072,0.56757917,-0.00972524,-0.02877400,-0.82275838
'00:13:02.724,0.059570,0.029297,1.004395,0.304878,1.341463,-0.609756,-5.081250,17.893751,19.643751,30.133,0.56757218,-0.00972271,-0.02876562,-0.82276353
'00:13:02.735,0.060059,0.029297,1.003906,0.365854,1.341463,-0.548781,-5.081250,17.893751,19.643751,30.057,0.56756852,-0.00971959,-0.02876256,-0.82276620
'00:13:02.744,0.059570,0.029785,1.003418,0.304878,1.341463,-0.609756,-4.837500,17.443750,19.325001,30.103,0.56756806,-0.00972248,-0.02876492,-0.82276640
'00:13:02.754,0.060059,0.030273,1.002441,0.304878,1.341463,-0.548781,-4.837500,17.443750,19.325001,30.088,0.56757178,-0.00972678,-0.02877251,-0.82276352
'00:13:02.764,0.059570,0.029785,1.001953,0.365854,1.341463,-0.548781,-5.031250,17.800001,19.500000,30.072,0.56757008,-0.00972100,-0.02877312,-0.82276474
'00:13:02.774,0.059570,0.029785,1.003418,0.304878,1.280488,-0.609756,-5.031250,17.800001,19.500000,30.072,0.56756382,-0.00972225,-0.02877185,-0.82276908
'00:13:02.784,0.061035,0.028809,1.005371,0.365854,1.402439,-0.548781,-5.037500,17.781250,19.537500,30.103,0.56756147,-0.00972270,-0.02876724,-0.82277086
'00:13:02.794,0.060059,0.029297,1.004883,0.304878,1.280488,-0.609756,-5.037500,17.781250,19.537500,30.133,0.56755434,-0.00972767,-0.02876364,-0.82277585
'00:13:02.804,0.059570,0.028320,1.004395,0.365854,1.402439,-0.548781,-4.793750,17.406250,19.250000,30.133,0.56756123,-0.00973109,-0.02876157,-0.82277113
'00:13:02.814,0.060059,0.028809,1.002930,0.304878,1.341463,-0.609756,-4.793750,17.468750,19.343750,30.057,0.56756449,-0.00974395,-0.02876476,-0.82276862
'00:13:02.824,0.059082,0.030273,1.003418,0.365854,1.341463,-0.548781,-4.793750,17.468750,19.343750,30.118,0.56757187,-0.00974240,-0.02877656,-0.82276313
'00:13:02.834,0.060547,0.029297,1.002930,0.304878,1.341463,-0.548781,-4.800000,17.512501,19.362501,30.057,0.56757983,-0.00975622,-0.02878459,-0.82275720
'00:13:02.844,0.059082,0.030762,1.002441,0.365854,1.280488,-0.609756,-4.800000,17.512501,19.362501,30.133,0.56758299,-0.00975717,-0.02880276,-0.82275437
'00:13:02.857,0.059570,0.030273,1.004883,0.365854,1.341463,-0.548781,-5.268750,18.175001,19.775000,30.088,0.56756998,-0.00973567,-0.02879280,-0.82276395
'00:13:02.864,0.060547,0.028320,1.004395,0.243902,1.280488,-0.609756,-5.268750,18.175001,19.775000,30.103,0.56756005,-0.00974044,-0.02877883,-0.82277123
'00:13:02.874,0.059082,0.029785,1.004883,0.304878,1.341463,-0.670732,-4.987500,17.718750,19.481251,30.133,0.56755072,-0.00973532,-0.02877347,-0.82277791
'00:13:02.884,0.059082,0.029297,1.003418,0.365854,1.402439,-0.609756,-4.987500,17.718750,19.481251,30.088,0.56754610,-0.00972528,-0.02876738,-0.82278143
'00:13:02.898,0.060059,0.030762,1.002930,0.304878,1.341463,-0.548781,-5.093750,17.862501,19.593750,30.057,0.56753912,-0.00971616,-0.02876721,-0.82278635
'00:13:02.904,0.060547,0.030762,1.002441,0.304878,1.341463,-0.548781,-5.093750,17.862501,19.593750,30.103,0.56753615,-0.00971400,-0.02876839,-0.82278839
'00:13:02.914,0.060059,0.028809,1.001953,0.304878,1.280488,-0.609756,-4.850000,17.575001,19.381250,30.133,0.56753779,-0.00972981,-0.02877305,-0.82278691
'00:13:02.924,0.060059,0.030762,1.003418,0.304878,1.280488,-0.609756,-4.850000,17.575001,19.381250,30.057,0.56753899,-0.00973737,-0.02878809,-0.82278547
'00:13:02.934,0.059570,0.029785,1.004883,0.426829,1.341463,-0.609756,-4.812500,17.500000,19.306250,30.088,0.56754179,-0.00973628,-0.02880192,-0.82278307
'00:13:02.944,0.061523,0.029297,1.003418,0.304878,1.341463,-0.548781,-4.812500,17.500000,19.306250,30.103,0.56754882,-0.00975437,-0.02881203,-0.82277764
'00:13:02.954,0.059570,0.028809,1.004395,0.365854,1.341463,-0.609756,-4.868750,17.543751,19.418751,30.072,0.56754831,-0.00975736,-0.02881205,-0.82277796
'00:13:02.964,0.059082,0.029297,1.001465,0.365854,1.341463,-0.609756,-4.868750,17.543751,19.418751,30.088,0.56754768,-0.00975631,-0.02881410,-0.82277833
'00:13:02.978,0.059082,0.029785,1.003906,0.365854,1.341463,-0.548781,-5.081250,17.918751,19.693750,30.103,0.56754336,-0.00974218,-0.02880842,-0.82278168
'00:13:02.984,0.059570,0.031738,1.003418,0.365854,1.341463,-0.609756,-5.081250,17.918751,19.693750,30.088,0.56753866,-0.00973329,-0.02881388,-0.82278484
'00:13:02.994,0.059570,0.029785,1.003906,0.304878,1.341463,-0.548781,-4.868750,17.512501,19.381250,30.118,0.56754173,-0.00973552,-0.02881458,-0.82278267
'00:13:03.007,0.060059,0.029785,1.003906,0.304878,1.341463,-0.548781,-4.868750,17.512501,19.381250,30.042,0.56754569,-0.00974188,-0.02881791,-0.82277975
'00:13:03.014,0.060547,0.028809,1.003906,0.365854,1.341463,-0.548781,-4.968750,17.756250,19.587500,30.088,0.56754660,-0.00974616,-0.02881853,-0.82277904
'00:13:03.025,0.060059,0.029785,1.004883,0.304878,1.280488,-0.548781,-4.968750,17.756250,19.587500,30.072,0.56754761,-0.00975358,-0.02882156,-0.82277816
'00:13:03.034,0.060059,0.029785,1.003906,0.365854,1.341463,-0.548781,-4.818750,17.506250,19.356251,30.103,0.56755343,-0.00975763,-0.02883110,-0.82277376
'00:13:03.044,0.060547,0.029785,1.001953,0.365854,1.341463,-0.548781,-4.818750,17.506250,19.356251,30.088,0.56755982,-0.00976518,-0.02884419,-0.82276880
'00:13:03.054,0.059082,0.029297,1.002930,0.365854,1.341463,-0.609756,-4.762500,17.481251,19.281250,30.042,0.56756563,-0.00976894,-0.02885226,-0.82276447
'00:13:03.064,0.060547,0.029785,1.003906,0.304878,1.280488,-0.609756,-4.762500,17.481251,19.281250,30.118,0.56757103,-0.00978599,-0.02886686,-0.82276003
'00:13:03.074,0.060059,0.029297,1.003906,0.365854,1.280488,-0.609756,-5.081250,17.906250,19.662500,30.133,0.56756310,-0.00978649,-0.02886567,-0.82276553
'00:13:03.084,0.059082,0.029785,1.002930,0.243902,1.341463,-0.548781,-4.937500,17.675001,19.456251,30.057,0.56756468,-0.00978657,-0.02885792,-0.82276471
'00:13:03.094,0.061035,0.029785,1.003906,0.365854,1.341463,-0.548781,-4.937500,17.675001,19.456251,30.042,0.56756631,-0.00979115,-0.02886614,-0.82276325
'00:13:03.104,0.059082,0.028809,1.003418,0.365854,1.341463,-0.609756,-5.025000,17.775000,19.531250,30.027,0.56755990,-0.00978502,-0.02885707,-0.82276806
'00:13:03.114,0.059570,0.029297,1.003418,0.304878,1.341463,-0.548781,-5.025000,17.775000,19.531250,30.103,0.56755774,-0.00978297,-0.02884836,-0.82276988
'00:13:03.124,0.059570,0.029297,1.003418,0.304878,1.341463,-0.548781,-5.006250,17.818750,19.525000,30.103,0.56755794,-0.00978267,-0.02884229,-0.82276996
'00:13:03.134,0.060547,0.029785,1.003418,0.365854,1.341463,-0.609756,-5.006250,17.818750,19.525000,30.088,0.56755370,-0.00978266,-0.02884720,-0.82277272
'00:13:03.144,0.059570,0.029785,1.003418,0.304878,1.341463,-0.548781,-4.900000,17.637501,19.425001,30.103,0.56755720,-0.00978409,-0.02884791,-0.82277025
'00:13:03.154,0.060059,0.029297,1.003418,0.304878,1.341463,-0.548781,-4.900000,17.637501,19.425001,30.103,0.56756078,-0.00979010,-0.02884771,-0.82276772
'00:13:03.164,0.060059,0.029297,1.003906,0.304878,1.341463,-0.609756,-5.075000,17.912500,19.625000,30.118,0.56755373,-0.00978959,-0.02884019,-0.82277285
'00:13:03.174,0.060547,0.029785,1.004395,0.304878,1.402439,-0.548781,-5.075000,17.912500,19.625000,30.072,0.56755113,-0.00978557,-0.02883412,-0.82277491
'00:13:03.184,0.060059,0.029785,1.003906,0.304878,1.341463,-0.609756,-5.143750,18.025000,19.731251,30.042,0.56754166,-0.00978112,-0.02882688,-0.82278174
'00:13:03.194,0.059082,0.030762,1.003418,0.243902,1.341463,-0.609756,-5.143750,18.025000,19.731251,30.057,0.56753201,-0.00977082,-0.02881733,-0.82278886
'00:13:03.204,0.060547,0.029785,1.002441,0.365854,1.280488,-0.548781,-4.806250,17.537500,19.337500,30.088,0.56754002,-0.00978366,-0.02883530,-0.82278255
'00:13:03.214,0.060547,0.028320,1.004883,0.304878,1.280488,-0.548781,-4.806250,17.537500,19.337500,30.057,0.56754823,-0.00980449,-0.02883925,-0.82277651
'00:13:03.225,0.059570,0.029785,1.003906,0.365854,1.341463,-0.609756,-4.762500,17.400000,19.362501,30.088,0.56755193,-0.00980768,-0.02885053,-0.82277352
'00:13:03.234,0.059570,0.029785,1.004395,0.304878,1.341463,-0.609756,-4.762500,17.400000,19.362501,30.057,0.56755489,-0.00981284,-0.02885547,-0.82277125
'00:13:03.244,0.059082,0.030273,1.004883,0.365854,1.341463,-0.609756,-4.756250,17.462500,19.306250,30.103,0.56756030,-0.00981180,-0.02886807,-0.82276708
'00:13:03.255,0.061035,0.029785,1.003906,0.365854,1.402439,-0.548781,-4.756250,17.462500,19.306250,30.088,0.56757119,-0.00982028,-0.02888398,-0.82275891
'00:13:03.264,0.060059,0.029297,1.002930,0.365854,1.341463,-0.548781,-5.087500,17.962500,19.637501,30.088,0.56756894,-0.00981693,-0.02888105,-0.82276060
'00:13:03.275,0.060059,0.029785,1.002930,0.304878,1.341463,-0.548781,-5.087500,17.962500,19.637501,30.072,0.56756604,-0.00981415,-0.02887571,-0.82276282
'00:13:03.286,0.058594,0.029297,1.002930,0.304878,1.341463,-0.609756,-5.100000,17.987501,19.593750,30.103,0.56755843,-0.00980403,-0.02886122,-0.82276870
'00:13:03.294,0.059570,0.029297,1.004395,0.304878,1.341463,-0.548781,-5.100000,17.987501,19.593750,30.118,0.56755644,-0.00980094,-0.02885337,-0.82277039
'00:13:03.304,0.058594,0.028809,1.004395,0.304878,1.341463,-0.609756,-4.900000,17.593750,19.450001,30.103,0.56755462,-0.00979960,-0.02884317,-0.82277202
'00:13:03.316,0.059570,0.030273,1.004395,0.365854,1.341463,-0.548781,-4.900000,17.593750,19.450001,30.072,0.56755737,-0.00979421,-0.02885082,-0.82276992
'00:13:03.324,0.059082,0.029785,1.004883,0.365854,1.341463,-0.548781,-4.775000,17.431250,19.325001,30.057,0.56756359,-0.00979402,-0.02885687,-0.82276542
'00:13:03.334,0.060547,0.030273,1.003906,0.304878,1.341463,-0.548781,-4.775000,17.431250,19.325001,30.088,0.56757109,-0.00980322,-0.02886881,-0.82275971
'00:13:03.345,0.059570,0.030273,1.002930,0.426829,1.341463,-0.548781,-4.768750,17.462500,19.306250,30.072,0.56758084,-0.00980158,-0.02888898,-0.82275230
'00:13:03.354,0.061035,0.029297,1.003906,0.365854,1.402439,-0.548781,-4.831250,17.593750,19.356251,30.072,0.56758766,-0.00980780,-0.02889653,-0.82274726
'00:13:03.364,0.061035,0.029297,1.003906,0.365854,1.280488,-0.548781,-4.831250,17.593750,19.356251,30.088,0.56759489,-0.00982333,-0.02891080,-0.82274158
'00:13:03.374,0.060547,0.028809,1.003906,0.365854,1.341463,-0.548781,-4.993750,17.800001,19.575001,30.057,0.56759511,-0.00982697,-0.02890906,-0.82274145
'00:13:03.384,0.060547,0.029785,1.003906,0.304878,1.341463,-0.609756,-4.993750,17.800001,19.575001,30.103,0.56759070,-0.00982962,-0.02890851,-0.82274448
'00:13:03.394,0.060059,0.029297,1.003418,0.365854,1.341463,-0.609756,-4.918750,17.643751,19.506250,30.088,0.56758817,-0.00983075,-0.02891005,-0.82274615
'00:13:03.404,0.060547,0.030273,1.002930,0.365854,1.341463,-0.609756,-4.918750,17.643751,19.506250,30.103,0.56758542,-0.00983083,-0.02891918,-0.82274773
'00:13:03.414,0.059570,0.029785,1.004395,0.304878,1.341463,-0.548781,-4.737500,17.475000,19.287500,30.133,0.56759669,-0.00983854,-0.02892730,-0.82273958
'00:13:03.424,0.059570,0.029297,1.004395,0.304878,1.341463,-0.548781,-4.737500,17.475000,19.287500,30.088,0.56760801,-0.00984801,-0.02893244,-0.82273148
'00:13:03.438,0.061035,0.029297,1.003418,0.365854,1.341463,-0.548781,-5.025000,17.856251,19.675001,30.103,0.56760629,-0.00985258,-0.02893433,-0.82273254
'00:13:03.444,0.059570,0.029297,1.003906,0.304878,1.341463,-0.548781,-5.025000,17.856251,19.675001,30.088,0.56760555,-0.00985142,-0.02892902,-0.82273325
'00:13:03.454,0.059570,0.029785,1.002930,0.304878,1.341463,-0.609756,-4.862500,17.568750,19.400000,30.118,0.56760530,-0.00985274,-0.02892965,-0.82273338
'00:13:03.464,0.059570,0.029297,1.004883,0.304878,1.280488,-0.609756,-4.862500,17.568750,19.400000,30.103,0.56760502,-0.00985991,-0.02892975,-0.82273349
'00:13:03.474,0.059570,0.029785,1.002930,0.365854,1.402439,-0.609756,-5.200000,18.081251,19.737501,30.088,0.56759286,-0.00984179,-0.02891777,-0.82274251
'00:13:03.484,0.060059,0.029297,1.003906,0.304878,1.341463,-0.548781,-5.200000,18.081251,19.737501,29.997,0.56758506,-0.00983584,-0.02890342,-0.82274847
'00:13:03.494,0.059570,0.030273,1.004395,0.365854,1.341463,-0.548781,-5.025000,17.900000,19.637501,30.133,0.56758501,-0.00982787,-0.02890598,-0.82274851
'00:13:03.504,0.060547,0.028809,1.003906,0.365854,1.341463,-0.548781,-5.025000,17.900000,19.637501,30.088,0.56758524,-0.00983114,-0.02890423,-0.82274837
'00:13:03.514,0.059570,0.029297,1.002930,0.304878,1.280488,-0.548781,-4.787500,17.531250,19.343750,30.103,0.56759406,-0.00984328,-0.02891067,-0.82274192
'00:13:03.524,0.060059,0.029785,1.004395,0.365854,1.341463,-0.548781,-4.787500,17.531250,19.343750,30.103,0.56760290,-0.00984828,-0.02892241,-0.82273535
'00:13:03.534,0.061035,0.028320,1.004395,0.365854,1.341463,-0.609756,-4.750000,17.425001,19.318750,30.133,0.56760778,-0.00986507,-0.02892984,-0.82273152
'00:13:03.544,0.060059,0.028809,1.004883,0.304878,1.280488,-0.548781,-4.750000,17.425001,19.318750,30.042,0.56761671,-0.00988164,-0.02893450,-0.82272499
'00:13:03.554,0.061035,0.029785,1.004395,0.365854,1.341463,-0.609756,-4.975000,17.718750,19.525000,30.118,0.56761169,-0.00988279,-0.02893900,-0.82272829
'00:13:03.564,0.060547,0.029785,1.002930,0.304878,1.341463,-0.548781,-4.975000,17.718750,19.525000,30.088,0.56761099,-0.00988474,-0.02893774,-0.82272879
'00:13:03.574,0.059570,0.030273,1.001953,0.365854,1.341463,-0.548781,-5.006250,17.800001,19.500000,30.088,0.56761018,-0.00987580,-0.02893990,-0.82272938
'00:13:03.584,0.060547,0.029785,1.003418,0.365854,1.341463,-0.609756,-5.006250,17.800001,19.500000,30.088,0.56760508,-0.00987375,-0.02894251,-0.82273283
'00:13:03.594,0.059082,0.030273,1.004395,0.365854,1.341463,-0.548781,-5.125000,17.975000,19.712500,30.118,0.56759959,-0.00985783,-0.02893657,-0.82273702
'00:13:03.604,0.059570,0.030273,1.003906,0.365854,1.341463,-0.609756,-4.775000,17.462500,19.275000,30.118,0.56760341,-0.00985749,-0.02894846,-0.82273397
'00:13:03.614,0.060547,0.029297,1.003418,0.304878,1.341463,-0.548781,-4.775000,17.462500,19.275000,30.133,0.56761168,-0.00986967,-0.02895412,-0.82272792
'00:13:03.624,0.059570,0.029785,1.003906,0.304878,1.341463,-0.609756,-4.800000,17.518751,19.387501,30.118,0.56761456,-0.00987357,-0.02895763,-0.82272576
'00:13:03.634,0.060547,0.028809,1.004395,0.365854,1.341463,-0.609756,-4.800000,17.518751,19.387501,30.057,0.56761765,-0.00988357,-0.02896345,-0.82272331
'00:13:03.644,0.059082,0.028809,1.003418,0.426829,1.341463,-0.548781,-4.781250,17.487501,19.306250,30.088,0.56762609,-0.00988309,-0.02896909,-0.82271729
'00:13:03.654,0.059082,0.030762,1.001953,0.365854,1.341463,-0.609756,-4.781250,17.487501,19.306250,30.012,0.56762964,-0.00987803,-0.02898203,-0.82271444
'00:13:03.664,0.060059,0.029785,1.001465,0.365854,1.341463,-0.609756,-5.037500,17.856251,19.556250,30.118,0.56762339,-0.00987265,-0.02898165,-0.82271884
'00:13:03.674,0.059570,0.030273,1.002930,0.304878,1.280488,-0.548781,-5.037500,17.856251,19.556250,30.072,0.56762125,-0.00987004,-0.02898019,-0.82272039
'00:13:03.684,0.060059,0.028809,1.003906,0.365854,1.341463,-0.548781,-5.050000,17.800001,19.562500,30.057,0.56761745,-0.00986673,-0.02897109,-0.82272338
'00:13:03.695,0.060059,0.028320,1.004395,0.365854,1.341463,-0.548781,-5.050000,17.800001,19.562500,30.057,0.56761341,-0.00986512,-0.02895806,-0.82272664
'00:13:03.704,0.060059,0.029785,1.004395,0.365854,1.341463,-0.609756,-4.931250,17.681250,19.450001,30.088,0.56761109,-0.00986325,-0.02896081,-0.82272817
'00:13:03.714,0.060059,0.028809,1.002930,0.365854,1.341463,-0.609756,-4.931250,17.681250,19.450001,30.042,0.56760871,-0.00986532,-0.02895891,-0.82272985
'00:13:03.724,0.061035,0.029297,1.002930,0.365854,1.280488,-0.609756,-4.818750,17.525000,19.306250,30.088,0.56761071,-0.00987956,-0.02897188,-0.82272784
'00:13:03.734,0.059570,0.031250,1.001953,0.365854,1.341463,-0.548781,-4.818750,17.525000,19.306250,30.103,0.56761683,-0.00987375,-0.02898737,-0.82272315
'00:13:03.744,0.059082,0.030762,1.002441,0.304878,1.341463,-0.548781,-4.812500,17.506250,19.293751,30.072,0.56762302,-0.00987020,-0.02899344,-0.82271870
'00:13:03.754,0.059570,0.030273,1.002930,0.365854,1.341463,-0.609756,-4.812500,17.506250,19.293751,30.118,0.56762496,-0.00986804,-0.02900273,-0.82271706
'00:13:03.764,0.060059,0.029785,1.004883,0.365854,1.341463,-0.609756,-4.768750,17.537500,19.337500,30.057,0.56763062,-0.00987340,-0.02901430,-0.82271269
'00:13:03.774,0.059082,0.029297,1.004883,0.304878,1.280488,-0.548781,-4.768750,17.537500,19.337500,30.118,0.56764054,-0.00988268,-0.02901767,-0.82270561
'00:13:03.784,0.059570,0.029785,1.004883,0.304878,1.341463,-0.548781,-4.962500,17.762501,19.575001,30.072,0.56764134,-0.00988011,-0.02901240,-0.82270528
'00:13:03.795,0.060059,0.028320,1.003418,0.304878,1.341463,-0.548781,-4.962500,17.762501,19.575001,30.057,0.56764254,-0.00988692,-0.02900030,-0.82270479
'00:13:03.804,0.060059,0.030273,1.004883,0.365854,1.341463,-0.609756,-5.137500,18.018751,19.693750,30.088,0.56763367,-0.00987666,-0.02899735,-0.82271114
'00:13:03.814,0.059570,0.029297,1.001465,0.304878,1.341463,-0.609756,-5.137500,18.018751,19.693750,30.088,0.56762400,-0.00987027,-0.02898387,-0.82271837
'00:13:03.824,0.059570,0.029785,1.002441,0.304878,1.341463,-0.548781,-4.800000,17.468750,19.356251,30.118,0.56763008,-0.00987375,-0.02898623,-0.82271404
'00:13:03.834,0.060547,0.029785,1.003906,0.365854,1.341463,-0.548781,-4.800000,17.468750,19.356251,30.088,0.56763616,-0.00987927,-0.02899610,-0.82270944
'00:13:03.845,0.060059,0.028809,1.004395,0.304878,1.341463,-0.548781,-4.737500,17.443750,19.400000,30.103,0.56764697,-0.00989380,-0.02899815,-0.82270173
'00:13:03.854,0.058594,0.029785,1.003906,0.365854,1.341463,-0.548781,-4.737500,17.443750,19.400000,30.148,0.56765568,-0.00989193,-0.02900375,-0.82269554
'00:13:03.864,0.060059,0.028809,1.004883,0.365854,1.341463,-0.609756,-4.793750,17.437500,19.318750,30.148,0.56765733,-0.00989768,-0.02900523,-0.82269429
'00:13:03.874,0.060059,0.028809,1.004883,0.365854,1.341463,-0.609756,-5.125000,17.962500,19.668751,30.148,0.56764731,-0.00989157,-0.02899333,-0.82270169
'00:13:03.884,0.060059,0.030273,1.003418,0.365854,1.341463,-0.548781,-5.125000,17.962500,19.668751,30.103,0.56764142,-0.00988044,-0.02899030,-0.82270599
'00:13:03.894,0.059570,0.029297,1.003906,0.365854,1.341463,-0.548781,-5.150000,18.012501,19.625000,30.118,0.56763548,-0.00986963,-0.02897942,-0.82271061
'00:13:03.904,0.060547,0.029785,1.001953,0.365854,1.341463,-0.548781,-5.150000,18.012501,19.625000,30.088,0.56762946,-0.00986285,-0.02897588,-0.82271497
'00:13:03.914,0.059570,0.029297,1.003418,0.365854,1.341463,-0.548781,-4.793750,17.543751,19.312500,30.103,0.56763814,-0.00986645,-0.02898199,-0.82270872
'00:13:03.924,0.060059,0.029785,1.003418,0.304878,1.341463,-0.609756,-4.793750,17.543751,19.312500,30.072,0.56764223,-0.00987360,-0.02898830,-0.82270559
'00:13:03.934,0.060547,0.029297,1.004395,0.365854,1.341463,-0.548781,-4.825000,17.568750,19.293751,30.118,0.56764928,-0.00988050,-0.02899572,-0.82270038
'00:13:03.944,0.060059,0.029297,1.004395,0.365854,1.341463,-0.548781,-4.825000,17.568750,19.293751,30.088,0.56765631,-0.00988457,-0.02900110,-0.82269529
'00:13:03.954,0.061035,0.030273,1.004883,0.304878,1.341463,-0.609756,-4.812500,17.500000,19.362501,30.088,0.56765756,-0.00989291,-0.02901032,-0.82269400
'00:13:03.964,0.060547,0.029297,1.002930,0.365854,1.280488,-0.548781,-4.812500,17.500000,19.362501,30.088,0.56766326,-0.00990420,-0.02902004,-0.82268959
'00:13:03.974,0.058594,0.029297,1.003906,0.365854,1.341463,-0.609756,-4.862500,17.581251,19.312500,30.072,0.56766344,-0.00989761,-0.02901690,-0.82268966
'00:13:03.984,0.060059,0.029785,1.002930,0.365854,1.341463,-0.548781,-4.862500,17.581251,19.312500,30.072,0.56766785,-0.00989767,-0.02902254,-0.82268642
'00:13:03.994,0.059570,0.030273,1.002441,0.304878,1.341463,-0.548781,-5.081250,17.925001,19.625000,30.148,0.56766400,-0.00988880,-0.02901559,-0.82268943
'00:13:04.004,0.059570,0.030273,1.003418,0.365854,1.280488,-0.609756,-5.081250,17.925001,19.625000,30.118,0.56765572,-0.00988108,-0.02901585,-0.82269522
'00:13:04.014,0.059082,0.028809,1.002930,0.304878,1.341463,-0.548781,-5.256250,18.156250,19.737501,30.072,0.56764565,-0.00986887,-0.02899144,-0.82270318
'00:13:04.024,0.060059,0.029785,1.004395,0.365854,1.402439,-0.609756,-5.256250,18.156250,19.737501,30.057,0.56763130,-0.00985060,-0.02897733,-0.82271379
'00:13:04.037,0.061035,0.029785,1.003906,0.365854,1.402439,-0.548781,-5.412500,18.387501,19.900000,30.118,0.56761150,-0.00982782,-0.02895644,-0.82272846
'00:13:04.045,0.061035,0.029785,1.003906,0.365854,1.402439,-0.548781,-5.412500,18.387501,19.900000,30.118,0.56759941,-0.00981412,-0.02894392,-0.82273741
'00:13:04.054,0.059570,0.029297,1.002930,0.304878,1.280488,-0.609756,-4.956250,17.675001,19.443750,30.103,0.56759549,-0.00981778,-0.02894029,-0.82274019
'00:13:04.064,0.058105,0.029785,1.003418,0.365854,1.341463,-0.609756,-4.956250,17.675001,19.443750,30.118,0.56759131,-0.00980433,-0.02893462,-0.82274344
'00:13:04.074,0.059570,0.029785,1.002441,0.365854,1.341463,-0.609756,-4.806250,17.518751,19.293751,30.118,0.56759441,-0.00980595,-0.02894331,-0.82274097
'00:13:04.084,0.059082,0.029785,1.004395,0.304878,1.280488,-0.609756,-4.806250,17.518751,19.293751,30.088,0.56759732,-0.00981180,-0.02894783,-0.82273874
'00:13:04.094,0.059570,0.030273,1.003906,0.304878,1.402439,-0.548781,-4.975000,17.868750,19.537500,30.072,0.56760037,-0.00980509,-0.02894576,-0.82273679
'00:13:04.105,0.060059,0.029297,1.004883,0.304878,1.341463,-0.548781,-4.937500,17.693750,19.525000,30.027,0.56760210,-0.00980934,-0.02894099,-0.82273571
'00:13:04.114,0.059082,0.029785,1.003418,0.365854,1.341463,-0.548781,-4.937500,17.693750,19.525000,30.088,0.56760349,-0.00980375,-0.02894070,-0.82273483
'00:13:04.124,0.059570,0.028809,1.003906,0.365854,1.402439,-0.609756,-4.756250,17.487501,19.275000,30.118,0.56760977,-0.00980715,-0.02894332,-0.82273036
'00:13:04.134,0.059082,0.029785,1.002441,0.365854,1.341463,-0.548781,-4.756250,17.487501,19.275000,30.088,0.56762005,-0.00980873,-0.02895310,-0.82272291
'00:13:04.145,0.060059,0.029785,1.003418,0.304878,1.341463,-0.609756,-4.787500,17.512501,19.331251,30.057,0.56762436,-0.00981770,-0.02896041,-0.82271957
'00:13:04.154,0.061035,0.030273,1.002930,0.426829,1.341463,-0.548781,-4.787500,17.512501,19.331251,30.088,0.56763173,-0.00982283,-0.02898016,-0.82271373
'00:13:04.164,0.060059,0.029297,1.002930,0.304878,1.280488,-0.548781,-4.775000,17.468750,19.356251,30.088,0.56763958,-0.00983752,-0.02898654,-0.82270791
'00:13:04.174,0.059570,0.029297,1.003906,0.304878,1.341463,-0.609756,-4.775000,17.468750,19.356251,30.057,0.56764317,-0.00984449,-0.02898751,-0.82270532
'00:13:04.185,0.059570,0.028320,1.004395,0.365854,1.341463,-0.548781,-4.768750,17.456251,19.293751,30.118,0.56765265,-0.00985304,-0.02898733,-0.82269868
'00:13:04.194,0.060059,0.028809,1.003418,0.304878,1.341463,-0.548781,-4.768750,17.456251,19.293751,30.118,0.56766019,-0.00986351,-0.02898776,-0.82269334
'00:13:04.204,0.059570,0.029297,1.003418,0.365854,1.402439,-0.548781,-4.981250,17.687500,19.518751,30.118,0.56765849,-0.00985373,-0.02897901,-0.82269494
'00:13:04.214,0.059082,0.029297,1.003418,0.304878,1.341463,-0.609756,-4.981250,17.687500,19.518751,30.118,0.56765227,-0.00984867,-0.02896724,-0.82269970
'00:13:04.225,0.059570,0.029297,1.003418,0.365854,1.341463,-0.548781,-4.875000,17.581251,19.462500,30.088,0.56765584,-0.00984834,-0.02896765,-0.82269723
'00:13:04.234,0.060547,0.029785,1.003906,0.304878,1.280488,-0.609756,-4.875000,17.581251,19.462500,30.027,0.56765450,-0.00985762,-0.02897252,-0.82269787
'00:13:04.244,0.059570,0.030273,1.004395,0.365854,1.280488,-0.548781,-4.825000,17.543751,19.418751,30.072,0.56766012,-0.00985991,-0.02898408,-0.82269356
'00:13:04.255,0.060547,0.029297,1.002930,0.426829,1.341463,-0.548781,-4.825000,17.543751,19.418751,30.057,0.56766666,-0.00986478,-0.02899674,-0.82268854
'00:13:04.267,0.060059,0.030273,1.002930,0.365854,1.341463,-0.548781,-4.800000,17.525000,19.306250,30.072,0.56767557,-0.00986684,-0.02901154,-0.82268185
'00:13:04.274,0.059082,0.029785,1.002930,0.304878,1.341463,-0.548781,-4.800000,17.525000,19.306250,30.088,0.56768080,-0.00986766,-0.02901234,-0.82267820
'00:13:04.284,0.060547,0.030273,1.002441,0.304878,1.341463,-0.548781,-4.800000,17.550001,19.393751,30.118,0.56768829,-0.00987570,-0.02902249,-0.82267258
'00:13:04.294,0.061035,0.029785,1.004395,0.365854,1.341463,-0.609756,-4.800000,17.550001,19.393751,30.057,0.56769151,-0.00988463,-0.02903518,-0.82266980
'00:13:04.304,0.060059,0.028809,1.004883,0.365854,1.341463,-0.609756,-5.050000,17.775000,19.550001,30.118,0.56768245,-0.00988006,-0.02902402,-0.82267650
'00:13:04.315,0.059570,0.028809,1.004883,0.365854,1.280488,-0.609756,-5.050000,17.775000,19.550001,30.103,0.56767239,-0.00987703,-0.02901326,-0.82268386
'00:13:04.324,0.059570,0.029297,1.004395,0.365854,1.341463,-0.609756,-4.950000,17.800001,19.575001,30.088,0.56767080,-0.00987481,-0.02901185,-0.82268503
'00:13:04.334,0.059570,0.029785,1.004395,0.304878,1.402439,-0.548781,-4.950000,17.800001,19.575001,30.088,0.56767342,-0.00986928,-0.02900561,-0.82268351
'00:13:04.347,0.059570,0.029297,1.001953,0.304878,1.341463,-0.609756,-4.781250,17.537500,19.337500,30.118,0.56767948,-0.00987872,-0.02900885,-0.82267910
'00:13:04.354,0.060059,0.029785,1.003418,0.304878,1.402439,-0.609756,-4.781250,17.537500,19.337500,30.072,0.56768274,-0.00988096,-0.02901128,-0.82267674
'00:13:04.365,0.059082,0.029785,1.003418,0.304878,1.280488,-0.609756,-4.781250,17.500000,19.287500,30.148,0.56768681,-0.00988735,-0.02901665,-0.82267367
'00:13:04.374,0.060059,0.030273,1.005371,0.304878,1.341463,-0.609756,-4.781250,17.500000,19.287500,30.057,0.56769012,-0.00989130,-0.02902342,-0.82267109
'00:13:04.386,0.060059,0.029297,1.004395,0.365854,1.341463,-0.609756,-4.806250,17.525000,19.337500,30.133,0.56769316,-0.00989645,-0.02902957,-0.82266872
'00:13:04.394,0.060547,0.028809,1.004395,0.304878,1.341463,-0.609756,-4.962500,17.737501,19.531250,30.103,0.56768994,-0.00990102,-0.02902344,-0.82267110
'00:13:04.404,0.060059,0.030273,1.003418,0.365854,1.341463,-0.548781,-4.962500,17.737501,19.531250,30.088,0.56769005,-0.00989564,-0.02902696,-0.82267096
'00:13:04.414,0.059570,0.029785,1.002441,0.304878,1.402439,-0.548781,-5.012500,17.712500,19.518751,30.088,0.56768644,-0.00988504,-0.02901441,-0.82267403
'00:13:04.427,0.059082,0.029785,1.001953,0.365854,1.341463,-0.548781,-5.012500,17.712500,19.518751,30.103,0.56768169,-0.00986992,-0.02900583,-0.82267779
'00:13:04.434,0.059570,0.029297,1.003418,0.304878,1.280488,-0.548781,-4.825000,17.468750,19.281250,30.072,0.56768477,-0.00987525,-0.02900574,-0.82267561
'00:13:04.444,0.059570,0.030273,1.003418,0.304878,1.280488,-0.548781,-4.825000,17.468750,19.281250,30.088,0.56768893,-0.00987893,-0.02901114,-0.82267250
'00:13:04.454,0.058594,0.029297,1.004883,0.304878,1.280488,-0.548781,-4.768750,17.462500,19.318750,30.057,0.56769697,-0.00988414,-0.02901068,-0.82266691
'00:13:04.466,0.059570,0.029785,1.004395,0.243902,1.280488,-0.548781,-4.768750,17.462500,19.318750,30.057,0.56770632,-0.00989823,-0.02901298,-0.82266020
'00:13:04.474,0.059570,0.029785,1.004883,0.243902,1.280488,-0.548781,-4.968750,17.768751,19.493750,30.088,0.56770666,-0.00990136,-0.02900746,-0.82266012
'00:13:04.484,0.060059,0.029297,1.003418,0.304878,1.341463,-0.609756,-4.968750,17.768751,19.493750,30.103,0.56770300,-0.00990257,-0.02900174,-0.82266284
'00:13:04.494,0.059570,0.029297,1.003906,0.365854,1.341463,-0.609756,-5.093750,17.968750,19.737501,30.148,0.56769469,-0.00989401,-0.02899322,-0.82266897
'00:13:04.505,0.060547,0.029297,1.002441,0.365854,1.341463,-0.548781,-5.093750,17.968750,19.737501,30.057,0.56769039,-0.00989115,-0.02898872,-0.82267213
'00:13:04.514,0.059570,0.031250,1.003906,0.243902,1.280488,-0.548781,-5.200000,18.075001,19.775000,30.148,0.56768209,-0.00988233,-0.02898100,-0.82267824
'00:13:04.524,0.059082,0.029785,1.004395,0.243902,1.280488,-0.548781,-5.200000,18.075001,19.775000,30.088,0.56767325,-0.00987556,-0.02896247,-0.82268507
'00:13:04.534,0.059082,0.028809,1.003418,0.304878,1.280488,-0.609756,-4.843750,17.512501,19.412500,30.088,0.56767267,-0.00988206,-0.02895770,-0.82268557
'00:13:04.544,0.060059,0.029785,1.003906,0.365854,1.341463,-0.548781,-4.843750,17.512501,19.412500,30.103,0.56767642,-0.00988271,-0.02896347,-0.82268276
'00:13:04.554,0.058105,0.029785,1.003418,0.365854,1.402439,-0.609756,-4.787500,17.481251,19.356251,30.103,0.56767944,-0.00987090,-0.02896257,-0.82268086
'00:13:04.564,0.059570,0.029297,1.003418,0.365854,1.402439,-0.609756,-4.787500,17.481251,19.356251,30.118,0.56768251,-0.00986939,-0.02896461,-0.82267868
'00:13:04.574,0.059570,0.029297,1.003906,0.365854,1.402439,-0.548781,-4.768750,17.543751,19.312500,30.133,0.56769295,-0.00986983,-0.02896947,-0.82267130
'00:13:04.584,0.059570,0.029785,1.003906,0.365854,1.341463,-0.548781,-4.768750,17.543751,19.312500,30.072,0.56770309,-0.00987268,-0.02898000,-0.82266390
'00:13:04.594,0.059082,0.029785,1.004883,0.304878,1.280488,-0.609756,-4.775000,17.418751,19.281250,30.057,0.56770532,-0.00987753,-0.02898330,-0.82266218
'00:13:04.604,0.060547,0.029297,1.002930,0.365854,1.280488,-0.548781,-4.775000,17.418751,19.281250,30.027,0.56771198,-0.00988993,-0.02899451,-0.82265705
'00:13:04.614,0.060547,0.029297,1.002930,0.365854,1.280488,-0.548781,-5.081250,17.950001,19.656250,30.027,0.56770860,-0.00989186,-0.02899387,-0.82265938
'00:13:04.625,0.060547,0.028809,1.002930,0.426829,1.402439,-0.609756,-5.081250,17.950001,19.656250,30.088,0.56770058,-0.00988293,-0.02898843,-0.82266521
'00:13:04.634,0.060547,0.028809,1.002930,0.426829,1.402439,-0.609756,-5.306250,18.212500,19.806250,30.088,0.56768572,-0.00986775,-0.02897468,-0.82267614
'00:13:04.644,0.059082,0.030762,1.003906,0.365854,1.341463,-0.548781,-5.306250,18.212500,19.806250,30.133,0.56767310,-0.00984326,-0.02896311,-0.82268554
'00:13:04.655,0.060059,0.028809,1.002441,0.304878,1.280488,-0.548781,-5.118750,17.987501,19.681250,30.103,0.56766783,-0.00984714,-0.02895143,-0.82268954
'00:13:04.664,0.059570,0.029297,1.002441,0.304878,1.341463,-0.548781,-4.806250,17.531250,19.356251,30.103,0.56767432,-0.00985270,-0.02895235,-0.82268497
'00:13:04.674,0.060059,0.029297,1.003418,0.365854,1.341463,-0.609756,-4.806250,17.531250,19.356251,30.088,0.56767717,-0.00985810,-0.02895926,-0.82268269
'00:13:04.684,0.060547,0.030273,1.003906,0.365854,1.341463,-0.609756,-4.825000,17.575001,19.362501,30.072,0.56767946,-0.00986160,-0.02897284,-0.82268059
'00:13:04.694,0.060059,0.028320,1.003418,0.426829,1.341463,-0.548781,-4.825000,17.575001,19.362501,30.057,0.56768658,-0.00986724,-0.02897772,-0.82267544
'00:13:04.704,0.060059,0.029785,1.003418,0.304878,1.402439,-0.609756,-5.031250,17.837500,19.562500,30.103,0.56768024,-0.00986022,-0.02896908,-0.82268020
'00:13:04.714,0.060059,0.030273,1.003418,0.365854,1.341463,-0.548781,-5.031250,17.837500,19.562500,30.103,0.56767812,-0.00985296,-0.02897068,-0.82268169
'00:13:04.724,0.060547,0.030273,1.003418,0.304878,1.341463,-0.548781,-4.993750,17.743750,19.587500,30.118,0.56767618,-0.00985250,-0.02897029,-0.82268305
'00:13:04.734,0.059082,0.030273,1.002930,0.365854,1.341463,-0.609756,-4.993750,17.743750,19.587500,30.088,0.56766996,-0.00984091,-0.02896891,-0.82268753
'00:13:04.744,0.060059,0.030273,1.003906,0.365854,1.402439,-0.609756,-4.812500,17.468750,19.356251,30.088,0.56767083,-0.00983689,-0.02897593,-0.82268674
'00:13:04.754,0.060059,0.030273,1.003906,0.365854,1.402439,-0.548781,-4.812500,17.468750,19.356251,30.072,0.56767606,-0.00983307,-0.02898277,-0.82268293
'00:13:04.764,0.058594,0.029785,1.002930,0.365854,1.341463,-0.609756,-4.837500,17.562500,19.412500,30.103,0.56767715,-0.00982740,-0.02898467,-0.82268218
'00:13:04.774,0.059570,0.029785,1.002930,0.304878,1.341463,-0.548781,-4.837500,17.562500,19.412500,30.088,0.56768253,-0.00983042,-0.02898591,-0.82267838
'00:13:04.784,0.060059,0.029297,1.002930,0.365854,1.341463,-0.548781,-4.781250,17.493750,19.343750,30.057,0.56769061,-0.00983735,-0.02899351,-0.82267246
'00:13:04.794,0.059570,0.029785,1.003418,0.365854,1.341463,-0.548781,-4.781250,17.493750,19.343750,30.178,0.56769856,-0.00983938,-0.02900165,-0.82266666
'00:13:04.804,0.058594,0.029297,1.003906,0.304878,1.341463,-0.609756,-4.837500,17.537500,19.350000,30.088,0.56769926,-0.00983774,-0.02899517,-0.82266642
'00:13:04.814,0.059082,0.029785,1.003418,0.365854,1.341463,-0.548781,-4.837500,17.537500,19.350000,30.118,0.56770428,-0.00983416,-0.02899798,-0.82266291
'00:13:04.824,0.060059,0.030273,1.003418,0.304878,1.341463,-0.548781,-4.962500,17.756250,19.506250,30.072,0.56770501,-0.00983300,-0.02899812,-0.82266241
'00:13:04.834,0.060547,0.028809,1.003418,0.365854,1.341463,-0.609756,-4.962500,17.756250,19.506250,30.118,0.56770171,-0.00983706,-0.02899631,-0.82266470
'00:13:04.844,0.061035,0.029297,1.003418,0.365854,1.402439,-0.548781,-4.743750,17.475000,19.331251,30.178,0.56771205,-0.00984684,-0.02900679,-0.82265708
'00:13:04.854,0.059082,0.029297,1.003418,0.365854,1.341463,-0.548781,-4.743750,17.475000,19.331251,30.118,0.56772227,-0.00984991,-0.02901246,-0.82264979
'00:13:04.864,0.061035,0.029297,1.003418,0.304878,1.341463,-0.609756,-4.800000,17.481251,19.312500,30.088,0.56772419,-0.00986310,-0.02901701,-0.82264815
'00:13:04.874,0.059570,0.029785,1.004395,0.365854,1.341463,-0.609756,-4.800000,17.481251,19.312500,30.103,0.56772609,-0.00986281,-0.02902255,-0.82264664
'00:13:04.884,0.060059,0.029297,1.004395,0.304878,1.280488,-0.609756,-4.762500,17.531250,19.343750,30.072,0.56773156,-0.00987766,-0.02902984,-0.82264244
'00:13:04.894,0.059082,0.030273,1.004395,0.365854,1.341463,-0.548781,-4.762500,17.531250,19.343750,30.118,0.56774138,-0.00987572,-0.02904006,-0.82263532
'00:13:04.904,0.059570,0.029785,1.003418,0.304878,1.341463,-0.548781,-4.962500,17.768751,19.537500,30.072,0.56774213,-0.00987323,-0.02903492,-0.82263502
'00:13:04.914,0.059082,0.030273,1.003418,0.304878,1.341463,-0.548781,-5.018750,17.868750,19.556250,30.118,0.56774125,-0.00986430,-0.02902884,-0.82263594
'00:13:04.924,0.060059,0.029297,1.003906,0.365854,1.402439,-0.548781,-5.018750,17.868750,19.556250,30.133,0.56774080,-0.00985716,-0.02902231,-0.82263657
'00:13:04.934,0.060547,0.029297,1.003418,0.304878,1.341463,-0.609756,-4.818750,17.537500,19.318750,30.088,0.56774266,-0.00986708,-0.02902461,-0.82263509
'00:13:04.944,0.060547,0.030273,1.004395,0.365854,1.341463,-0.548781,-4.818750,17.537500,19.318750,30.072,0.56774871,-0.00986993,-0.02903631,-0.82263046
'00:13:04.955,0.060547,0.028809,1.002930,0.365854,1.341463,-0.548781,-4.818750,17.487501,19.350000,30.057,0.56775419,-0.00987903,-0.02903902,-0.82262648
'00:13:04.964,0.059082,0.030273,1.002441,0.304878,1.341463,-0.609756,-4.818750,17.487501,19.350000,30.148,0.56775442,-0.00987646,-0.02903985,-0.82262632
'00:13:04.974,0.058594,0.029785,1.004395,0.365854,1.341463,-0.548781,-4.793750,17.475000,19.275000,30.133,0.56776103,-0.00987076,-0.02904149,-0.82262177
'00:13:04.984,0.060547,0.028320,1.002930,0.365854,1.341463,-0.548781,-4.793750,17.475000,19.275000,30.072,0.56776783,-0.00988204,-0.02904290,-0.82261689
'00:13:04.994,0.059082,0.029297,1.003418,0.304878,1.341463,-0.609756,-4.925000,17.706251,19.431250,30.148,0.56776576,-0.00987953,-0.02903468,-0.82261864
'00:13:05.004,0.060547,0.029785,1.003906,0.365854,1.402439,-0.609756,-4.925000,17.706251,19.431250,30.103,0.56776376,-0.00987574,-0.02903613,-0.82262001
'00:13:05.014,0.061523,0.029297,1.003418,0.304878,1.280488,-0.609756,-5.087500,17.912500,19.562500,30.103,0.56775480,-0.00988458,-0.02903274,-0.82262621
'00:13:05.025,0.059082,0.030273,1.003906,0.365854,1.341463,-0.548781,-5.087500,17.912500,19.562500,30.072,0.56774986,-0.00986742,-0.02902612,-0.82263006
'00:13:05.034,0.060547,0.029785,1.002930,0.365854,1.341463,-0.609756,-4.975000,17.637501,19.575001,30.148,0.56774291,-0.00986515,-0.02902537,-0.82263491
'00:13:05.044,0.059082,0.030273,1.003906,0.304878,1.280488,-0.548781,-4.975000,17.637501,19.575001,30.103,0.56773934,-0.00985999,-0.02901989,-0.82263763
'00:13:05.055,0.059082,0.029785,1.002441,0.365854,1.402439,-0.548781,-4.781250,17.468750,19.343750,30.103,0.56774733,-0.00985368,-0.02902248,-0.82263210
'00:13:05.064,0.060547,0.029297,1.003418,0.365854,1.341463,-0.548781,-4.781250,17.468750,19.343750,30.118,0.56775377,-0.00986141,-0.02902953,-0.82262732
'00:13:05.074,0.059570,0.029785,1.003906,0.365854,1.341463,-0.548781,-4.806250,17.493750,19.356251,30.118,0.56775960,-0.00986120,-0.02903461,-0.82262311
'00:13:05.084,0.058594,0.029297,1.004395,0.426829,1.402439,-0.548781,-4.806250,17.493750,19.356251,30.133,0.56776576,-0.00984996,-0.02903417,-0.82261901
'00:13:05.094,0.059082,0.029297,1.003418,0.304878,1.280488,-0.548781,-4.800000,17.531250,19.312500,30.103,0.56777300,-0.00985738,-0.02903484,-0.82261390
'00:13:05.104,0.059570,0.029785,1.004883,0.304878,1.341463,-0.609756,-4.800000,17.531250,19.312500,30.057,0.56777588,-0.00986060,-0.02903658,-0.82261182
'00:13:05.114,0.058594,0.029297,1.003418,0.365854,1.402439,-0.548781,-4.943750,17.662500,19.456251,30.133,0.56777599,-0.00984680,-0.02902531,-0.82261230
'00:13:05.124,0.058594,0.029785,1.004883,0.304878,1.341463,-0.548781,-4.943750,17.662500,19.456251,30.103,0.56777585,-0.00983841,-0.02901507,-0.82261286
'00:13:05.134,0.059082,0.029785,1.003906,0.426829,1.402439,-0.548781,-5.256250,18.156250,19.856251,30.088,0.56776508,-0.00981241,-0.02900067,-0.82262111
'00:13:05.144,0.059570,0.028809,1.003906,0.304878,1.341463,-0.548781,-5.256250,18.156250,19.856251,30.133,0.56775434,-0.00980363,-0.02897731,-0.82262945
'00:13:05.155,0.058105,0.030273,1.003906,0.304878,1.341463,-0.609756,-4.775000,17.475000,19.362501,30.118,0.56775796,-0.00979835,-0.02897820,-0.82262699
'00:13:05.164,0.060059,0.028320,1.002930,0.365854,1.341463,-0.609756,-4.775000,17.475000,19.362501,30.118,0.56776125,-0.00980837,-0.02897998,-0.82262453
'00:13:05.174,0.059570,0.030273,1.002930,0.304878,1.280488,-0.548781,-4.825000,17.512501,19.362501,30.088,0.56776604,-0.00981382,-0.02898673,-0.82262093
'00:13:05.184,0.060547,0.029785,1.003906,0.365854,1.341463,-0.548781,-4.756250,17.393751,19.325001,30.088,0.56777320,-0.00982147,-0.02899796,-0.82261549
'00:13:05.194,0.059570,0.029785,1.003906,0.304878,1.341463,-0.609756,-4.756250,17.393751,19.325001,30.088,0.56777593,-0.00982638,-0.02900084,-0.82261345
'00:13:05.204,0.058105,0.030762,1.002930,0.304878,1.341463,-0.548781,-5.018750,17.756250,19.506250,30.103,0.56777257,-0.00980927,-0.02899187,-0.82261629
'00:13:05.214,0.060059,0.029297,1.003906,0.365854,1.402439,-0.609756,-5.018750,17.756250,19.506250,30.118,0.56776536,-0.00980108,-0.02898338,-0.82262166
'00:13:05.224,0.060059,0.030762,1.004395,0.365854,1.341463,-0.548781,-5.137500,17.956251,19.618750,30.118,0.56775841,-0.00978798,-0.02898165,-0.82262667
'00:13:05.234,0.058105,0.030273,1.003906,0.426829,1.341463,-0.548781,-5.137500,17.956251,19.618750,30.103,0.56775171,-0.00976342,-0.02897446,-0.82263185
'00:13:05.244,0.059570,0.029785,1.002930,0.365854,1.341463,-0.548781,-5.243750,18.218750,19.725000,30.088,0.56774377,-0.00975015,-0.02896458,-0.82263783
'00:13:05.254,0.060059,0.029297,1.004883,0.365854,1.341463,-0.548781,-5.243750,18.218750,19.725000,30.057,0.56773601,-0.00974118,-0.02895330,-0.82264369
'00:13:05.270,0.060059,0.029297,1.002930,0.365854,1.341463,-0.609756,-5.031250,17.837500,19.606251,30.118,0.56772577,-0.00973837,-0.02894775,-0.82265098
'00:13:05.275,0.060547,0.029785,1.002441,0.304878,1.280488,-0.548781,-5.031250,17.837500,19.606251,30.133,0.56772462,-0.00974174,-0.02894778,-0.82265174
'00:13:05.284,0.060059,0.028809,1.002930,0.365854,1.402439,-0.609756,-4.831250,17.550001,19.318750,30.072,0.56772642,-0.00974460,-0.02894777,-0.82265046
'00:13:05.294,0.060547,0.030273,1.002441,0.304878,1.341463,-0.548781,-4.831250,17.550001,19.318750,30.103,0.56773225,-0.00975232,-0.02895673,-0.82264603
'00:13:05.304,0.058594,0.029785,1.003418,0.304878,1.280488,-0.548781,-4.862500,17.618750,19.387501,30.118,0.56773724,-0.00975440,-0.02895689,-0.82264256
'00:13:05.314,0.060059,0.029785,1.002441,0.365854,1.341463,-0.609756,-4.862500,17.618750,19.387501,30.042,0.56773798,-0.00975719,-0.02896448,-0.82264175
'00:13:05.324,0.058594,0.028809,1.003418,0.365854,1.341463,-0.548781,-5.250000,18.068750,19.781250,30.057,0.56772623,-0.00974013,-0.02894130,-0.82265087
'00:13:05.334,0.059570,0.029297,1.003906,0.365854,1.341463,-0.548781,-5.250000,18.068750,19.781250,30.072,0.56771448,-0.00972671,-0.02892475,-0.82265973
'00:13:05.344,0.059570,0.028809,1.002441,0.365854,1.341463,-0.548781,-4.993750,17.768751,19.556250,30.057,0.56771383,-0.00972591,-0.02891866,-0.82266040
'00:13:05.354,0.059570,0.028809,1.002441,0.365854,1.341463,-0.548781,-4.993750,17.768751,19.556250,30.057,0.56771320,-0.00972513,-0.02891268,-0.82266105
'00:13:05.364,0.059570,0.029785,1.002930,0.365854,1.341463,-0.548781,-4.787500,17.493750,19.356251,30.148,0.56772093,-0.00972870,-0.02892194,-0.82265535
'00:13:05.374,0.060059,0.028809,1.004395,0.365854,1.341463,-0.548781,-4.787500,17.493750,19.356251,30.118,0.56772882,-0.00973845,-0.02892674,-0.82264962
'00:13:05.384,0.059570,0.028809,1.002930,0.304878,1.341463,-0.609756,-4.756250,17.525000,19.362501,30.088,0.56773516,-0.00975089,-0.02892900,-0.82264502
'00:13:05.394,0.059570,0.029297,1.002441,0.365854,1.341463,-0.609756,-4.756250,17.525000,19.362501,30.118,0.56774139,-0.00975828,-0.02893853,-0.82264029
'00:13:05.404,0.059570,0.029785,1.003418,0.304878,1.341463,-0.548781,-4.818750,17.537500,19.362501,30.103,0.56774771,-0.00976281,-0.02894122,-0.82263578
'00:13:05.414,0.060059,0.029785,1.003418,0.304878,1.341463,-0.548781,-4.818750,17.537500,19.362501,30.118,0.56775397,-0.00976995,-0.02894572,-0.82263122
'00:13:05.424,0.059082,0.031250,1.003906,0.426829,1.341463,-0.609756,-5.037500,17.793751,19.512501,30.103,0.56774609,-0.00975038,-0.02895217,-0.82263667
'00:13:05.435,0.060059,0.029297,1.003906,0.304878,1.341463,-0.609756,-5.131250,18.037500,19.606251,30.088,0.56773673,-0.00974790,-0.02894022,-0.82264357
'00:13:05.444,0.059082,0.029785,1.003418,0.304878,1.341463,-0.548781,-5.131250,18.037500,19.606251,30.088,0.56773299,-0.00973975,-0.02892988,-0.82264661
'00:13:05.454,0.059570,0.028809,1.002930,0.365854,1.341463,-0.548781,-4.812500,17.518751,19.356251,30.178,0.56773965,-0.00974565,-0.02893182,-0.82264188
'00:13:05.464,0.059570,0.029785,1.002930,0.365854,1.341463,-0.609756,-4.812500,17.518751,19.356251,30.133,0.56774170,-0.00974743,-0.02893932,-0.82264018
'00:13:05.474,0.058594,0.030762,1.004883,0.304878,1.341463,-0.548781,-4.856250,17.518751,19.343750,30.118,0.56774489,-0.00973993,-0.02893985,-0.82263805
'00:13:05.484,0.059570,0.029297,1.003906,0.365854,1.341463,-0.609756,-4.856250,17.518751,19.343750,30.088,0.56774403,-0.00974074,-0.02894065,-0.82263861
'00:13:05.494,0.058594,0.029785,1.003418,0.304878,1.341463,-0.609756,-4.812500,17.475000,19.318750,30.103,0.56774516,-0.00973933,-0.02893867,-0.82263791
'00:13:05.505,0.060059,0.029785,1.004883,0.365854,1.341463,-0.609756,-4.812500,17.475000,19.318750,30.148,0.56774641,-0.00974310,-0.02894693,-0.82263671
'00:13:05.514,0.060059,0.028809,1.004395,0.365854,1.280488,-0.548781,-5.075000,17.843750,19.600000,30.088,0.56774203,-0.00974470,-0.02894077,-0.82263993
'00:13:05.524,0.059082,0.029785,1.001953,0.365854,1.341463,-0.609756,-5.075000,17.843750,19.600000,30.118,0.56773277,-0.00973335,-0.02893374,-0.82264670
'00:13:05.537,0.060059,0.029785,1.003418,0.365854,1.341463,-0.609756,-5.193750,18.131250,19.812500,30.148,0.56771818,-0.00972232,-0.02892576,-0.82265719
'00:13:05.544,0.060059,0.029297,1.004395,0.365854,1.341463,-0.548781,-5.193750,18.131250,19.812500,30.088,0.56771351,-0.00971780,-0.02891940,-0.82266068
'00:13:05.554,0.058594,0.029297,1.003906,0.304878,1.341463,-0.609756,-4.825000,17.506250,19.387501,30.103,0.56771451,-0.00971855,-0.02891454,-0.82266016
'00:13:05.564,0.059570,0.028809,1.002930,0.365854,1.341463,-0.609756,-4.825000,17.506250,19.387501,30.178,0.56771562,-0.00972385,-0.02891552,-0.82265929
'00:13:05.574,0.058594,0.029785,1.003906,0.365854,1.341463,-0.548781,-4.750000,17.500000,19.412500,30.133,0.56772595,-0.00972437,-0.02892353,-0.82265188
'00:13:05.584,0.060547,0.028809,1.003906,0.304878,1.280488,-0.548781,-4.750000,17.500000,19.412500,30.088,0.56773614,-0.00974704,-0.02893202,-0.82264428
'00:13:05.594,0.060059,0.028809,1.003418,0.365854,1.341463,-0.548781,-4.787500,17.543751,19.375000,30.088,0.56774503,-0.00975739,-0.02893813,-0.82263780
'00:13:05.604,0.059570,0.028320,1.004395,0.304878,1.341463,-0.609756,-4.787500,17.543751,19.375000,30.103,0.56774957,-0.00976941,-0.02893470,-0.82263465
'00:13:05.614,0.060059,0.029785,1.004883,0.304878,1.341463,-0.609756,-4.806250,17.518751,19.312500,30.072,0.56775211,-0.00977636,-0.02893941,-0.82263265
'00:13:05.624,0.060547,0.030273,1.004395,0.304878,1.341463,-0.548781,-4.806250,17.518751,19.312500,30.118,0.56775886,-0.00978422,-0.02894881,-0.82262757
'00:13:05.634,0.058594,0.029297,1.002930,0.304878,1.341463,-0.609756,-5.056250,17.843750,19.537500,30.088,0.56775105,-0.00977520,-0.02893377,-0.82263359
'00:13:05.644,0.059082,0.030762,1.003418,0.365854,1.341463,-0.548781,-5.056250,17.843750,19.537500,30.118,0.56774742,-0.00976040,-0.02893319,-0.82263630
'00:13:05.654,0.059570,0.029785,1.003418,0.426829,1.341463,-0.609756,-4.937500,17.712500,19.412500,30.088,0.56774518,-0.00975401,-0.02893963,-0.82263769
'00:13:05.664,0.059570,0.029297,1.003418,0.365854,1.341463,-0.548781,-4.937500,17.712500,19.412500,30.118,0.56774737,-0.00975277,-0.02893883,-0.82263622
'00:13:05.674,0.059570,0.030273,1.003906,0.365854,1.341463,-0.548781,-4.781250,17.456251,19.250000,30.088,0.56775479,-0.00975320,-0.02894971,-0.82263071
'00:13:05.684,0.058594,0.029297,1.002930,0.304878,1.341463,-0.548781,-4.781250,17.456251,19.250000,30.088,0.56776236,-0.00975522,-0.02894706,-0.82262555
'00:13:05.694,0.059082,0.030273,1.003906,0.365854,1.341463,-0.548781,-4.806250,17.600000,19.362501,30.118,0.56777094,-0.00975360,-0.02895709,-0.82261930
'00:13:05.704,0.060059,0.028809,1.003418,0.365854,1.341463,-0.609756,-4.775000,17.462500,19.287500,30.103,0.56777460,-0.00976295,-0.02896194,-0.82261649
'00:13:05.714,0.058594,0.028809,1.003418,0.304878,1.341463,-0.609756,-4.775000,17.462500,19.287500,30.088,0.56777823,-0.00976701,-0.02895662,-0.82261412
'00:13:05.724,0.058594,0.030273,1.003906,0.365854,1.341463,-0.609756,-5.025000,17.843750,19.587500,30.088,0.56777214,-0.00975311,-0.02895307,-0.82261862
'00:13:05.734,0.059570,0.029785,1.003906,0.365854,1.341463,-0.548781,-5.025000,17.843750,19.587500,30.118,0.56777054,-0.00974685,-0.02895057,-0.82261989
'00:13:05.744,0.060059,0.029297,1.003906,0.365854,1.341463,-0.609756,-5.062500,17.906250,19.537500,30.088,0.56776383,-0.00974360,-0.02894615,-0.82262471
'00:13:05.754,0.059082,0.028809,1.003418,0.426829,1.402439,-0.609756,-5.062500,17.906250,19.537500,30.163,0.56775747,-0.00972970,-0.02893696,-0.82262959
'00:13:05.764,0.059570,0.029297,1.003906,0.365854,1.341463,-0.548781,-4.825000,17.543751,19.343750,30.118,0.56776375,-0.00973306,-0.02894078,-0.82262508
'00:13:05.774,0.059570,0.030273,1.004395,0.365854,1.280488,-0.609756,-4.825000,17.543751,19.343750,30.133,0.56776526,-0.00973662,-0.02895292,-0.82262357
'00:13:05.784,0.059082,0.029297,1.003906,0.304878,1.341463,-0.548781,-4.787500,17.518751,19.293751,30.072,0.56777368,-0.00974198,-0.02895264,-0.82261771
'00:13:05.794,0.059082,0.030273,1.002441,0.365854,1.402439,-0.548781,-4.787500,17.518751,19.293751,30.118,0.56778204,-0.00973629,-0.02895982,-0.82261175
'00:13:05.804,0.060059,0.029785,1.002441,0.304878,1.341463,-0.548781,-4.818750,17.562500,19.362501,30.088,0.56778880,-0.00974426,-0.02896493,-0.82260681
'00:13:05.814,0.060547,0.029297,1.003418,0.304878,1.280488,-0.548781,-4.818750,17.562500,19.362501,30.088,0.56779545,-0.00976086,-0.02897167,-0.82260179
'00:13:05.824,0.059570,0.028809,1.005859,0.365854,1.341463,-0.548781,-5.306250,18.143751,19.831251,30.072,0.56778140,-0.00974635,-0.02894859,-0.82261247
'00:13:05.834,0.060547,0.030273,1.004395,0.365854,1.341463,-0.548781,-5.306250,18.143751,19.831251,30.088,0.56776714,-0.00973213,-0.02893820,-0.82262284
'00:13:05.844,0.060059,0.029785,1.002930,0.365854,1.341463,-0.609756,-5.106250,17.881250,19.643751,30.088,0.56775643,-0.00972485,-0.02893295,-0.82263051
'00:13:05.854,0.060059,0.030273,1.002441,0.304878,1.341463,-0.548781,-5.106250,17.881250,19.643751,30.118,0.56774999,-0.00971911,-0.02892632,-0.82263525
'00:13:05.864,0.060547,0.029785,1.003906,0.365854,1.341463,-0.609756,-5.081250,17.943750,19.600000,30.042,0.56774269,-0.00971672,-0.02892631,-0.82264032
'00:13:05.874,0.059082,0.030273,1.003418,0.304878,1.341463,-0.609756,-5.081250,17.943750,19.600000,30.042,0.56773529,-0.00970767,-0.02891930,-0.82264578
'00:13:05.887,0.060059,0.029785,1.003906,0.243902,1.280488,-0.609756,-5.712500,18.781250,20.162500,30.088,0.56769546,-0.00968687,-0.02887590,-0.82267503
'00:13:05.894,0.061035,0.029785,1.001953,0.365854,1.341463,-0.548781,-5.712500,18.781250,20.162500,30.178,0.56767740,-0.00967265,-0.02886007,-0.82268822
'00:13:05.904,0.059570,0.028320,1.003418,0.304878,1.341463,-0.609756,-4.825000,17.587500,19.381250,30.057,0.56768083,-0.00968477,-0.02885681,-0.82268582
'00:13:05.914,0.060547,0.029785,1.003418,0.243902,1.341463,-0.609756,-4.825000,17.587500,19.381250,30.103,0.56768383,-0.00969936,-0.02886129,-0.82268342
'00:13:05.924,0.061035,0.030273,1.003418,0.365854,1.341463,-0.609756,-5.031250,17.818750,19.493750,30.057,0.56767763,-0.00969939,-0.02886835,-0.82268746
'00:13:05.934,0.060547,0.029785,1.003418,0.365854,1.341463,-0.609756,-5.031250,17.818750,19.493750,30.057,0.56767155,-0.00969866,-0.02887076,-0.82269158
'00:13:05.944,0.059570,0.029297,1.003906,0.304878,1.280488,-0.548781,-5.175000,18.087500,19.700001,30.072,0.56766564,-0.00969782,-0.02886038,-0.82269603
'00:13:05.954,0.060059,0.029297,1.003906,0.365854,1.341463,-0.609756,-5.175000,18.087500,19.700001,30.057,0.56765558,-0.00969212,-0.02885345,-0.82270328
'00:13:05.964,0.060059,0.029785,1.004395,0.365854,1.341463,-0.548781,-4.962500,17.725000,19.518751,30.057,0.56765636,-0.00969176,-0.02885679,-0.82270263
'00:13:05.974,0.060059,0.029297,1.003906,0.365854,1.341463,-0.548781,-4.793750,17.481251,19.293751,30.088,0.56766405,-0.00969978,-0.02886529,-0.82269692
'00:13:05.984,0.059570,0.029785,1.003418,0.304878,1.402439,-0.609756,-4.793750,17.481251,19.293751,30.148,0.56766734,-0.00970160,-0.02886735,-0.82269457
'00:13:05.995,0.059570,0.030273,1.003906,0.365854,1.402439,-0.609756,-4.781250,17.487501,19.318750,30.148,0.56767189,-0.00969904,-0.02887841,-0.82269107
'00:13:06.004,0.060547,0.029297,1.004395,0.304878,1.341463,-0.548781,-4.781250,17.487501,19.318750,30.133,0.56767949,-0.00971199,-0.02888424,-0.82268546
'00:13:06.014,0.059570,0.029297,1.004883,0.365854,1.341463,-0.548781,-4.762500,17.418751,19.312500,30.118,0.56768768,-0.00971784,-0.02889080,-0.82267951
'00:13:06.024,0.060547,0.029785,1.002441,0.365854,1.341463,-0.609756,-4.762500,17.418751,19.312500,30.103,0.56769128,-0.00972743,-0.02890482,-0.82267643
'00:13:06.034,0.060547,0.029297,1.003418,0.365854,1.341463,-0.548781,-5.262500,18.156250,19.768751,30.088,0.56768097,-0.00972019,-0.02889413,-0.82268400
'00:13:06.044,0.060059,0.029785,1.003418,0.365854,1.341463,-0.609756,-5.262500,18.156250,19.768751,30.133,0.56766625,-0.00970846,-0.02888454,-0.82269463
'00:13:06.054,0.060059,0.028809,1.004395,0.365854,1.341463,-0.609756,-5.050000,17.918751,19.587500,30.103,0.56766109,-0.00970902,-0.02887979,-0.82269835
'00:13:06.064,0.059570,0.029785,1.003418,0.304878,1.341463,-0.609756,-5.050000,17.918751,19.587500,30.088,0.56765570,-0.00970638,-0.02887472,-0.82270228
'00:13:06.075,0.060547,0.028809,1.004883,0.365854,1.341463,-0.548781,-4.843750,17.562500,19.287500,30.103,0.56766251,-0.00971750,-0.02888018,-0.82269726
'00:13:06.084,0.059082,0.028809,1.004883,0.304878,1.341463,-0.548781,-4.843750,17.562500,19.287500,30.178,0.56766805,-0.00972189,-0.02887553,-0.82269355
'00:13:06.094,0.059082,0.029785,1.002441,0.365854,1.341463,-0.609756,-4.800000,17.500000,19.331251,30.103,0.56767103,-0.00972217,-0.02888313,-0.82269122
'00:13:06.104,0.059082,0.029785,1.002441,0.365854,1.341463,-0.609756,-4.800000,17.500000,19.331251,30.103,0.56767398,-0.00972243,-0.02889060,-0.82268892
'00:13:06.114,0.058105,0.029785,1.002930,0.365854,1.341463,-0.548781,-4.762500,17.493750,19.325001,30.088,0.56768384,-0.00971949,-0.02889672,-0.82268193
'00:13:06.124,0.060059,0.029297,1.002441,0.365854,1.341463,-0.609756,-4.762500,17.493750,19.325001,30.088,0.56768931,-0.00972934,-0.02890775,-0.82267766
'00:13:06.134,0.059570,0.029297,1.004395,0.304878,1.341463,-0.548781,-5.050000,17.918751,19.556250,30.103,0.56768835,-0.00972802,-0.02889904,-0.82267864
'00:13:06.144,0.060059,0.029785,1.003906,0.304878,1.341463,-0.609756,-5.050000,17.918751,19.556250,30.103,0.56768293,-0.00972746,-0.02889528,-0.82268252
'00:13:06.155,0.060547,0.029297,1.004395,0.365854,1.341463,-0.548781,-5.081250,17.943750,19.618750,30.088,0.56768001,-0.00972715,-0.02889273,-0.82268463
'00:13:06.164,0.060547,0.029297,1.004395,0.365854,1.341463,-0.548781,-5.081250,17.943750,19.618750,30.088,0.56767763,-0.00972692,-0.02889070,-0.82268634
'00:13:06.174,0.060059,0.029297,1.002441,0.365854,1.341463,-0.548781,-4.812500,17.556250,19.356251,30.088,0.56768533,-0.00973464,-0.02889927,-0.82268064
'00:13:06.184,0.060547,0.029785,1.004395,0.365854,1.341463,-0.609756,-4.812500,17.556250,19.356251,30.163,0.56768850,-0.00974241,-0.02891160,-0.82267793
'00:13:06.194,0.060059,0.030273,1.003418,0.365854,1.341463,-0.609756,-4.756250,17.437500,19.362501,30.088,0.56769261,-0.00974753,-0.02892659,-0.82267450
'00:13:06.204,0.060547,0.029297,1.004395,0.304878,1.341463,-0.548781,-4.756250,17.437500,19.362501,30.088,0.56770119,-0.00976210,-0.02893280,-0.82266819
