# FW/GUI: v9.6.1-multi17-dual (PyQt5)
# StartTime: 2026-04-03 16:21:04
# Slot: 13
# DeviceID: 13
# Label: EMG13
# IP: 192.168.137.206
# TCP: 3333
# DeviceFW: EMG_FW_v9.6_MULTI17_DUALCH_RUNTIMECFG_CHEN
# EMG column notes: EMG_t_s=seconds since this Start; sample_idx=device sample index (ADS frame index); fs=sample rate (SPS); gain=gain; flags=0x01(TEST) 0x02(SHORT) 0x04(RLD); emg_valid=1 valid / 0 invalid (spike-guard decision); ch1_raw_uV=raw uV (after spike guard); ch1_filt_uV=filtered uV; ch1_env_uV=envelope (RMS) uV
EMG_t_s,sample_idx,fs,gain,flags,emg_valid,ch1_raw_uV,ch1_filt_uV,ch1_env_uV,ch2_raw_uV,ch2_filt_uV,ch2_env_uV
0.000000,720371,1000.00,12,0,1,1310.039,7.432,3.288,1018.981,1.573,1.007
0.001000,720372,1000.00,12,0,1,1306.388,4.314,3.342,1017.780,0.333,0.913
0.002000,720373,1000.00,12,0,1,1296.035,-6.820,3.295,1016.987,-0.737,0.908
0.003000,720374,1000.00,12,0,1,1294.234,-8.125,3.332,1016.747,-0.663,0.912
0.004000,720375,1000.00,12,0,1,1293.825,-5.927,3.435,1017.131,-0.453,0.911
0.005000,720376,1000.00,12,0,1,1295.651,-2.856,3.391,1016.651,-0.384,0.913
0.006000,720377,1000.00,12,0,1,1297.429,1.100,3.395,1014.465,-2.265,0.937
0.007000,720378,1000.00,12,0,1,1299.302,3.740,3.433,1016.026,-1.063,0.948
0.008000,720379,1000.00,12,0,1,1297.477,3.612,3.403,1016.146,0.099,0.948
0.009000,720380,1000.00,12,0,1,1296.276,2.346,3.354,1017.876,0.856,0.954
0.010000,720381,1000.00,12,0,1,1294.930,2.002,3.361,1018.525,2.161,1.000
0.011000,720382,1000.00,12,0,1,1289.165,-2.604,3.363,1017.227,0.394,1.001
0.012000,720383,1000.00,12,0,1,1289.574,-3.312,3.363,1018.404,1.010,1.011
0.013000,720384,1000.00,12,0,1,1293.609,1.294,3.363,1018.549,1.451,1.030
0.014000,720385,1000.00,12,0,1,1290.895,-1.300,3.365,1019.653,1.509,1.045
0.015000,720386,1000.00,12,0,1,1295.387,0.142,3.363,1017.948,0.598,1.048
0.016000,720387,1000.00,12,0,1,1294.234,0.383,3.363,1017.251,-1.181,1.053
0.017000,720388,1000.00,12,0,1,1297.020,-0.969,3.356,1017.155,-0.575,1.014
0.018000,720389,1000.00,12,0,1,1302.545,4.309,3.344,1018.789,0.269,1.014
0.019000,720390,1000.00,12,0,1,1302.809,2.807,3.366,1018.356,0.612,1.015
0.020000,720391,1000.00,12,0,1,1301.416,0.136,3.359,1018.092,-0.366,1.014
0.021000,720392,1000.00,12,0,1,1298.197,-2.909,3.297,1017.323,-0.578,1.010
0.022000,720393,1000.00,12,0,1,1298.245,-3.568,3.130,1018.044,-0.356,1.010
0.023000,720394,1000.00,12,0,1,1296.252,-3.156,3.161,1016.651,-0.860,1.012
0.024000,720395,1000.00,12,0,1,1296.948,-2.698,3.177,1017.996,-0.412,1.012
0.025000,720396,1000.00,12,0,1,1295.651,-0.821,3.169,1017.852,0.450,1.012
0.026000,720397,1000.00,12,0,1,1293.609,-2.129,3.183,1016.243,-1.398,1.006
0.027000,720398,1000.00,12,0,1,1288.133,-4.059,3.232,1017.684,-0.249,0.954
0.028000,720399,1000.00,12,0,1,1292.913,-0.225,3.232,1018.861,1.349,0.957
0.029000,720400,1000.00,12,0,1,1295.531,5.830,3.325,1017.708,0.044,0.943
0.030000,720401,1000.00,12,0,1,1291.784,1.943,3.268,1015.738,-1.607,0.966
0.031000,720402,1000.00,12,0,1,1286.956,-1.927,3.271,1015.762,-1.867,0.996
0.032000,720403,1000.00,12,0,1,1286.595,-2.564,3.279,1017.492,0.138,0.984
0.033000,720404,1000.00,12,0,1,1286.475,-1.963,3.217,1019.461,1.765,1.006
0.034000,720405,1000.00,12,0,1,1290.463,0.583,3.195,1017.972,0.780,0.986
0.035000,720406,1000.00,12,0,1,1292.192,2.208,3.200,1017.227,-0.761,0.985
0.036000,720407,1000.00,12,0,1,1294.810,2.398,3.211,1017.828,0.119,0.985
0.037000,720408,1000.00,12,0,1,1301.272,6.424,3.333,1019.173,1.025,0.995
0.038000,720409,1000.00,12,0,1,1299.230,4.115,3.378,1017.444,-0.035,0.995
0.039000,720410,1000.00,12,0,1,1296.228,-1.817,3.383,1016.867,-1.280,0.978
0.040000,720411,1000.00,12,0,1,1299.807,0.808,3.385,1018.669,0.656,0.983
0.041000,720412,1000.00,12,0,1,1299.206,0.546,3.377,1017.348,-0.036,0.975
0.042000,720413,1000.00,12,0,1,1295.195,-3.338,3.389,1017.612,-0.552,0.970
0.043000,720414,1000.00,12,0,1,1297.717,-1.214,3.366,1017.083,-0.104,0.970
0.044000,720415,1000.00,12,0,1,1297.020,0.623,3.367,1017.948,-0.087,0.963
0.045000,720416,1000.00,12,0,1,1300.047,2.581,3.386,1015.714,-0.874,0.957
0.046000,720417,1000.00,12,0,1,1298.197,3.860,3.400,1015.978,-1.724,0.986
0.047000,720418,1000.00,12,0,1,1289.886,-3.478,3.340,1018.236,1.251,0.991
0.048000,720419,1000.00,12,0,1,1291.688,-1.696,3.322,1017.684,0.767,0.997
0.049000,720420,1000.00,12,0,1,1293.177,2.570,3.340,1018.068,0.573,0.993
0.050000,720421,1000.00,12,0,1,1294.450,2.916,3.197,1019.029,1.624,0.995
0.051000,720422,1000.00,12,0,1,1289.286,0.151,3.138,1018.068,0.497,0.996
0.052000,720423,1000.00,12,0,1,1290.463,-1.497,2.994,1016.915,-0.707,0.996
0.053000,720424,1000.00,12,0,1,1293.465,2.699,2.791,1015.546,-1.880,1.026
0.054000,720425,1000.00,12,0,1,1295.147,2.131,2.679,1017.828,-0.167,1.024
0.055000,720426,1000.00,12,0,1,1299.038,4.199,2.714,1016.771,-0.036,1.023
0.056000,720427,1000.00,12,0,1,1301.056,4.393,2.780,1016.050,-1.559,0.996
0.057000,720428,1000.00,12,0,1,1299.374,0.723,2.731,1016.074,-0.794,0.991
0.058000,720429,1000.00,12,0,1,1299.542,-1.107,2.687,1017.299,0.014,0.991
0.059000,720430,1000.00,12,0,1,1301.512,-0.554,2.668,1017.924,1.040,0.995
0.060000,720431,1000.00,12,0,1,1304.563,1.302,2.659,1017.732,0.656,0.951
0.061000,720432,1000.00,12,0,1,1306.364,2.244,2.653,1015.090,-1.377,0.969
0.062000,720433,1000.00,12,0,1,1306.917,2.211,2.630,1017.492,-0.055,0.959
0.063000,720434,1000.00,12,0,1,1307.349,2.189,2.642,1017.780,1.526,0.961
0.064000,720435,1000.00,12,0,1,1302.089,-1.392,2.642,1017.852,0.591,0.941
0.065000,720436,1000.00,12,0,1,1297.284,-5.766,2.765,1017.612,0.881,0.945
0.066000,720437,1000.00,12,0,1,1300.215,-1.755,2.776,1018.092,0.759,0.936
0.067000,720438,1000.00,12,0,1,1295.291,-2.825,2.801,1018.741,1.428,0.954
0.068000,720439,1000.00,12,0,1,1294.858,-3.983,2.792,1016.219,-0.603,0.958
0.069000,720440,1000.00,12,0,1,1295.579,-0.142,2.763,1016.098,-1.553,0.979
0.070000,720441,1000.00,12,0,1,1293.489,-1.888,2.776,1018.380,1.111,0.990
0.071000,720442,1000.00,12,0,1,1291.375,-2.890,2.776,1017.852,0.660,0.991
0.072000,720443,1000.00,12,0,1,1291.399,-2.887,2.760,1014.705,-2.083,1.032
0.073000,720444,1000.00,12,0,1,1296.348,1.035,2.727,1015.162,-2.208,1.072
0.074000,720445,1000.00,12,0,1,1296.636,1.750,2.712,1015.618,-0.737,1.075
0.075000,720446,1000.00,12,0,1,1297.188,-0.412,2.710,1015.882,-0.792,1.079
0.076000,720447,1000.00,12,0,1,1298.918,0.619,2.695,1018.861,1.885,1.094
0.077000,720448,1000.00,12,0,1,1303.506,2.255,2.652,1017.348,1.211,1.107
0.078000,720449,1000.00,12,0,1,1305.427,3.464,2.697,1018.428,0.697,1.095
0.079000,720450,1000.00,12,0,1,1305.956,1.528,2.577,1018.140,1.529,1.116
0.080000,720451,1000.00,12,0,1,1305.139,0.186,2.562,1018.813,0.799,1.098
0.081000,720452,1000.00,12,0,1,1305.548,-0.609,2.549,1019.702,2.144,1.108
0.082000,720453,1000.00,12,0,1,1304.515,-0.953,2.527,1020.182,1.817,1.137
0.083000,720454,1000.00,12,0,1,1306.148,0.175,2.512,1018.933,0.802,1.115
0.084000,720455,1000.00,12,0,1,1303.578,-0.178,2.510,1018.404,-0.284,1.111
0.085000,720456,1000.00,12,0,1,1299.542,-3.443,2.538,1017.636,-0.708,1.110
0.086000,720457,1000.00,12,0,1,1300.527,-1.266,2.522,1017.708,-0.823,1.116
0.087000,720458,1000.00,12,0,1,1300.335,0.863,2.355,1018.813,0.253,1.107
0.088000,720459,1000.00,12,0,1,1299.542,0.675,2.284,1018.741,0.439,1.109
0.089000,720460,1000.00,12,0,1,1299.903,2.151,2.290,1020.182,1.052,1.104
0.090000,720461,1000.00,12,0,1,1296.444,-0.208,2.287,1018.957,0.632,1.104
0.091000,720462,1000.00,12,0,1,1295.099,-1.869,2.301,1016.050,-2.657,1.166
0.092000,720463,1000.00,12,0,1,1295.243,-1.243,2.259,1019.581,0.069,1.163
0.093000,720464,1000.00,12,0,1,1296.348,-0.898,2.256,1019.077,0.930,1.171
0.094000,720465,1000.00,12,0,1,1297.092,-0.654,2.257,1016.459,-2.438,1.220
0.095000,720466,1000.00,12,0,1,1300.383,0.635,2.229,1017.468,-1.363,1.229
0.096000,720467,1000.00,12,0,1,1305.836,4.171,2.240,1020.951,1.706,1.229
0.097000,720468,1000.00,12,0,1,1309.967,5.974,2.343,1020.230,1.573,1.236
0.098000,720469,1000.00,12,0,1,1311.697,5.209,2.444,1019.173,-0.378,1.233
0.099000,720470,1000.00,12,0,1,1307.998,0.436,2.418,1019.053,-0.307,1.231
0.100000,720471,1000.00,12,0,1,1299.759,-8.063,2.641,1018.092,-1.160,1.220
0.101000,720472,1000.00,12,0,1,1304.202,-5.576,2.756,1019.822,-0.030,1.218
0.102000,720473,1000.00,12,0,1,1307.301,0.271,2.748,1017.828,-0.696,1.218
0.103000,720474,1000.00,12,0,1,1306.965,-0.557,2.723,1017.828,-1.862,1.217
0.104000,720475,1000.00,12,0,1,1307.061,0.880,2.709,1019.101,0.372,1.218
0.105000,720476,1000.00,12,0,1,1307.037,1.573,2.653,1017.372,-1.176,1.230
0.106000,720477,1000.00,12,0,1,1304.034,0.359,2.579,1016.795,-1.765,1.235
0.107000,720478,1000.00,12,0,1,1297.212,-4.293,2.648,1018.284,-0.102,1.230
0.108000,720479,1000.00,12,0,1,1290.775,-8.623,2.911,1018.476,0.420,1.231
0.109000,720480,1000.00,12,0,1,1292.865,-5.224,3.002,1019.413,0.947,1.230
0.110000,720481,1000.00,12,0,1,1294.018,-1.372,3.003,1019.053,0.910,1.233
0.111000,720482,1000.00,12,0,1,1298.533,2.194,3.002,1019.341,0.590,1.221
0.112000,720483,1000.00,12,0,1,1299.110,4.006,3.039,1017.780,-0.360,1.222
0.113000,720484,1000.00,12,0,1,1301.848,3.843,3.072,1018.452,-0.552,1.205
0.114000,720485,1000.00,12,0,1,1307.469,7.896,3.262,1019.053,0.630,1.205
0.115000,720486,1000.00,12,0,1,1304.371,3.791,3.204,1018.789,0.009,1.199
0.116000,720487,1000.00,12,0,1,1298.894,-4.131,3.247,1018.188,-0.447,1.196
0.117000,720488,1000.00,12,0,1,1301.440,-3.395,3.258,1017.948,-0.743,1.183
0.118000,720489,1000.00,12,0,1,1301.296,-3.199,3.241,1019.077,0.165,1.180
0.119000,720490,1000.00,12,0,1,1306.869,-0.420,3.241,1016.891,-1.042,1.169
0.120000,720491,1000.00,12,0,1,1308.886,2.727,3.253,1017.900,-1.169,1.170
0.121000,720492,1000.00,12,0,1,1307.661,0.028,3.228,1019.870,1.646,1.190
0.122000,720493,1000.00,12,0,1,1303.794,-2.497,3.221,1018.645,0.317,1.153
0.123000,720494,1000.00,12,0,1,1300.743,-4.983,3.294,1018.404,-0.173,1.111
0.124000,720495,1000.00,12,0,1,1298.293,-5.094,3.363,1018.693,0.320,1.107
0.125000,720496,1000.00,12,0,1,1296.900,-4.388,3.419,1018.308,-0.049,1.101
0.126000,720497,1000.00,12,0,1,1297.236,-1.999,3.430,1018.380,0.027,1.068
0.127000,720498,1000.00,12,0,1,1294.906,-1.378,3.420,1019.101,0.638,1.058
0.128000,720499,1000.00,12,0,1,1294.738,-0.832,3.387,1019.413,1.001,1.063
0.129000,720500,1000.00,12,0,1,1298.053,3.835,3.423,1020.422,1.502,1.062
0.130000,720501,1000.00,12,0,1,1299.158,5.318,3.505,1020.806,1.870,1.089
0.131000,720502,1000.00,12,0,1,1298.485,4.319,3.557,1019.053,0.047,1.046
0.132000,720503,1000.00,12,0,1,1299.182,3.775,3.594,1018.404,-0.972,1.023
0.133000,720504,1000.00,12,0,1,1300.791,4.124,3.641,1018.116,-0.938,1.025
0.134000,720505,1000.00,12,0,1,1299.326,1.617,3.648,1017.011,-1.847,1.057
0.135000,720506,1000.00,12,0,1,1300.215,0.075,3.615,1017.948,-1.097,1.064
0.136000,720507,1000.00,12,0,1,1298.798,-1.563,3.618,1018.669,0.061,1.058
0.137000,720508,1000.00,12,0,1,1299.590,-3.100,3.642,1019.581,0.569,1.060
0.138000,720509,1000.00,12,0,1,1302.833,-0.414,3.641,1018.236,-0.171,1.058
0.139000,720510,1000.00,12,0,1,1304.899,0.603,3.630,1018.837,-0.417,1.050
0.140000,720511,1000.00,12,0,1,1306.412,1.283,3.634,1018.717,0.239,1.046
0.141000,720512,1000.00,12,0,1,1304.058,-0.566,3.625,1020.446,0.953,0.986
0.142000,720513,1000.00,12,0,1,1301.680,-3.064,3.647,1020.855,1.948,1.024
0.143000,720514,1000.00,12,0,1,1302.185,-1.476,3.651,1018.933,-0.266,1.016
0.144000,720515,1000.00,12,0,1,1298.582,-2.725,3.670,1017.804,-1.417,0.976
0.145000,720516,1000.00,12,0,1,1302.617,0.720,3.670,1017.900,-1.098,0.970
0.146000,720517,1000.00,12,0,1,1304.515,5.608,3.708,1017.996,-0.817,0.946
0.147000,720518,1000.00,12,0,1,1296.780,-0.678,3.612,1017.660,-0.784,0.926
0.148000,720519,1000.00,12,0,1,1292.769,-4.113,3.584,1018.356,-0.292,0.926
0.149000,720520,1000.00,12,0,1,1295.771,0.014,3.583,1017.732,-0.238,0.925
0.150000,720521,1000.00,12,0,1,1296.011,1.654,3.405,1018.212,-0.317,0.912
0.151000,720522,1000.00,12,0,1,1297.693,2.397,3.329,1018.501,0.522,0.915
0.152000,720523,1000.00,12,0,1,1303.962,7.220,3.482,1020.134,1.351,0.929
0.153000,720524,1000.00,12,0,1,1298.678,2.877,3.505,1020.398,1.999,0.935
0.154000,720525,1000.00,12,0,1,1294.090,-4.846,3.569,1020.110,0.987,0.944
0.155000,720526,1000.00,12,0,1,1297.068,-2.417,3.579,1017.948,-0.679,0.934
0.156000,720527,1000.00,12,0,1,1299.951,-0.649,3.580,1018.909,-0.674,0.905
0.157000,720528,1000.00,12,0,1,1300.431,-1.068,3.531,1019.750,0.819,0.912
0.158000,720529,1000.00,12,0,1,1300.599,-2.015,3.326,1019.702,0.322,0.912
0.159000,720530,1000.00,12,0,1,1304.827,0.595,3.244,1017.131,-1.552,0.928
0.160000,720531,1000.00,12,0,1,1305.596,1.841,3.248,1015.690,-3.168,1.022
0.161000,720532,1000.00,12,0,1,1306.148,0.910,3.236,1018.428,-0.494,1.021
0.162000,720533,1000.00,12,0,1,1305.668,1.355,3.192,1020.374,1.969,1.057
0.163000,720534,1000.00,12,0,1,1299.783,-3.307,3.180,1016.747,-1.083,1.066
0.164000,720535,1000.00,12,0,1,1297.284,-5.048,3.062,1018.380,-0.695,1.066
0.165000,720536,1000.00,12,0,1,1301.704,0.619,3.016,1020.590,2.394,1.119
0.166000,720537,1000.00,12,0,1,1304.467,5.058,3.044,1017.564,-0.389,1.118
0.167000,720538,1000.00,12,0,1,1304.827,5.751,3.114,1015.762,-2.503,1.168
0.168000,720539,1000.00,12,0,1,1296.516,-0.149,3.081,1017.203,-0.785,1.173
0.169000,720540,1000.00,12,0,1,1295.675,-2.579,3.102,1018.332,0.545,1.167
0.170000,720541,1000.00,12,0,1,1298.630,2.279,3.095,1019.365,1.410,1.172
0.171000,720542,1000.00,12,0,1,1297.092,0.700,3.096,1020.254,2.021,1.184
0.172000,720543,1000.00,12,0,1,1295.171,-1.573,3.084,1018.068,0.218,1.183
0.173000,720544,1000.00,12,0,1,1298.149,0.112,3.002,1020.350,0.974,1.191
0.174000,720545,1000.00,12,0,1,1299.590,1.148,2.919,1019.629,1.598,1.211
0.175000,720546,1000.00,12,0,1,1301.296,0.803,2.855,1018.621,-0.707,1.216
0.176000,720547,1000.00,12,0,1,1302.617,0.859,2.843,1019.101,0.240,1.216
0.177000,720548,1000.00,12,0,1,1303.073,-0.253,2.837,1017.612,-1.081,1.222
0.178000,720549,1000.00,12,0,1,1307.301,1.634,2.844,1016.723,-2.021,1.247
0.179000,720550,1000.00,12,0,1,1307.397,1.809,2.803,1018.669,-0.096,1.229
0.180000,720551,1000.00,12,0,1,1303.914,-2.856,2.731,1019.221,0.826,1.206
0.181000,720552,1000.00,12,0,1,1303.458,-3.318,2.703,1019.101,0.486,1.208
0.182000,720553,1000.00,12,0,1,1305.235,-1.183,2.655,1019.774,0.933,1.207
0.183000,720554,1000.00,12,0,1,1303.914,-0.940,2.593,1019.485,0.817,1.205
0.184000,720555,1000.00,12,0,1,1299.422,-3.920,2.642,1019.125,0.104,1.177
0.185000,720556,1000.00,12,0,1,1300.815,-1.961,2.656,1017.516,-0.958,1.174
0.186000,720557,1000.00,12,0,1,1303.890,3.103,2.683,1017.492,-1.426,1.192
0.187000,720558,1000.00,12,0,1,1300.719,1.638,2.657,1017.732,-0.531,1.191
0.188000,720559,1000.00,12,0,1,1302.281,2.478,2.680,1018.813,0.127,1.191
0.189000,720560,1000.00,12,0,1,1301.872,3.957,2.736,1019.221,0.903,1.197
0.190000,720561,1000.00,12,0,1,1300.335,1.486,2.738,1016.339,-1.573,1.217
0.191000,720562,1000.00,12,0,1,1299.494,0.962,2.740,1016.507,-1.998,1.242
0.192000,720563,1000.00,12,0,1,1301.584,1.580,2.715,1018.140,0.261,1.211
0.193000,720564,1000.00,12,0,1,1299.807,0.155,2.707,1018.428,0.429,1.212
0.194000,720565,1000.00,12,0,1,1297.981,-3.397,2.722,1018.981,0.841,1.201
0.195000,720566,1000.00,12,0,1,1302.737,-0.397,2.721,1019.870,1.465,1.209
0.196000,720567,1000.00,12,0,1,1307.829,3.559,2.651,1019.846,1.340,1.219
0.197000,720568,1000.00,12,0,1,1310.208,3.704,2.701,1017.708,-0.616,1.217
0.198000,720569,1000.00,12,0,1,1307.421,0.210,2.637,1019.245,-0.008,1.216
0.199000,720570,1000.00,12,0,1,1309.223,-0.892,2.640,1019.846,1.380,1.231
0.200000,720571,1000.00,12,0,1,1312.297,2.308,2.650,1016.819,-1.581,1.250
0.201000,720572,1000.00,12,0,1,1314.267,2.795,2.658,1018.020,-1.038,1.257
0.202000,720573,1000.00,12,0,1,1315.588,3.877,2.515,1017.251,-0.467,1.244
0.203000,720574,1000.00,12,0,1,1309.151,-1.225,2.487,1018.525,-0.331,1.212
0.204000,720575,1000.00,12,0,1,1301.944,-7.811,2.634,1017.083,-0.167,1.204
0.205000,720576,1000.00,12,0,1,1303.866,-4.778,2.698,1016.771,-1.526,1.220
0.206000,720577,1000.00,12,0,1,1307.469,0.920,2.699,1018.092,0.521,1.218
0.207000,720578,1000.00,12,0,1,1304.779,0.230,2.695,1018.332,0.638,1.216
0.208000,720579,1000.00,12,0,1,1302.401,-1.724,2.691,1018.476,0.661,1.219
0.209000,720580,1000.00,12,0,1,1300.071,-2.268,2.709,1016.627,-0.649,1.202
0.210000,720581,1000.00,12,0,1,1298.726,-3.222,2.735,1015.978,-1.770,1.144
0.211000,720582,1000.00,12,0,1,1298.029,-2.911,2.763,1016.171,-0.885,1.148
0.212000,720583,1000.00,12,0,1,1300.743,-0.975,2.759,1018.525,0.744,1.119
0.213000,720584,1000.00,12,0,1,1302.569,0.956,2.723,1018.428,1.510,1.129
0.214000,720585,1000.00,12,0,1,1305.524,1.842,2.640,1018.452,0.524,1.127
0.215000,720586,1000.00,12,0,1,1304.683,0.694,2.641,1017.708,0.389,1.076
0.216000,720587,1000.00,12,0,1,1309.415,1.750,2.554,1017.564,-0.358,1.076
0.217000,720588,1000.00,12,0,1,1311.769,3.953,2.485,1018.380,0.617,1.020
0.218000,720589,1000.00,12,0,1,1308.622,-1.013,2.489,1019.726,1.606,1.039
0.219000,720590,1000.00,12,0,1,1309.391,-1.886,2.476,1018.909,1.029,1.046
0.220000,720591,1000.00,12,0,1,1309.751,-1.066,2.460,1018.765,0.332,1.028
0.221000,720592,1000.00,12,0,1,1308.478,-2.641,2.486,1018.669,0.440,0.990
0.222000,720593,1000.00,12,0,1,1304.130,-5.008,2.575,1016.819,-1.095,1.001
0.223000,720594,1000.00,12,0,1,1304.034,-5.019,2.671,1019.149,0.293,0.993
0.224000,720595,1000.00,12,0,1,1304.539,-1.606,2.676,1018.813,1.241,0.982
0.225000,720596,1000.00,12,0,1,1304.347,-0.764,2.676,1019.533,0.551,0.980
0.226000,720597,1000.00,12,0,1,1304.923,1.550,2.682,1018.188,0.445,0.982
0.227000,720598,1000.00,12,0,1,1302.905,1.206,2.687,1019.173,-0.030,0.970
0.228000,720599,1000.00,12,0,1,1297.573,-2.408,2.699,1018.140,0.244,0.927
0.229000,720600,1000.00,12,0,1,1298.774,-1.237,2.692,1017.059,-1.659,0.957
0.230000,720601,1000.00,12,0,1,1302.905,3.834,2.717,1016.387,-1.616,0.977
0.231000,720602,1000.00,12,0,1,1304.130,4.783,2.760,1016.531,-1.578,0.999
0.232000,720603,1000.00,12,0,1,1305.019,4.287,2.821,1017.588,-0.406,0.992
0.233000,720604,1000.00,12,0,1,1303.866,2.405,2.838,1018.669,0.743,0.991
0.234000,720605,1000.00,12,0,1,1305.235,1.267,2.789,1021.455,2.611,1.058
0.235000,720606,1000.00,12,0,1,1308.070,2.847,2.805,1018.669,0.987,1.058
0.236000,720607,1000.00,12,0,1,1306.052,-0.300,2.770,1018.236,-1.240,1.053
0.237000,720608,1000.00,12,0,1,1303.025,-4.604,2.836,1018.933,0.516,1.053
0.238000,720609,1000.00,12,0,1,1303.746,-4.718,2.893,1017.972,-0.871,1.060
0.239000,720610,1000.00,12,0,1,1306.292,-2.330,2.857,1017.179,-1.291,1.068
0.240000,720611,1000.00,12,0,1,1309.415,0.411,2.850,1018.020,-0.626,1.049
0.241000,720612,1000.00,12,0,1,1309.703,1.165,2.851,1018.813,0.457,1.012
0.242000,720613,1000.00,12,0,1,1308.886,0.331,2.843,1018.789,0.473,1.013
0.243000,720614,1000.00,12,0,1,1307.373,-0.139,2.843,1017.852,-0.342,1.013
0.244000,720615,1000.00,12,0,1,1304.875,-1.406,2.809,1017.131,-0.913,1.014
0.245000,720616,1000.00,12,0,1,1305.764,0.195,2.809,1017.732,-0.382,0.994
0.246000,720617,1000.00,12,0,1,1305.548,1.968,2.777,1016.459,-0.842,0.983
0.247000,720618,1000.00,12,0,1,1307.685,3.811,2.780,1017.636,-0.446,0.981
0.248000,720619,1000.00,12,0,1,1307.733,5.304,2.879,1018.741,1.380,1.001
0.249000,720620,1000.00,12,0,1,1303.674,1.321,2.883,1018.669,0.814,0.988
0.250000,720621,1000.00,12,0,1,1302.377,-0.306,2.864,1017.852,0.211,0.963
0.251000,720622,1000.00,12,0,1,1298.894,-2.589,2.861,1016.531,-1.155,0.966
0.252000,720623,1000.00,12,0,1,1299.374,-3.497,2.851,1016.843,-0.982,0.973
0.253000,720624,1000.00,12,0,1,1306.917,3.098,2.879,1019.750,1.587,0.998
0.254000,720625,1000.00,12,0,1,1309.391,4.939,2.749,1018.476,1.006,1.007
0.255000,720626,1000.00,12,0,1,1313.498,5.367,2.771,1018.813,0.123,0.984
0.256000,720627,1000.00,12,0,1,1315.564,6.144,2.901,1019.750,1.470,1.003
0.257000,720628,1000.00,12,0,1,1312.634,0.912,2.903,1018.981,0.408,1.001
0.258000,720629,1000.00,12,0,1,1307.613,-4.863,2.974,1015.186,-2.646,1.064
0.259000,720630,1000.00,12,0,1,1310.832,-3.784,3.004,1018.621,-0.687,1.065
0.260000,720631,1000.00,12,0,1,1311.385,-1.566,2.978,1016.507,-0.248,1.036
0.261000,720632,1000.00,12,0,1,1314.219,-0.554,2.950,1017.011,-1.716,1.056
0.262000,720633,1000.00,12,0,1,1311.457,-0.722,2.949,1017.059,0.216,1.051
0.263000,720634,1000.00,12,0,1,1312.730,-1.111,2.950,1016.675,-0.923,1.038
0.264000,720635,1000.00,12,0,1,1307.902,-1.954,2.951,1015.978,-0.764,1.041
0.265000,720636,1000.00,12,0,1,1307.878,-3.235,2.985,1015.378,-1.277,1.055
0.266000,720637,1000.00,12,0,1,1308.382,0.528,2.976,1017.780,0.712,1.058
0.267000,720638,1000.00,12,0,1,1308.718,0.902,2.926,1017.828,1.711,1.082
0.268000,720639,1000.00,12,0,1,1306.076,0.179,2.922,1015.858,-0.806,1.064
0.269000,720640,1000.00,12,0,1,1305.620,-0.493,2.911,1017.660,0.733,1.059
0.270000,720641,1000.00,12,0,1,1307.061,1.280,2.912,1019.581,2.535,1.117
0.271000,720642,1000.00,12,0,1,1308.718,2.614,2.912,1018.140,1.248,1.130
0.272000,720643,1000.00,12,0,1,1311.457,3.696,2.872,1017.564,-0.129,1.119
0.273000,720644,1000.00,12,0,1,1307.445,0.244,2.784,1017.948,0.437,1.120
0.274000,720645,1000.00,12,0,1,1307.037,-3.386,2.815,1018.428,0.532,1.109
0.275000,720646,1000.00,12,0,1,1310.256,-0.220,2.813,1015.786,-1.324,1.122
0.276000,720647,1000.00,12,0,1,1313.162,0.525,2.806,1017.420,-0.917,1.127
0.277000,720648,1000.00,12,0,1,1312.826,-0.189,2.801,1017.323,0.421,1.129
0.278000,720649,1000.00,12,0,1,1312.826,-2.015,2.795,1016.963,-0.783,1.134
0.279000,720650,1000.00,12,0,1,1310.352,-3.850,2.842,1018.813,1.228,1.123
0.280000,720651,1000.00,12,0,1,1309.391,-5.392,2.892,1017.348,0.346,1.100
0.281000,720652,1000.00,12,0,1,1310.664,-3.168,2.847,1018.140,0.106,1.078
0.282000,720653,1000.00,12,0,1,1310.760,-1.930,2.795,1017.131,0.347,1.077
0.283000,720654,1000.00,12,0,1,1310.256,-1.460,2.782,1018.981,0.651,1.076
0.284000,720655,1000.00,12,0,1,1310.616,0.168,2.777,1020.062,2.725,1.082
0.285000,720656,1000.00,12,0,1,1307.998,-0.591,2.748,1019.173,0.973,1.081
0.286000,720657,1000.00,12,0,1,1310.015,1.436,2.756,1019.533,1.124,1.079
0.287000,720658,1000.00,12,0,1,1311.961,4.981,2.769,1017.684,-0.366,1.078
0.288000,720659,1000.00,12,0,1,1306.484,0.847,2.690,1017.540,-1.255,1.085
0.289000,720660,1000.00,12,0,1,1305.067,-1.334,2.676,1017.852,-0.319,1.071
0.290000,720661,1000.00,12,0,1,1305.403,0.385,2.676,1018.933,0.084,1.067
0.291000,720662,1000.00,12,0,1,1310.424,3.459,2.715,1018.501,0.253,1.066
0.292000,720663,1000.00,12,0,1,1305.836,1.130,2.720,1017.299,-1.352,1.081
0.293000,720664,1000.00,12,0,1,1306.076,-2.505,2.743,1016.675,-1.659,1.105
0.294000,720665,1000.00,12,0,1,1312.129,3.560,2.781,1018.068,-0.587,1.100
0.295000,720666,1000.00,12,0,1,1311.000,1.512,2.789,1018.981,0.659,1.103
0.296000,720667,1000.00,12,0,1,1315.564,2.403,2.796,1018.164,-0.166,1.097
0.297000,720668,1000.00,12,0,1,1314.916,2.663,2.770,1017.900,-0.624,1.099
0.298000,720669,1000.00,12,0,1,1308.142,-5.844,2.791,1017.203,-0.887,1.088
0.299000,720670,1000.00,12,0,1,1309.799,-5.003,2.873,1016.939,-1.267,1.097
0.300000,720671,1000.00,12,0,1,1313.618,-0.618,2.874,1016.651,-1.013,1.106
0.301000,720672,1000.00,12,0,1,1309.343,-3.221,2.887,1016.195,-1.336,1.110
0.302000,720673,1000.00,12,0,1,1310.664,-2.962,2.875,1017.660,0.086,1.101
0.303000,720674,1000.00,12,0,1,1311.481,0.554,2.843,1015.882,-0.663,1.082
0.304000,720675,1000.00,12,0,1,1316.237,3.998,2.813,1017.251,-0.373,1.074
0.305000,720676,1000.00,12,0,1,1309.223,1.363,2.715,1019.077,2.241,1.120
0.306000,720677,1000.00,12,0,1,1304.058,-5.225,2.677,1019.053,1.679,1.126
0.307000,720678,1000.00,12,0,1,1303.554,-2.653,2.700,1017.131,0.089,1.124
0.308000,720679,1000.00,12,0,1,1302.545,-2.526,2.635,1016.387,-1.083,1.071
0.309000,720680,1000.00,12,0,1,1300.023,-3.268,2.621,1017.323,-0.039,1.067
0.310000,720681,1000.00,12,0,1,1296.179,-5.481,2.724,1018.308,0.927,1.074
0.311000,720682,1000.00,12,0,1,1298.990,-3.265,2.762,1019.173,1.457,1.066
0.312000,720683,1000.00,12,0,1,1306.028,4.213,2.824,1017.492,0.196,1.066
0.313000,720684,1000.00,12,0,1,1306.893,4.499,2.890,1016.459,-1.399,1.077
0.314000,720685,1000.00,12,0,1,1306.460,2.376,2.897,1016.579,-0.829,1.078
0.315000,720686,1000.00,12,0,1,1307.829,2.088,2.876,1016.867,-0.615,1.066
0.316000,720687,1000.00,12,0,1,1308.382,1.582,2.883,1017.131,-0.109,1.061
0.317000,720688,1000.00,12,0,1,1310.400,1.638,2.890,1019.077,1.330,1.050
0.318000,720689,1000.00,12,0,1,1311.024,1.817,2.901,1017.828,0.843,1.051
0.319000,720690,1000.00,12,0,1,1311.625,0.978,2.904,1017.251,-0.548,1.049
0.320000,720691,1000.00,12,0,1,1310.904,0.508,2.899,1016.363,-0.653,0.990
0.321000,720692,1000.00,12,0,1,1309.703,-0.899,2.878,1015.906,-1.352,0.993
0.322000,720693,1000.00,12,0,1,1309.799,-0.221,2.830,1016.122,-0.698,0.997
0.323000,720694,1000.00,12,0,1,1306.148,-1.958,2.844,1017.155,0.254,0.996
0.324000,720695,1000.00,12,0,1,1303.049,-4.101,2.862,1018.693,1.676,1.021
0.325000,720696,1000.00,12,0,1,1305.355,-0.453,2.863,1017.876,1.171,1.017
0.326000,720697,1000.00,12,0,1,1305.187,1.572,2.871,1018.308,0.730,1.014
0.327000,720698,1000.00,12,0,1,1306.917,3.135,2.904,1017.612,0.674,1.017
0.328000,720699,1000.00,12,0,1,1303.890,2.374,2.910,1017.420,-0.277,1.012
0.329000,720700,1000.00,12,0,1,1296.948,-4.113,2.917,1016.171,-0.753,1.002
0.330000,720701,1000.00,12,0,1,1296.492,-4.363,2.882,1016.531,-1.062,1.012
0.331000,720702,1000.00,12,0,1,1299.590,-0.520,2.848,1017.660,0.509,1.015
0.332000,720703,1000.00,12,0,1,1299.783,-0.122,2.835,1019.005,1.373,1.032
0.333000,720704,1000.00,12,0,1,1302.425,1.060,2.832,1017.804,0.596,1.031
0.334000,720705,1000.00,12,0,1,1302.809,1.332,2.838,1016.555,-1.065,0.968
0.335000,720706,1000.00,12,0,1,1305.548,1.550,2.845,1018.597,0.583,0.962
0.336000,720707,1000.00,12,0,1,1305.043,1.129,2.842,1019.678,1.977,0.989
0.337000,720708,1000.00,12,0,1,1307.709,0.885,2.756,1018.693,0.635,0.992
0.338000,720709,1000.00,12,0,1,1309.487,2.746,2.781,1018.597,0.306,0.977
0.339000,720710,1000.00,12,0,1,1311.144,2.469,2.797,1019.149,0.667,0.980
0.340000,720711,1000.00,12,0,1,1311.865,3.023,2.829,1017.372,-0.624,0.984
0.341000,720712,1000.00,12,0,1,1313.306,3.436,2.828,1016.026,-2.212,1.032
0.342000,720713,1000.00,12,0,1,1310.736,1.798,2.835,1016.459,-1.414,1.034
0.343000,720714,1000.00,12,0,1,1306.749,-1.804,2.824,1017.492,-0.292,1.008
0.344000,720715,1000.00,12,0,1,1303.242,-3.711,2.828,1017.348,-0.077,1.004
0.345000,720716,1000.00,12,0,1,1304.443,-1.599,2.829,1016.483,-0.888,1.008
0.346000,720717,1000.00,12,0,1,1309.151,4.031,2.866,1017.612,-0.032,1.008
0.347000,720718,1000.00,12,0,1,1306.076,3.224,2.877,1017.155,0.131,1.004
0.348000,720719,1000.00,12,0,1,1303.218,-0.454,2.757,1016.699,-0.757,1.002
0.349000,720720,1000.00,12,0,1,1304.419,1.566,2.674,1017.900,0.474,0.988
0.350000,720721,1000.00,12,0,1,1308.238,4.300,2.741,1016.795,-0.210,0.978
0.351000,720722,1000.00,12,0,1,1309.679,5.521,2.813,1017.444,-0.279,0.960
0.352000,720723,1000.00,12,0,1,1306.004,0.836,2.784,1020.278,2.441,1.020
0.353000,720724,1000.00,12,0,1,1306.124,-1.206,2.788,1017.468,0.364,1.017
0.354000,720725,1000.00,12,0,1,1305.379,-1.953,2.744,1016.843,-1.463,1.037
0.355000,720726,1000.00,12,0,1,1307.709,-2.140,2.754,1017.492,-0.009,0.987
0.356000,720727,1000.00,12,0,1,1311.625,1.120,2.658,1016.675,-0.910,0.967
0.357000,720728,1000.00,12,0,1,1312.033,0.202,2.631,1017.107,-0.492,0.969
0.358000,720729,1000.00,12,0,1,1318.327,3.513,2.654,1016.795,-0.325,0.958
0.359000,720730,1000.00,12,0,1,1317.077,3.289,2.655,1015.642,-1.374,0.978
0.360000,720731,1000.00,12,0,1,1317.318,0.247,2.539,1017.900,0.508,0.972
0.361000,720732,1000.00,12,0,1,1319.552,3.165,2.537,1018.741,1.906,0.987
0.362000,720733,1000.00,12,0,1,1313.979,-1.710,2.477,1017.708,0.579,0.990
0.363000,720734,1000.00,12,0,1,1313.378,-3.089,2.434,1019.629,1.779,1.002
0.364000,720735,1000.00,12,0,1,1313.715,-0.431,2.411,1017.588,0.747,1.001
0.365000,720736,1000.00,12,0,1,1311.505,-1.901,2.408,1016.098,-1.729,1.027
0.366000,720737,1000.00,12,0,1,1309.319,-2.348,2.421,1019.702,1.637,1.052
0.367000,720738,1000.00,12,0,1,1306.460,-3.733,2.467,1020.590,2.829,1.110
0.368000,720739,1000.00,12,0,1,1306.340,-2.933,2.488,1017.900,-0.121,1.104
0.369000,720740,1000.00,12,0,1,1304.899,-2.608,2.511,1016.627,-1.668,1.126
0.370000,720741,1000.00,12,0,1,1301.896,-4.903,2.604,1016.219,-1.754,1.149
0.371000,720742,1000.00,12,0,1,1301.944,-4.544,2.680,1018.909,0.345,1.134
0.372000,720743,1000.00,12,0,1,1306.917,-0.210,2.680,1018.380,0.782,1.135
0.373000,720744,1000.00,12,0,1,1310.424,2.965,2.698,1018.669,-0.052,1.135
0.374000,720745,1000.00,12,0,1,1311.192,2.102,2.652,1019.125,0.918,1.117
0.375000,720746,1000.00,12,0,1,1312.441,1.534,2.660,1017.660,-0.664,1.109
0.376000,720747,1000.00,12,0,1,1316.669,3.419,2.694,1017.948,-0.700,1.109
0.377000,720748,1000.00,12,0,1,1320.560,5.494,2.769,1017.348,-0.632,1.108
0.378000,720749,1000.00,12,0,1,1319.431,3.072,2.782,1016.387,-1.762,1.135
0.379000,720750,1000.00,12,0,1,1323.155,3.648,2.769,1017.540,-0.467,1.132
0.380000,720751,1000.00,12,0,1,1324.476,5.207,2.798,1018.140,0.372,1.123
0.381000,720752,1000.00,12,0,1,1320.608,0.383,2.798,1016.507,-0.862,1.128
0.382000,720753,1000.00,12,0,1,1315.852,-3.633,2.845,1016.987,-0.836,1.117
0.383000,720754,1000.00,12,0,1,1307.950,-9.165,3.122,1017.924,0.587,1.117
0.384000,720755,1000.00,12,0,1,1306.148,-9.805,3.411,1017.011,-0.240,1.107
0.385000,720756,1000.00,12,0,1,1307.878,-4.726,3.469,1016.795,-0.579,1.107
0.386000,720757,1000.00,12,0,1,1308.502,-2.216,3.480,1017.564,0.248,1.072
0.387000,720758,1000.00,12,0,1,1308.454,-0.381,3.478,1016.074,-0.740,1.073
0.388000,720759,1000.00,12,0,1,1306.677,-0.753,3.458,1016.507,-0.848,1.079
0.389000,720760,1000.00,12,0,1,1306.797,-0.317,3.440,1015.810,-0.636,1.079
0.390000,720761,1000.00,12,0,1,1309.823,2.687,3.435,1016.411,-0.664,1.079
0.391000,720762,1000.00,12,0,1,1317.894,8.608,3.612,1019.389,2.265,1.081
0.392000,720763,1000.00,12,0,1,1319.960,10.074,3.874,1018.933,2.109,1.104
0.393000,720764,1000.00,12,0,1,1313.498,1.573,3.872,1018.020,0.441,1.105
0.394000,720765,1000.00,12,0,1,1315.228,-0.273,3.837,1016.963,-0.212,1.105
0.395000,720766,1000.00,12,0,1,1311.264,-2.915,3.852,1017.612,-0.195,1.098
0.396000,720767,1000.00,12,0,1,1311.889,-5.951,3.901,1017.708,0.505,1.101
0.397000,720768,1000.00,12,0,1,1316.693,-0.592,3.876,1017.035,-0.424,1.102
0.398000,720769,1000.00,12,0,1,1317.726,-0.570,3.876,1017.251,-0.117,1.097
0.399000,720770,1000.00,12,0,1,1314.339,-3.507,3.901,1017.179,-0.012,1.095
0.400000,720771,1000.00,12,0,1,1316.477,-2.543,3.870,1018.332,0.766,1.100
0.401000,720772,1000.00,12,0,1,1317.966,0.527,3.791,1017.684,0.688,1.103
0.402000,720773,1000.00,12,0,1,1318.110,0.757,3.791,1017.444,-0.163,1.048
0.403000,720774,1000.00,12,0,1,1318.567,2.032,3.798,1018.452,0.976,1.056
0.404000,720775,1000.00,12,0,1,1316.957,1.733,3.796,1018.573,0.972,1.045
0.405000,720776,1000.00,12,0,1,1314.171,-0.163,3.784,1018.549,0.704,1.049
0.406000,720777,1000.00,12,0,1,1311.553,-1.139,3.784,1018.789,0.756,1.047
0.407000,720778,1000.00,12,0,1,1307.685,-3.402,3.814,1018.332,0.239,1.045
0.408000,720779,1000.00,12,0,1,1306.508,-3.481,3.814,1018.549,0.117,1.044
0.409000,720780,1000.00,12,0,1,1307.109,-1.735,3.793,1018.981,0.489,1.028
0.410000,720781,1000.00,12,0,1,1305.596,-2.146,3.805,1015.810,-1.985,1.064
0.411000,720782,1000.00,12,0,1,1308.526,-0.384,3.779,1016.651,-2.150,1.073
0.412000,720783,1000.00,12,0,1,1315.108,5.414,3.849,1018.284,0.439,1.072
0.413000,720784,1000.00,12,0,1,1316.789,5.867,3.913,1018.597,0.314,1.043
0.414000,720785,1000.00,12,0,1,1318.519,4.618,3.966,1017.468,-0.371,1.039
0.415000,720786,1000.00,12,0,1,1315.156,0.763,3.959,1016.435,-1.554,1.033
0.416000,720787,1000.00,12,0,1,1313.114,-3.885,3.983,1017.564,-0.480,1.009
0.417000,720788,1000.00,12,0,1,1315.132,-2.381,3.962,1018.476,0.735,0.932
0.418000,720789,1000.00,12,0,1,1317.174,-1.054,3.943,1017.852,0.093,0.932
0.419000,720790,1000.00,12,0,1,1312.874,-4.218,3.971,1017.828,-0.033,0.902
0.420000,720791,1000.00,12,0,1,1314.507,-3.965,3.950,1020.062,1.688,0.899
0.421000,720792,1000.00,12,0,1,1315.997,-0.215,3.897,1020.374,2.310,0.955
0.422000,720793,1000.00,12,0,1,1317.342,0.888,3.899,1017.275,-0.809,0.956
0.423000,720794,1000.00,12,0,1,1316.213,1.688,3.884,1016.867,-1.679,0.985
0.424000,720795,1000.00,12,0,1,1315.108,0.986,3.875,1015.018,-2.341,1.031
0.425000,720796,1000.00,12,0,1,1312.490,0.294,3.869,1016.387,-1.800,1.058
0.426000,720797,1000.00,12,0,1,1309.799,-1.243,3.843,1017.516,0.457,1.055
0.427000,720798,1000.00,12,0,1,1308.646,-1.127,3.767,1019.317,1.323,1.068
0.428000,720799,1000.00,12,0,1,1310.232,1.177,3.745,1019.389,1.948,1.074
0.429000,720800,1000.00,12,0,1,1311.216,2.649,3.729,1018.981,0.776,1.078
0.430000,720801,1000.00,12,0,1,1310.808,2.141,3.668,1019.005,0.762,1.082
0.431000,720802,1000.00,12,0,1,1312.778,2.673,3.687,1018.909,0.474,1.077
0.432000,720803,1000.00,12,0,1,1317.077,5.562,3.735,1019.846,0.916,1.078
0.433000,720804,1000.00,12,0,1,1314.844,2.614,3.522,1020.374,1.498,1.096
0.434000,720805,1000.00,12,0,1,1315.276,-0.038,3.237,1020.782,1.249,1.109
0.435000,720806,1000.00,12,0,1,1314.507,-0.945,3.170,1020.734,1.207,1.119
0.436000,720807,1000.00,12,0,1,1313.835,-3.562,3.195,1019.509,-0.250,1.119
0.437000,720808,1000.00,12,0,1,1316.237,-1.925,3.206,1017.323,-2.085,1.153
0.438000,720809,1000.00,12,0,1,1318.447,-0.284,3.205,1017.107,-2.468,1.199
0.439000,720810,1000.00,12,0,1,1322.362,2.275,3.220,1017.059,-1.742,1.220
0.440000,720811,1000.00,12,0,1,1322.362,2.845,3.223,1016.146,-2.325,1.260
0.441000,720812,1000.00,12,0,1,1320.512,0.213,2.984,1019.245,0.258,1.220
0.442000,720813,1000.00,12,0,1,1319.720,0.174,2.623,1019.413,1.500,1.201
0.443000,720814,1000.00,12,0,1,1316.957,-1.405,2.621,1019.389,0.430,1.201
0.444000,720815,1000.00,12,0,1,1316.429,-1.242,2.626,1019.557,1.026,1.210
0.445000,720816,1000.00,12,0,1,1315.276,-0.396,2.594,1018.933,0.023,1.209
0.446000,720817,1000.00,12,0,1,1314.291,-0.610,2.455,1017.828,-0.864,1.213
0.447000,720818,1000.00,12,0,1,1310.448,-2.202,2.474,1019.125,-0.115,1.212
0.448000,720819,1000.00,12,0,1,1306.989,-4.923,2.569,1019.005,0.337,1.213
0.449000,720820,1000.00,12,0,1,1314.051,1.396,2.528,1018.981,-0.233,1.213
0.450000,720821,1000.00,12,0,1,1316.309,5.337,2.614,1018.476,-0.372,1.210
0.451000,720822,1000.00,12,0,1,1314.483,1.563,2.622,1016.531,-2.063,1.240
0.452000,720823,1000.00,12,0,1,1312.562,-0.634,2.621,1016.771,-2.008,1.272
0.453000,720824,1000.00,12,0,1,1315.564,-0.089,2.605,1019.365,0.745,1.269
0.454000,720825,1000.00,12,0,1,1319.840,3.234,2.634,1018.092,0.166,1.262
0.455000,720826,1000.00,12,0,1,1318.278,0.555,2.635,1016.507,-1.699,1.281
0.456000,720827,1000.00,12,0,1,1317.894,-2.063,2.646,1017.468,-0.616,1.279
0.457000,720828,1000.00,12,0,1,1320.296,-0.497,2.603,1016.819,-0.543,1.281
0.458000,720829,1000.00,12,0,1,1318.086,-2.653,2.583,1018.452,0.352,1.282
0.459000,720830,1000.00,12,0,1,1320.128,-2.146,2.590,1019.053,1.742,1.304
0.460000,720831,1000.00,12,0,1,1320.560,-0.282,2.572,1018.188,0.403,1.274
0.461000,720832,1000.00,12,0,1,1319.263,-1.722,2.583,1018.885,0.952,1.245
0.462000,720833,1000.00,12,0,1,1321.329,0.800,2.469,1018.260,0.601,1.246
0.463000,720834,1000.00,12,0,1,1321.449,2.323,2.349,1016.771,-0.973,1.253
0.464000,720835,1000.00,12,0,1,1317.870,-0.178,2.257,1018.669,0.454,1.254
0.465000,720836,1000.00,12,0,1,1318.399,0.674,2.256,1019.101,1.419,1.250
0.466000,720837,1000.00,12,0,1,1318.543,2.432,2.215,1017.299,-0.538,1.251
0.467000,720838,1000.00,12,0,1,1314.483,-0.456,2.190,1016.699,-1.217,1.258
0.468000,720839,1000.00,12,0,1,1312.802,-1.970,2.203,1018.885,0.674,1.262
0.469000,720840,1000.00,12,0,1,1312.033,-1.522,2.131,1017.131,-0.111,1.262
0.470000,720841,1000.00,12,0,1,1312.682,-1.224,2.064,1015.978,-1.940,1.269
0.471000,720842,1000.00,12,0,1,1312.730,-0.739,2.066,1017.540,-0.092,1.226
0.472000,720843,1000.00,12,0,1,1313.282,-1.252,2.070,1018.813,1.190,1.233
0.473000,720844,1000.00,12,0,1,1313.378,-1.463,2.066,1018.621,0.992,1.218
0.474000,720845,1000.00,12,0,1,1313.474,-2.494,2.092,1017.516,-0.082,1.172
0.475000,720846,1000.00,12,0,1,1317.198,-0.337,2.092,1019.750,1.280,1.158
0.476000,720847,1000.00,12,0,1,1324.524,5.047,2.203,1018.212,0.927,1.164
0.477000,720848,1000.00,12,0,1,1323.563,3.895,2.265,1018.308,-0.391,1.150
0.478000,720849,1000.00,12,0,1,1321.473,-0.578,2.261,1017.780,0.239,1.117
0.479000,720850,1000.00,12,0,1,1324.884,1.798,2.244,1018.452,-0.099,1.112
0.480000,720851,1000.00,12,0,1,1323.971,1.565,2.234,1018.356,0.604,1.110
0.481000,720852,1000.00,12,0,1,1318.303,-3.733,2.264,1017.492,-0.610,1.111
0.482000,720853,1000.00,12,0,1,1319.071,-2.931,2.164,1017.227,-0.695,1.108
0.483000,720854,1000.00,12,0,1,1318.014,-1.288,2.139,1017.299,-0.485,1.090
0.484000,720855,1000.00,12,0,1,1321.065,1.257,2.147,1018.404,0.349,1.076
0.485000,720856,1000.00,12,0,1,1323.035,5.385,2.274,1019.437,1.513,1.084
0.486000,720857,1000.00,12,0,1,1322.914,4.916,2.324,1016.531,-0.966,1.092
0.487000,720858,1000.00,12,0,1,1316.909,0.818,2.311,1015.426,-2.484,1.109
0.488000,720859,1000.00,12,0,1,1307.685,-7.418,2.537,1015.810,-1.506,1.073
0.489000,720860,1000.00,12,0,1,1311.192,-4.755,2.605,1016.267,-0.920,1.053
0.490000,720861,1000.00,12,0,1,1317.630,3.312,2.616,1018.092,0.728,1.006
0.491000,720862,1000.00,12,0,1,1317.630,2.585,2.642,1017.107,0.436,1.007
0.492000,720863,1000.00,12,0,1,1310.856,-3.666,2.692,1019.870,1.648,1.011
0.493000,720864,1000.00,12,0,1,1313.474,-4.134,2.747,1018.260,1.636,1.036
0.494000,720865,1000.00,12,0,1,1317.246,0.574,2.743,1018.188,-0.292,1.026
0.495000,720866,1000.00,12,0,1,1317.726,-0.852,2.745,1019.221,1.594,1.051
0.496000,720867,1000.00,12,0,1,1320.560,0.551,2.745,1019.077,0.826,1.050
0.497000,720868,1000.00,12,0,1,1327.767,5.430,2.833,1016.819,-0.862,1.057
0.498000,720869,1000.00,12,0,1,1331.370,7.861,2.963,1016.891,-1.344,1.073
0.499000,720870,1000.00,12,0,1,1331.394,5.873,3.071,1017.275,-0.344,1.074
0.500000,720871,1000.00,12,0,1,1328.824,2.491,2.997,1017.612,-0.094,1.072
0.501000,720872,1000.00,12,0,1,1325.148,-1.279,2.994,1017.708,0.139,1.032
0.502000,720873,1000.00,12,0,1,1319.576,-5.511,3.093,1016.843,-0.421,0.994
0.503000,720874,1000.00,12,0,1,1312.465,-10.105,3.407,1014.777,-2.190,1.036
0.504000,720875,1000.00,12,0,1,1312.898,-8.379,3.578,1015.450,-1.577,1.059
0.505000,720876,1000.00,12,0,1,1314.219,-3.308,3.608,1017.492,0.679,1.036
0.506000,720877,1000.00,12,0,1,1314.387,-1.794,3.605,1016.098,-0.027,1.033
0.507000,720878,1000.00,12,0,1,1314.147,0.003,3.604,1015.954,-0.869,1.037
0.508000,720879,1000.00,12,0,1,1312.922,-0.277,3.585,1016.195,0.038,1.036
0.509000,720880,1000.00,12,0,1,1312.225,-0.318,3.572,1015.882,-0.506,1.009
0.510000,720881,1000.00,12,0,1,1311.433,-0.657,3.573,1017.468,0.877,1.015
0.511000,720882,1000.00,12,0,1,1312.658,-0.111,3.565,1018.332,1.811,1.038
0.512000,720883,1000.00,12,0,1,1316.309,2.640,3.583,1017.828,1.031,1.044
0.513000,720884,1000.00,12,0,1,1321.305,5.611,3.655,1017.131,0.236,1.036
0.514000,720885,1000.00,12,0,1,1320.993,4.318,3.705,1017.251,0.116,1.034
0.515000,720886,1000.00,12,0,1,1318.182,-0.723,3.706,1019.629,2.005,1.053
0.516000,720887,1000.00,12,0,1,1321.954,0.656,3.691,1019.173,1.969,1.087
0.517000,720888,1000.00,12,0,1,1322.482,1.269,3.694,1018.693,0.646,1.077
0.518000,720889,1000.00,12,0,1,1324.356,0.668,3.685,1018.308,0.553,1.076
0.519000,720890,1000.00,12,0,1,1324.932,1.772,3.687,1017.227,-0.629,1.079
0.520000,720891,1000.00,12,0,1,1327.118,2.264,3.697,1018.909,0.578,1.047
0.521000,720892,1000.00,12,0,1,1325.244,1.942,3.706,1018.068,0.582,1.050
0.522000,720893,1000.00,12,0,1,1323.443,-0.432,3.702,1017.852,-0.483,1.039
0.523000,720894,1000.00,12,0,1,1322.578,0.276,3.697,1017.708,0.034,1.029
0.524000,720895,1000.00,12,0,1,1319.263,-1.432,3.685,1017.131,-0.826,1.036
0.525000,720896,1000.00,12,0,1,1315.997,-3.237,3.713,1018.140,0.113,1.020
0.526000,720897,1000.00,12,0,1,1315.780,-1.875,3.654,1018.116,0.330,1.012
0.527000,720898,1000.00,12,0,1,1316.285,-0.054,3.612,1017.420,-0.590,1.014
0.528000,720899,1000.00,12,0,1,1317.630,1.887,3.621,1017.179,-0.750,1.019
0.529000,720900,1000.00,12,0,1,1320.080,3.973,3.655,1017.107,-0.862,1.027
0.530000,720901,1000.00,12,0,1,1320.488,4.122,3.695,1018.813,0.486,1.025
0.531000,720902,1000.00,12,0,1,1325.941,6.433,3.769,1018.116,0.292,1.023
0.532000,720903,1000.00,12,0,1,1331.778,10.572,4.033,1018.885,0.099,1.018
0.533000,720904,1000.00,12,0,1,1325.317,2.908,4.050,1017.516,-0.341,1.017
0.534000,720905,1000.00,12,0,1,1318.375,-6.774,4.158,1016.939,-1.680,1.043
0.535000,720906,1000.00,12,0,1,1314.844,-10.232,4.336,1017.828,-0.333,1.022
0.536000,720907,1000.00,12,0,1,1322.026,-5.473,4.349,1017.227,-0.680,1.017
0.537000,720908,1000.00,12,0,1,1327.430,1.120,4.351,1016.819,-1.114,0.968
0.538000,720909,1000.00,12,0,1,1325.869,-1.467,4.227,1018.188,0.291,0.945
0.539000,720910,1000.00,12,0,1,1323.251,-4.002,4.212,1018.693,0.985,0.946
0.540000,720911,1000.00,12,0,1,1321.041,-5.438,4.256,1016.939,-0.416,0.942
0.541000,720912,1000.00,12,0,1,1319.960,-5.346,4.307,1016.819,-0.917,0.949
0.542000,720913,1000.00,12,0,1,1318.399,-4.651,4.326,1017.588,0.308,0.921
0.543000,720914,1000.00,12,0,1,1321.353,-1.143,4.289,1017.996,0.568,0.895
0.544000,720915,1000.00,12,0,1,1326.950,5.927,4.370,1017.275,0.165,0.895
0.545000,720916,1000.00,12,0,1,1320.008,1.858,4.376,1017.588,0.052,0.866
0.546000,720917,1000.00,12,0,1,1314.531,-4.030,4.412,1017.299,0.181,0.858
0.547000,720918,1000.00,12,0,1,1312.922,-3.104,4.367,1019.149,1.160,0.865
0.548000,720919,1000.00,12,0,1,1314.795,-1.022,4.226,1018.885,1.516,0.871
0.549000,720920,1000.00,12,0,1,1315.132,0.930,4.145,1017.227,-0.685,0.875
0.550000,720921,1000.00,12,0,1,1319.239,3.324,4.157,1017.348,-0.673,0.880
0.551000,720922,1000.00,12,0,1,1319.407,4.183,4.195,1017.131,-0.604,0.884
0.552000,720923,1000.00,12,0,1,1321.786,3.435,4.150,1017.828,-0.311,0.883
0.553000,720924,1000.00,12,0,1,1321.497,3.004,3.920,1017.588,-0.025,0.827
0.554000,720925,1000.00,12,0,1,1318.711,-1.755,3.744,1016.747,-1.095,0.811
0.555000,720926,1000.00,12,0,1,1320.584,-1.660,3.723,1016.219,-1.229,0.824
0.556000,720927,1000.00,12,0,1,1323.299,0.486,3.715,1015.882,-1.414,0.848
0.557000,720928,1000.00,12,0,1,1322.890,-0.860,3.717,1017.035,-0.220,0.840
0.558000,720929,1000.00,12,0,1,1323.443,-1.007,3.719,1018.140,1.091,0.854
0.559000,720930,1000.00,12,0,1,1323.755,-0.738,3.720,1017.203,0.382,0.852
0.560000,720931,1000.00,12,0,1,1322.314,-1.522,3.725,1017.852,0.533,0.847
0.561000,720932,1000.00,12,0,1,1324.019,-0.049,3.725,1015.474,-0.740,0.814
0.562000,720933,1000.00,12,0,1,1324.067,1.800,3.715,1016.747,-0.687,0.806
0.563000,720934,1000.00,12,0,1,1324.956,2.468,3.646,1017.540,1.297,0.826
0.564000,720935,1000.00,12,0,1,1326.542,5.166,3.668,1016.291,-0.354,0.828
0.565000,720936,1000.00,12,0,1,1321.233,1.494,3.673,1017.251,0.397,0.780
0.566000,720937,1000.00,12,0,1,1315.276,-3.801,3.711,1016.627,0.341,0.730
0.567000,720938,1000.00,12,0,1,1318.759,-0.273,3.707,1016.867,-0.139,0.724
0.568000,720939,1000.00,12,0,1,1319.359,2.396,3.721,1016.219,-0.027,0.720
0.569000,720940,1000.00,12,0,1,1316.981,-0.453,3.713,1017.828,0.488,0.718
0.570000,720941,1000.00,12,0,1,1320.921,2.272,3.713,1019.413,2.521,0.797
0.571000,720942,1000.00,12,0,1,1323.107,4.372,3.754,1018.188,0.926,0.804
0.572000,720943,1000.00,12,0,1,1325.533,4.056,3.797,1015.690,-1.424,0.826
0.573000,720944,1000.00,12,0,1,1317.822,-2.401,3.812,1015.042,-2.219,0.883
0.574000,720945,1000.00,12,0,1,1318.783,-5.895,3.897,1019.173,1.337,0.896
0.575000,720946,1000.00,12,0,1,1323.467,-0.068,3.870,1018.380,1.788,0.931
0.576000,720947,1000.00,12,0,1,1327.214,1.109,3.864,1018.188,0.110,0.930
0.577000,720948,1000.00,12,0,1,1329.616,2.877,3.886,1018.020,0.820,0.933
0.578000,720949,1000.00,12,0,1,1331.778,3.164,3.902,1017.900,-0.030,0.927
0.579000,720950,1000.00,12,0,1,1331.009,2.022,3.872,1019.461,1.499,0.943
0.580000,720951,1000.00,12,0,1,1328.415,-0.846,3.830,1018.933,1.165,0.955
0.581000,720952,1000.00,12,0,1,1325.100,-3.552,3.754,1018.020,-0.184,0.954
0.582000,720953,1000.00,12,0,1,1327.767,-0.865,3.446,1017.348,-0.550,0.958
0.583000,720954,1000.00,12,0,1,1325.365,-0.511,3.422,1015.858,-1.877,0.992
0.584000,720955,1000.00,12,0,1,1320.584,-4.396,3.343,1016.363,-1.407,0.984
0.585000,720956,1000.00,12,0,1,1321.834,-2.131,3.029,1017.828,0.228,0.983
0.586000,720957,1000.00,12,0,1,1324.524,2.188,2.945,1019.894,1.914,1.015
0.587000,720958,1000.00,12,0,1,1325.773,3.642,2.985,1017.540,0.264,1.004
0.588000,720959,1000.00,12,0,1,1323.851,2.504,2.999,1016.435,-1.767,1.034
0.589000,720960,1000.00,12,0,1,1324.812,1.944,2.958,1016.435,-1.102,1.036
0.590000,720961,1000.00,12,0,1,1322.770,0.867,2.859,1018.380,0.170,1.035
0.591000,720962,1000.00,12,0,1,1319.792,-3.520,2.801,1016.267,-0.705,1.031
0.592000,720963,1000.00,12,0,1,1322.939,-1.502,2.731,1017.660,-0.812,1.037
0.593000,720964,1000.00,12,0,1,1323.875,-0.651,2.728,1017.516,0.445,1.036
0.594000,720965,1000.00,12,0,1,1327.959,0.593,2.598,1016.987,-0.927,1.044
0.595000,720966,1000.00,12,0,1,1331.202,3.268,2.625,1017.852,0.230,1.044
0.596000,720967,1000.00,12,0,1,1328.535,-0.798,2.565,1015.978,-1.022,1.054
0.597000,720968,1000.00,12,0,1,1322.290,-7.030,2.716,1016.122,-1.509,1.062
0.598000,720969,1000.00,12,0,1,1321.233,-8.711,2.979,1019.269,1.880,1.074
0.599000,720970,1000.00,12,0,1,1326.710,-2.775,3.001,1018.140,1.210,1.083
0.600000,720971,1000.00,12,0,1,1330.577,1.992,2.978,1020.614,2.219,1.124
0.601000,720972,1000.00,12,0,1,1328.559,0.852,2.921,1017.372,0.753,1.126
0.602000,720973,1000.00,12,0,1,1326.349,-0.895,2.883,1016.747,-1.737,1.151
0.603000,720974,1000.00,12,0,1,1324.356,-1.324,2.858,1016.074,-0.732,1.156
0.604000,720975,1000.00,12,0,1,1321.641,-2.362,2.866,1016.171,-1.442,1.163
0.605000,720976,1000.00,12,0,1,1323.443,0.072,2.857,1016.579,-0.252,1.151
0.606000,720977,1000.00,12,0,1,1322.794,1.783,2.867,1017.684,0.470,1.135
0.607000,720978,1000.00,12,0,1,1322.963,1.579,2.873,1018.068,1.013,1.144
0.608000,720979,1000.00,12,0,1,1326.518,5.327,2.967,1018.501,1.125,1.145
0.609000,720980,1000.00,12,0,1,1329.568,7.511,3.150,1016.771,-0.352,1.144
0.610000,720981,1000.00,12,0,1,1325.893,3.777,3.187,1016.195,-1.259,1.156
0.611000,720982,1000.00,12,0,1,1320.512,-2.876,3.213,1015.474,-1.508,1.171
0.612000,720983,1000.00,12,0,1,1321.113,-3.468,3.240,1013.961,-2.603,1.223
0.613000,720984,1000.00,12,0,1,1323.851,-1.128,3.225,1014.945,-1.792,1.236
0.614000,720985,1000.00,12,0,1,1327.046,0.509,3.142,1018.284,1.668,1.257
0.615000,720986,1000.00,12,0,1,1329.304,1.736,3.145,1017.348,1.284,1.269
0.616000,720987,1000.00,12,0,1,1330.409,1.195,3.103,1015.906,-0.641,1.271
0.617000,720988,1000.00,12,0,1,1337.255,5.301,3.192,1016.315,-0.140,1.271
0.618000,720989,1000.00,12,0,1,1338.408,6.438,3.302,1014.849,-0.948,1.278
0.619000,720990,1000.00,12,0,1,1339.513,4.456,3.361,1014.993,-1.189,1.287
0.620000,720991,1000.00,12,0,1,1333.796,0.394,3.346,1018.140,1.981,1.268
0.621000,720992,1000.00,12,0,1,1329.376,-5.413,3.377,1018.597,2.700,1.318
0.622000,720993,1000.00,12,0,1,1330.601,-2.710,3.349,1017.876,1.460,1.319
0.623000,720994,1000.00,12,0,1,1335.213,2.119,3.346,1017.588,1.059,1.290
0.624000,720995,1000.00,12,0,1,1335.285,3.784,3.284,1018.020,1.143,1.286
0.625000,720996,1000.00,12,0,1,1326.686,-3.018,3.312,1017.540,0.791,1.266
0.626000,720997,1000.00,12,0,1,1318.495,-10.057,3.601,1016.411,-0.458,1.267
0.627000,720998,1000.00,12,0,1,1319.480,-7.597,3.735,1017.203,0.012,1.262
0.628000,720999,1000.00,12,0,1,1322.434,-2.731,3.729,1018.476,1.315,1.276
0.629000,721000,1000.00,12,0,1,1325.437,0.580,3.718,1019.053,1.545,1.277
0.630000,721001,1000.00,12,0,1,1327.214,2.280,3.731,1020.758,2.543,1.316
0.631000,721002,1000.00,12,0,1,1326.878,1.290,3.701,1020.398,2.168,1.351
0.632000,721003,1000.00,12,0,1,1333.099,4.478,3.753,1017.275,-1.113,1.358
0.633000,721004,1000.00,12,0,1,1331.778,3.832,3.791,1016.363,-2.407,1.375
0.634000,721005,1000.00,12,0,1,1329.832,-1.699,3.747,1016.747,-1.589,1.379
0.635000,721006,1000.00,12,0,1,1335.237,2.090,3.747,1016.867,-1.353,1.392
0.636000,721007,1000.00,12,0,1,1345.013,8.774,3.935,1017.684,-0.507,1.367
0.637000,721008,1000.00,12,0,1,1342.107,6.084,3.995,1018.741,0.537,1.368
0.638000,721009,1000.00,12,0,1,1335.405,-3.273,4.006,1019.317,0.993,1.353
0.639000,721010,1000.00,12,0,1,1328.007,-9.114,4.199,1017.732,-0.318,1.344
0.640000,721011,1000.00,12,0,1,1325.533,-11.245,4.489,1017.540,-1.001,1.352
0.641000,721012,1000.00,12,0,1,1328.511,-6.191,4.546,1018.933,0.523,1.350
0.642000,721013,1000.00,12,0,1,1330.841,-1.746,4.548,1017.540,-0.413,1.346
0.643000,721014,1000.00,12,0,1,1335.045,2.759,4.564,1016.531,-1.718,1.367
0.644000,721015,1000.00,12,0,1,1338.456,7.412,4.682,1017.756,-0.379,1.361
0.645000,721016,1000.00,12,0,1,1331.370,1.990,4.667,1017.179,-0.446,1.362
0.646000,721017,1000.00,12,0,1,1324.932,-4.314,4.706,1017.299,-0.694,1.358
0.647000,721018,1000.00,12,0,1,1328.295,-0.777,4.601,1015.738,-1.367,1.355
0.648000,721019,1000.00,12,0,1,1328.295,1.336,4.437,1016.411,-1.371,1.343
0.649000,721020,1000.00,12,0,1,1331.106,2.119,4.430,1016.219,-0.504,1.334
0.650000,721021,1000.00,12,0,1,1326.518,-0.110,4.421,1017.516,-0.018,1.297
0.651000,721022,1000.00,12,0,1,1326.518,-3.446,4.446,1018.645,1.610,1.312
0.652000,721023,1000.00,12,0,1,1332.883,2.857,4.462,1018.116,0.791,1.294
0.653000,721024,1000.00,12,0,1,1332.643,1.830,4.466,1016.891,-0.393,1.291
0.654000,721025,1000.00,12,0,1,1330.577,-2.100,4.463,1018.621,0.713,1.279
0.655000,721026,1000.00,12,0,1,1330.361,-3.015,4.484,1017.540,0.456,1.280
0.656000,721027,1000.00,12,0,1,1330.505,-3.693,4.507,1018.476,0.271,1.279
0.657000,721028,1000.00,12,0,1,1332.571,-2.056,4.511,1016.891,-0.106,1.271
0.658000,721029,1000.00,12,0,1,1334.925,-0.054,4.447,1016.819,-1.160,1.271
0.659000,721030,1000.00,12,0,1,1333.219,-0.927,4.321,1017.852,0.497,1.272
0.660000,721031,1000.00,12,0,1,1333.916,-0.951,4.290,1017.492,0.148,1.260
0.661000,721032,1000.00,12,0,1,1337.399,3.294,4.296,1016.651,-0.631,1.245
0.662000,721033,1000.00,12,0,1,1335.237,2.436,4.281,1016.891,-0.321,1.190
0.663000,721034,1000.00,12,0,1,1328.776,-2.737,4.296,1017.348,0.162,1.163
0.664000,721035,1000.00,12,0,1,1327.238,-3.462,4.323,1015.714,-0.824,1.145
0.665000,721036,1000.00,12,0,1,1328.752,-0.080,4.316,1017.107,-0.317,1.131
0.666000,721037,1000.00,12,0,1,1326.734,-0.241,4.313,1016.507,0.351,1.129
0.667000,721038,1000.00,12,0,1,1323.755,-2.275,4.259,1016.771,-0.431,1.130
0.668000,721039,1000.00,12,0,1,1326.229,0.250,4.161,1017.035,0.613,1.125
0.669000,721040,1000.00,12,0,1,1327.142,2.210,4.125,1017.684,0.561,1.116
0.670000,721041,1000.00,12,0,1,1330.169,3.467,4.154,1019.750,2.404,1.132
0.671000,721042,1000.00,12,0,1,1329.280,3.011,4.105,1019.053,1.827,1.097
0.672000,721043,1000.00,12,0,1,1329.856,0.895,4.089,1018.597,0.505,1.079
0.673000,721044,1000.00,12,0,1,1331.994,2.238,4.090,1017.756,0.067,1.069
0.674000,721045,1000.00,12,0,1,1330.361,-0.467,4.055,1015.450,-2.238,1.103
0.675000,721046,1000.00,12,0,1,1330.289,-2.293,4.046,1017.083,-1.014,1.107
0.676000,721047,1000.00,12,0,1,1332.571,-0.666,3.789,1018.332,0.863,1.112
0.677000,721048,1000.00,12,0,1,1335.742,1.214,3.637,1015.546,-1.491,1.131
0.678000,721049,1000.00,12,0,1,1338.912,3.669,3.654,1016.531,-1.254,1.130
0.679000,721050,1000.00,12,0,1,1343.885,6.785,3.777,1017.155,0.407,1.110
0.680000,721051,1000.00,12,0,1,1341.675,5.373,3.839,1017.588,0.236,1.051
0.681000,721052,1000.00,12,0,1,1334.565,-2.137,3.847,1016.363,-0.175,1.005
0.682000,721053,1000.00,12,0,1,1334.733,-2.065,3.805,1016.507,-0.675,0.998
0.683000,721054,1000.00,12,0,1,1333.484,-0.826,3.768,1017.227,0.533,0.941
0.684000,721055,1000.00,12,0,1,1330.361,-3.082,3.786,1016.987,0.220,0.914
0.685000,721056,1000.00,12,0,1,1329.808,-2.079,3.786,1016.459,-0.268,0.895
0.686000,721057,1000.00,12,0,1,1329.592,-0.943,3.579,1016.531,-0.203,0.892
0.687000,721058,1000.00,12,0,1,1328.727,-0.752,3.476,1017.227,0.353,0.890
0.688000,721059,1000.00,12,0,1,1332.547,2.413,3.462,1019.101,1.900,0.919
0.689000,721060,1000.00,12,0,1,1333.868,4.364,3.271,1017.828,0.976,0.929
0.690000,721061,1000.00,12,0,1,1329.568,-0.472,2.860,1016.747,-0.713,0.923
0.691000,721062,1000.00,12,0,1,1326.325,-4.499,2.796,1017.804,0.257,0.921
0.692000,721063,1000.00,12,0,1,1326.253,-4.944,2.871,1017.444,0.196,0.920
0.693000,721064,1000.00,12,0,1,1331.154,-1.497,2.852,1016.627,-0.840,0.895
0.694000,721065,1000.00,12,0,1,1337.327,3.593,2.701,1018.957,1.032,0.905
0.695000,721066,1000.00,12,0,1,1340.426,4.837,2.772,1018.621,1.308,0.922
0.696000,721067,1000.00,12,0,1,1338.720,1.924,2.718,1018.837,0.592,0.920
0.697000,721068,1000.00,12,0,1,1337.255,-1.266,2.722,1018.020,0.392,0.901
0.698000,721069,1000.00,12,0,1,1336.126,-2.411,2.736,1018.813,0.293,0.881
0.699000,721070,1000.00,12,0,1,1336.462,-2.429,2.741,1020.903,2.403,0.942
0.700000,721071,1000.00,12,0,1,1336.702,-1.303,2.748,1019.101,0.885,0.950
0.701000,721072,1000.00,12,0,1,1337.255,-0.324,2.704,1017.299,-1.474,0.946
0.702000,721073,1000.00,12,0,1,1334.925,-0.889,2.677,1018.909,0.009,0.939
0.703000,721074,1000.00,12,0,1,1332.090,-2.651,2.691,1018.837,0.335,0.939
0.704000,721075,1000.00,12,0,1,1335.261,1.017,2.678,1017.948,-0.770,0.939
0.705000,721076,1000.00,12,0,1,1331.922,0.862,2.647,1016.747,-1.639,0.966
0.706000,721077,1000.00,12,0,1,1329.496,-2.109,2.612,1018.837,-0.207,0.965
0.707000,721078,1000.00,12,0,1,1332.186,1.797,2.608,1018.116,0.113,0.965
0.708000,721079,1000.00,12,0,1,1335.261,4.587,2.687,1018.020,-0.921,0.960
0.709000,721080,1000.00,12,0,1,1334.781,4.130,2.747,1017.612,-0.588,0.961
0.710000,721081,1000.00,12,0,1,1331.634,0.199,2.744,1016.146,-2.108,1.006
0.711000,721082,1000.00,12,0,1,1330.457,-2.071,2.720,1015.786,-2.252,1.051
0.712000,721083,1000.00,12,0,1,1333.604,-0.201,2.698,1017.492,-0.528,1.053
0.713000,721084,1000.00,12,0,1,1337.783,2.539,2.694,1017.348,-0.135,1.053
0.714000,721085,1000.00,12,0,1,1338.144,1.809,2.662,1017.876,-0.023,1.047
0.715000,721086,1000.00,12,0,1,1336.534,-1.481,2.670,1018.885,1.085,1.057
0.716000,721087,1000.00,12,0,1,1340.161,0.117,2.670,1019.365,1.382,1.074
0.717000,721088,1000.00,12,0,1,1339.849,0.199,2.650,1018.044,0.209,1.072
0.718000,721089,1000.00,12,0,1,1339.585,-1.703,2.661,1019.269,0.695,1.073
0.719000,721090,1000.00,12,0,1,1344.917,2.866,2.674,1017.251,-0.214,1.071
0.720000,721091,1000.00,12,0,1,1347.151,5.361,2.735,1016.771,-1.576,1.040
0.721000,721092,1000.00,12,0,1,1346.815,4.191,2.766,1017.299,-0.242,1.007
0.722000,721093,1000.00,12,0,1,1342.203,0.815,2.766,1017.780,0.030,1.005
0.723000,721094,1000.00,12,0,1,1340.786,-1.212,2.753,1020.782,2.502,1.065
0.724000,721095,1000.00,12,0,1,1342.635,1.949,2.766,1019.149,1.786,1.048
0.725000,721096,1000.00,12,0,1,1338.888,-0.188,2.747,1018.549,-0.217,1.039
0.726000,721097,1000.00,12,0,1,1333.339,-4.828,2.829,1018.933,0.841,1.038
0.727000,721098,1000.00,12,0,1,1332.835,-4.531,2.896,1017.420,-0.881,1.024
0.728000,721099,1000.00,12,0,1,1334.781,-1.629,2.858,1016.146,-1.914,1.045
0.729000,721100,1000.00,12,0,1,1335.069,-0.788,2.694,1018.140,-0.367,1.044
0.730000,721101,1000.00,12,0,1,1335.189,-1.151,2.590,1019.029,1.066,1.055
0.731000,721102,1000.00,12,0,1,1340.161,2.159,2.591,1017.780,-0.333,1.055
0.732000,721103,1000.00,12,0,1,1346.070,6.473,2.732,1017.588,-0.742,1.056
0.733000,721104,1000.00,12,0,1,1348.977,6.932,2.900,1015.186,-2.220,1.099
0.734000,721105,1000.00,12,0,1,1348.016,3.735,2.916,1016.050,-2.156,1.140
0.735000,721106,1000.00,12,0,1,1344.005,-1.949,2.914,1017.275,0.140,1.140
0.736000,721107,1000.00,12,0,1,1344.509,-3.619,2.955,1016.531,-0.720,1.144
0.737000,721108,1000.00,12,0,1,1338.936,-7.324,3.130,1018.933,1.182,1.155
0.738000,721109,1000.00,12,0,1,1340.329,-8.197,3.320,1018.549,1.596,1.146
0.739000,721110,1000.00,12,0,1,1341.771,-3.743,3.305,1020.374,1.904,1.169
0.740000,721111,1000.00,12,0,1,1344.773,-1.794,3.314,1021.023,3.246,1.252
0.741000,721112,1000.00,12,0,1,1348.617,3.480,3.289,1016.435,-1.315,1.265
0.742000,721113,1000.00,12,0,1,1344.173,0.639,3.215,1018.044,-0.953,1.272
0.743000,721114,1000.00,12,0,1,1335.501,-6.590,3.341,1018.837,1.187,1.277
0.744000,721115,1000.00,12,0,1,1334.324,-6.466,3.426,1018.428,-0.081,1.269
0.745000,721116,1000.00,12,0,1,1335.910,-2.438,3.375,1018.260,0.250,1.256
0.746000,721117,1000.00,12,0,1,1336.726,-0.094,3.364,1019.221,0.593,1.256
0.747000,721118,1000.00,12,0,1,1332.138,-2.531,3.378,1018.837,0.688,1.259
0.748000,721119,1000.00,12,0,1,1334.853,-0.925,3.364,1017.083,-1.177,1.269
0.749000,721120,1000.00,12,0,1,1339.369,4.628,3.410,1017.131,-1.271,1.236
0.750000,721121,1000.00,12,0,1,1340.570,4.675,3.468,1017.420,-0.564,1.232
0.751000,721122,1000.00,12,0,1,1339.489,2.605,3.487,1018.140,-0.147,1.214
0.752000,721123,1000.00,12,0,1,1346.575,6.074,3.589,1017.804,-0.018,1.214
0.753000,721124,1000.00,12,0,1,1349.746,8.572,3.770,1018.308,-0.103,1.214
0.754000,721125,1000.00,12,0,1,1347.536,3.402,3.798,1018.909,0.768,1.214
0.755000,721126,1000.00,12,0,1,1346.863,0.603,3.797,1018.501,0.140,1.191
0.756000,721127,1000.00,12,0,1,1346.118,-1.083,3.788,1018.332,-0.118,1.191
0.757000,721128,1000.00,12,0,1,1347.632,-1.222,3.784,1018.308,-0.146,1.191
0.758000,721129,1000.00,12,0,1,1349.385,0.603,3.729,1018.861,0.213,1.184
0.759000,721130,1000.00,12,0,1,1345.158,-2.994,3.707,1019.173,0.607,1.185
0.760000,721131,1000.00,12,0,1,1344.677,-3.856,3.747,1017.756,-0.619,1.150
0.761000,721132,1000.00,12,0,1,1347.079,-0.133,3.735,1017.516,-1.070,1.115
0.762000,721133,1000.00,12,0,1,1346.094,0.260,3.735,1018.693,0.228,1.113
0.763000,721134,1000.00,12,0,1,1342.515,-1.976,3.728,1016.555,-1.097,1.124
0.764000,721135,1000.00,12,0,1,1337.951,-4.579,3.776,1016.555,-1.716,1.150
0.765000,721136,1000.00,12,0,1,1339.393,-2.638,3.788,1017.972,0.354,1.140
0.766000,721137,1000.00,12,0,1,1342.732,2.396,3.803,1017.852,0.269,1.124
0.767000,721138,1000.00,12,0,1,1345.854,5.054,3.870,1017.492,-0.055,1.124
0.768000,721139,1000.00,12,0,1,1349.097,7.587,4.009,1018.020,0.355,1.121
0.769000,721140,1000.00,12,0,1,1350.106,7.197,4.116,1020.614,2.370,1.169
0.770000,721141,1000.00,12,0,1,1344.821,1.304,4.050,1021.047,2.976,1.223
0.771000,721142,1000.00,12,0,1,1339.465,-5.507,4.081,1019.990,1.179,1.233
0.772000,721143,1000.00,12,0,1,1339.849,-6.038,4.168,1020.350,1.100,1.243
0.773000,721144,1000.00,12,0,1,1340.546,-5.177,4.228,1017.660,-1.026,1.201
0.774000,721145,1000.00,12,0,1,1347.103,-1.005,4.222,1018.260,-1.511,1.193
0.775000,721146,1000.00,12,0,1,1350.154,2.532,4.237,1018.140,-0.482,1.195
0.776000,721147,1000.00,12,0,1,1349.866,0.116,4.181,1018.669,-0.780,1.194
0.777000,721148,1000.00,12,0,1,1348.545,-1.265,4.136,1018.549,-0.128,1.187
0.778000,721149,1000.00,12,0,1,1348.016,-2.494,4.144,1018.909,-0.313,1.157
0.779000,721150,1000.00,12,0,1,1349.193,-1.051,4.146,1018.212,-0.402,1.157
0.780000,721151,1000.00,12,0,1,1348.977,-0.407,4.143,1017.684,-1.130,1.158
0.781000,721152,1000.00,12,0,1,1346.527,-1.875,4.140,1018.356,-0.345,1.158
0.782000,721153,1000.00,12,0,1,1348.232,0.141,4.038,1019.653,0.940,1.161
0.783000,721154,1000.00,12,0,1,1347.944,1.799,3.925,1017.011,-0.951,1.126
0.784000,721155,1000.00,12,0,1,1346.911,1.119,3.893,1015.498,-2.785,1.153
0.785000,721156,1000.00,12,0,1,1348.472,3.160,3.908,1016.339,-1.461,1.172
0.786000,721157,1000.00,12,0,1,1347.079,2.856,3.896,1017.540,-0.043,1.167
0.787000,721158,1000.00,12,0,1,1348.521,3.015,3.780,1017.804,0.389,1.156
0.788000,721159,1000.00,12,0,1,1349.385,4.389,3.651,1016.819,-0.351,1.135
0.789000,721160,1000.00,12,0,1,1345.086,-0.366,3.612,1018.885,0.895,1.110
0.790000,721161,1000.00,12,0,1,1339.056,-6.301,3.712,1020.494,2.883,1.090
0.791000,721162,1000.00,12,0,1,1344.461,-3.245,3.708,1018.212,0.474,1.076
0.792000,721163,1000.00,12,0,1,1346.983,0.716,3.708,1018.597,0.034,1.068
0.793000,721164,1000.00,12,0,1,1346.671,-1.868,3.599,1018.837,0.751,1.060
0.794000,721165,1000.00,12,0,1,1344.893,-3.471,3.515,1017.852,-0.497,1.062
0.795000,721166,1000.00,12,0,1,1347.752,-2.736,3.519,1017.732,-0.585,1.065
0.796000,721167,1000.00,12,0,1,1352.316,1.584,3.527,1015.906,-1.768,1.090
0.797000,721168,1000.00,12,0,1,1351.667,0.694,3.510,1017.492,-0.895,1.093
0.798000,721169,1000.00,12,0,1,1353.181,0.515,3.508,1017.996,0.699,1.085
0.799000,721170,1000.00,12,0,1,1355.487,3.200,3.476,1020.350,1.799,1.100
0.800000,721171,1000.00,12,0,1,1351.427,-0.287,3.413,1017.468,0.581,1.100
0.801000,721172,1000.00,12,0,1,1356.255,2.665,3.414,1017.756,-0.978,1.109
0.802000,721173,1000.00,12,0,1,1353.541,3.347,3.338,1019.029,1.468,1.128
0.803000,721174,1000.00,12,0,1,1347.392,-3.472,3.148,1018.236,0.244,1.128
0.804000,721175,1000.00,12,0,1,1348.617,-1.172,3.116,1017.011,-0.749,1.128
0.805000,721176,1000.00,12,0,1,1352.652,3.583,3.155,1017.900,-0.153,1.128
0.806000,721177,1000.00,12,0,1,1353.012,4.600,3.218,1017.708,0.072,1.128
0.807000,721178,1000.00,12,0,1,1347.728,0.113,3.214,1019.798,1.364,1.144
0.808000,721179,1000.00,12,0,1,1339.993,-7.007,3.362,1019.461,1.586,1.166
0.809000,721180,1000.00,12,0,1,1339.561,-7.420,3.496,1017.420,-0.829,1.168
0.810000,721181,1000.00,12,0,1,1340.041,-5.379,3.536,1020.302,1.037,1.174
0.811000,721182,1000.00,12,0,1,1343.644,-2.721,3.557,1020.470,2.141,1.203
0.812000,721183,1000.00,12,0,1,1346.815,0.618,3.558,1017.948,-1.116,1.213
0.813000,721184,1000.00,12,0,1,1352.940,4.105,3.594,1019.341,-0.097,1.203
0.814000,721185,1000.00,12,0,1,1352.700,3.912,3.578,1020.590,1.296,1.193
0.815000,721186,1000.00,12,0,1,1355.198,2.600,3.578,1019.293,0.027,1.191
0.816000,721187,1000.00,12,0,1,1358.897,5.486,3.645,1016.579,-2.431,1.240
0.817000,721188,1000.00,12,0,1,1358.897,3.764,3.614,1018.332,-1.312,1.253
0.818000,721189,1000.00,12,0,1,1360.147,3.166,3.480,1019.413,0.702,1.256
0.819000,721190,1000.00,12,0,1,1355.967,-0.011,3.328,1019.822,0.513,1.213
0.820000,721191,1000.00,12,0,1,1350.082,-6.223,3.437,1019.485,0.553,1.140
0.821000,721192,1000.00,12,0,1,1350.586,-4.648,3.412,1019.726,0.293,1.129
0.822000,721193,1000.00,12,0,1,1350.274,-2.818,3.327,1019.173,0.101,1.118
0.823000,721194,1000.00,12,0,1,1350.274,-1.716,3.254,1020.758,0.886,1.116
0.824000,721195,1000.00,12,0,1,1350.274,0.012,3.251,1018.837,-0.016,1.095
0.825000,721196,1000.00,12,0,1,1350.274,0.890,3.234,1019.053,-0.997,1.102
0.826000,721197,1000.00,12,0,1,1349.121,0.917,3.237,1017.059,-1.529,1.117
0.827000,721198,1000.00,12,0,1,1345.494,-1.672,3.240,1016.987,-2.510,1.172
0.828000,721199,1000.00,12,0,1,1347.103,-0.748,3.223,1017.732,-0.825,1.177
0.829000,721200,1000.00,12,0,1,1349.193,2.101,3.233,1016.987,-1.423,1.193
0.830000,721201,1000.00,12,0,1,1352.700,3.665,3.274,1018.260,-0.478,1.184
0.831000,721202,1000.00,12,0,1,1356.832,6.518,3.391,1018.885,0.743,1.188
0.832000,721203,1000.00,12,0,1,1358.921,6.208,3.502,1018.020,-0.413,1.182
0.833000,721204,1000.00,12,0,1,1363.389,7.276,3.642,1019.389,0.710,1.178
0.834000,721205,1000.00,12,0,1,1358.825,2.414,3.654,1017.708,-0.265,1.111
0.835000,721206,1000.00,12,0,1,1354.502,-5.126,3.698,1019.966,0.637,1.096
0.836000,721207,1000.00,12,0,1,1354.598,-5.002,3.744,1019.461,1.471,1.115
0.837000,721208,1000.00,12,0,1,1356.351,-3.990,3.762,1018.380,-0.634,1.117
0.838000,721209,1000.00,12,0,1,1357.961,-2.029,3.721,1018.837,0.216,1.117
0.839000,721210,1000.00,12,0,1,1357.624,-1.950,3.731,1017.828,-0.537,1.112
0.840000,721211,1000.00,12,0,1,1357.240,-1.946,3.634,1017.972,-0.672,1.039
0.841000,721212,1000.00,12,0,1,1353.709,-3.470,3.638,1018.957,0.666,1.041
0.842000,721213,1000.00,12,0,1,1354.622,-2.641,3.656,1019.581,1.028,1.051
0.843000,721214,1000.00,12,0,1,1351.547,-2.119,3.658,1018.380,0.295,1.047
0.844000,721215,1000.00,12,0,1,1350.442,-3.381,3.657,1020.614,1.307,1.061
0.845000,721216,1000.00,12,0,1,1353.805,1.731,3.644,1018.765,0.915,1.065
0.846000,721217,1000.00,12,0,1,1357.144,5.155,3.710,1016.291,-2.517,1.095
0.847000,721218,1000.00,12,0,1,1355.799,4.418,3.761,1018.861,0.031,1.088
0.848000,721219,1000.00,12,0,1,1351.835,0.084,3.760,1018.813,0.715,1.088
0.849000,721220,1000.00,12,0,1,1350.250,-2.074,3.744,1019.341,0.299,1.059
0.850000,721221,1000.00,12,0,1,1351.859,-0.912,3.746,1019.341,0.886,1.063
0.851000,721222,1000.00,12,0,1,1347.824,-4.167,3.774,1019.149,-0.001,1.054
0.852000,721223,1000.00,12,0,1,1349.986,-4.343,3.794,1019.581,0.559,1.036
0.853000,721224,1000.00,12,0,1,1356.351,1.766,3.770,1020.614,1.071,1.047
0.854000,721225,1000.00,12,0,1,1359.618,3.559,3.800,1018.909,-0.091,1.041
0.855000,721226,1000.00,12,0,1,1362.188,4.049,3.809,1019.774,-0.289,1.042
0.856000,721227,1000.00,12,0,1,1359.042,0.766,3.755,1017.348,-1.239,1.056
0.857000,721228,1000.00,12,0,1,1356.303,-3.658,3.790,1018.501,-1.528,1.061
0.858000,721229,1000.00,12,0,1,1357.648,-2.047,3.670,1019.750,0.955,1.046
0.859000,721230,1000.00,12,0,1,1356.928,-1.978,3.528,1020.518,0.920,1.047
0.860000,721231,1000.00,12,0,1,1357.000,-1.581,3.452,1020.494,1.214,1.051
0.861000,721232,1000.00,12,0,1,1358.873,1.130,3.434,1019.197,-0.165,1.007
0.862000,721233,1000.00,12,0,1,1358.105,1.658,3.441,1019.101,-0.563,0.997
0.863000,721234,1000.00,12,0,1,1354.261,-0.896,3.394,1019.053,-0.156,0.998
0.864000,721235,1000.00,12,0,1,1354.069,-0.645,3.350,1016.987,-1.967,1.019
0.865000,721236,1000.00,12,0,1,1350.730,-1.360,3.336,1017.468,-1.624,1.045
0.866000,721237,1000.00,12,0,1,1350.875,-1.656,3.252,1017.636,-0.792,0.993
0.867000,721238,1000.00,12,0,1,1351.907,1.130,3.213,1019.389,0.437,0.977
0.868000,721239,1000.00,12,0,1,1350.418,-0.299,3.182,1018.356,0.286,0.973
0.869000,721240,1000.00,12,0,1,1349.217,-1.434,3.188,1017.372,-1.295,0.988
0.870000,721241,1000.00,12,0,1,1347.920,-2.608,3.086,1017.251,-0.953,0.994
0.871000,721242,1000.00,12,0,1,1353.469,0.843,3.018,1016.963,-1.134,1.006
0.872000,721243,1000.00,12,0,1,1352.532,1.283,2.997,1017.011,-0.955,1.015
0.873000,721244,1000.00,12,0,1,1353.229,-1.385,2.993,1018.861,0.704,1.012
0.874000,721245,1000.00,12,0,1,1355.198,0.866,2.996,1016.771,-0.459,1.014
0.875000,721246,1000.00,12,0,1,1360.291,2.988,3.023,1021.215,1.926,1.040
0.876000,721247,1000.00,12,0,1,1363.702,5.970,3.136,1021.383,3.851,1.154
0.877000,721248,1000.00,12,0,1,1360.171,1.556,3.135,1019.197,0.140,1.098
0.878000,721249,1000.00,12,0,1,1357.240,-2.382,3.151,1020.110,1.039,1.102
0.879000,721250,1000.00,12,0,1,1357.264,-1.838,3.148,1018.981,0.308,1.084
0.880000,721251,1000.00,12,0,1,1361.203,1.635,3.113,1017.660,-1.364,1.099
0.881000,721252,1000.00,12,0,1,1358.753,1.673,2.983,1016.891,-1.442,1.113
0.882000,721253,1000.00,12,0,1,1356.904,-0.945,2.854,1016.459,-1.859,1.142
0.883000,721254,1000.00,12,0,1,1353.997,-1.060,2.666,1017.492,-0.437,1.139
0.884000,721255,1000.00,12,0,1,1352.604,-2.250,2.664,1018.260,0.452,1.141
0.885000,721256,1000.00,12,0,1,1353.589,0.443,2.564,1018.380,0.702,1.141
0.886000,721257,1000.00,12,0,1,1354.718,2.064,2.482,1017.516,-0.076,1.122
0.887000,721258,1000.00,12,0,1,1356.880,4.052,2.484,1018.260,0.302,1.119
0.888000,721259,1000.00,12,0,1,1357.768,4.769,2.557,1018.140,0.561,1.122
0.889000,721260,1000.00,12,0,1,1355.823,1.996,2.558,1017.612,-0.271,1.120
0.890000,721261,1000.00,12,0,1,1351.379,-2.615,2.570,1018.404,0.367,1.117
0.891000,721262,1000.00,12,0,1,1351.427,-4.200,2.592,1018.717,0.717,1.118
0.892000,721263,1000.00,12,0,1,1354.886,-1.096,2.569,1019.389,0.911,1.116
0.893000,721264,1000.00,12,0,1,1357.768,0.447,2.553,1018.525,0.348,1.116
0.894000,721265,1000.00,12,0,1,1361.516,2.456,2.531,1019.485,0.409,1.102
0.895000,721266,1000.00,12,0,1,1362.765,2.572,2.546,1019.990,1.327,1.110
0.896000,721267,1000.00,12,0,1,1365.047,2.546,2.465,1018.717,-0.206,1.052
0.897000,721268,1000.00,12,0,1,1369.154,5.205,2.496,1021.143,1.364,1.070
0.898000,721269,1000.00,12,0,1,1374.487,8.307,2.759,1020.782,1.821,1.096
0.899000,721270,1000.00,12,0,1,1371.532,5.595,2.855,1020.302,0.265,1.096
0.900000,721271,1000.00,12,0,1,1364.590,-2.289,2.870,1019.269,-0.058,1.088
0.901000,721272,1000.00,12,0,1,1363.053,-3.625,2.855,1017.588,-1.921,1.122
0.902000,721273,1000.00,12,0,1,1363.221,-1.987,2.803,1018.380,-1.070,1.129
0.903000,721274,1000.00,12,0,1,1359.882,-3.509,2.835,1018.621,-0.274,1.120
0.904000,721275,1000.00,12,0,1,1348.689,-11.083,3.200,1017.420,-1.316,1.135
0.905000,721276,1000.00,12,0,1,1346.431,-12.826,3.634,1019.437,0.249,1.135
0.906000,721277,1000.00,12,0,1,1346.671,-8.000,3.804,1017.900,-0.147,1.121
0.907000,721278,1000.00,12,0,1,1349.265,-4.964,3.834,1019.221,-0.225,1.101
0.908000,721279,1000.00,12,0,1,1353.541,0.929,3.825,1018.909,0.697,1.097
0.909000,721280,1000.00,12,0,1,1360.291,6.134,3.912,1018.933,-0.391,1.091
0.910000,721281,1000.00,12,0,1,1362.356,7.876,4.062,1020.374,1.207,1.090
0.911000,721282,1000.00,12,0,1,1360.867,4.041,4.098,1017.468,-1.119,1.102
0.912000,721283,1000.00,12,0,1,1359.714,1.090,4.095,1016.219,-3.090,1.182
0.913000,721284,1000.00,12,0,1,1360.483,0.082,4.093,1016.531,-1.868,1.211
0.914000,721285,1000.00,12,0,1,1361.948,0.003,4.092,1017.059,-1.503,1.198
0.915000,721286,1000.00,12,0,1,1360.507,-1.835,4.095,1018.452,0.207,1.176
0.916000,721287,1000.00,12,0,1,1364.278,-0.555,4.089,1017.348,-0.447,1.173
0.917000,721288,1000.00,12,0,1,1362.861,-0.222,4.086,1018.356,-0.039,1.171
0.918000,721289,1000.00,12,0,1,1362.981,-2.196,4.098,1018.501,0.865,1.177
0.919000,721290,1000.00,12,0,1,1361.564,-1.289,4.097,1018.116,0.089,1.162
0.920000,721291,1000.00,12,0,1,1358.129,-4.356,4.127,1016.747,-0.604,1.158
0.921000,721292,1000.00,12,0,1,1359.834,-1.616,4.131,1018.068,0.076,1.147
0.922000,721293,1000.00,12,0,1,1357.192,-1.191,4.131,1019.173,1.811,1.167
0.923000,721294,1000.00,12,0,1,1354.718,-3.049,4.149,1017.804,0.447,1.164
0.924000,721295,1000.00,12,0,1,1355.559,-0.059,4.147,1017.131,-0.381,1.164
0.925000,721296,1000.00,12,0,1,1355.342,0.965,4.127,1017.323,0.044,1.132
0.926000,721297,1000.00,12,0,1,1354.742,1.342,4.045,1017.540,0.206,0.992
0.927000,721298,1000.00,12,0,1,1353.877,0.979,4.041,1019.509,1.799,1.024
0.928000,721299,1000.00,12,0,1,1353.997,1.003,4.029,1017.852,0.782,1.020
0.929000,721300,1000.00,12,0,1,1357.024,3.081,4.045,1018.452,0.153,1.019
0.930000,721301,1000.00,12,0,1,1359.786,4.853,4.096,1018.933,1.251,1.016
0.931000,721302,1000.00,12,0,1,1363.509,6.075,4.178,1016.171,-1.478,1.017
0.932000,721303,1000.00,12,0,1,1361.612,3.389,4.204,1018.212,-0.450,0.985
0.933000,721304,1000.00,12,0,1,1361.203,-0.182,4.201,1020.374,2.349,1.037
0.934000,721305,1000.00,12,0,1,1358.994,-2.307,4.202,1018.957,0.588,1.039
0.935000,721306,1000.00,12,0,1,1362.525,-1.733,4.208,1018.741,-0.032,1.034
0.936000,721307,1000.00,12,0,1,1365.887,2.067,4.208,1017.828,-0.585,1.037
0.937000,721308,1000.00,12,0,1,1368.770,2.947,4.190,1020.158,0.779,1.042
0.938000,721309,1000.00,12,0,1,1371.052,4.777,4.190,1020.182,1.708,1.067
0.939000,721310,1000.00,12,0,1,1371.436,4.425,4.227,1018.669,-0.459,1.068
0.940000,721311,1000.00,12,0,1,1364.110,-1.492,4.216,1018.669,-0.332,1.068
0.941000,721312,1000.00,12,0,1,1362.597,-3.813,4.209,1017.660,-0.938,1.071
0.942000,721313,1000.00,12,0,1,1362.260,-1.471,4.211,1018.356,-0.624,1.067
0.943000,721314,1000.00,12,0,1,1360.747,-1.990,4.220,1020.350,1.561,1.089
0.944000,721315,1000.00,12,0,1,1361.660,-0.033,4.206,1020.014,1.263,1.102
0.945000,721316,1000.00,12,0,1,1362.765,2.202,4.202,1019.389,0.320,1.087
0.946000,721317,1000.00,12,0,1,1362.645,2.213,4.198,1018.236,-0.636,1.090
0.947000,721318,1000.00,12,0,1,1364.734,3.763,4.167,1017.828,-1.226,1.087
0.948000,721319,1000.00,12,0,1,1363.966,2.878,4.018,1019.581,0.314,1.057
0.949000,721320,1000.00,12,0,1,1361.732,-0.425,3.940,1019.221,0.401,1.057
0.950000,721321,1000.00,12,0,1,1360.843,-2.296,3.940,1018.693,-0.672,1.062
0.951000,721322,1000.00,12,0,1,1365.960,0.641,3.908,1019.221,-0.084,1.026
0.952000,721323,1000.00,12,0,1,1371.292,4.563,3.951,1020.062,0.456,1.017
0.953000,721324,1000.00,12,0,1,1366.848,-0.488,3.920,1018.212,-0.872,1.024
0.954000,721325,1000.00,12,0,1,1362.597,-6.980,3.726,1019.053,-0.953,1.016
0.955000,721326,1000.00,12,0,1,1365.119,-5.135,3.335,1019.101,-0.024,1.015
0.956000,721327,1000.00,12,0,1,1368.866,-1.751,3.147,1018.621,-0.958,1.024
0.957000,721328,1000.00,12,0,1,1372.565,1.226,3.073,1017.828,-1.196,1.037
0.958000,721329,1000.00,12,0,1,1373.214,1.921,3.082,1018.645,-0.690,1.037
0.959000,721330,1000.00,12,0,1,1364.879,-4.776,3.033,1017.780,-0.699,1.041
0.960000,721331,1000.00,12,0,1,1363.101,-7.191,2.999,1018.981,-0.160,1.027
0.961000,721332,1000.00,12,0,1,1366.440,-1.397,2.951,1018.597,0.410,1.016
0.962000,721333,1000.00,12,0,1,1364.879,-0.999,2.950,1019.101,0.212,0.918
0.963000,721334,1000.00,12,0,1,1364.518,-0.646,2.952,1020.086,1.500,0.904
0.964000,721335,1000.00,12,0,1,1362.909,-0.031,2.952,1020.014,1.261,0.897
0.965000,721336,1000.00,12,0,1,1359.930,-2.104,2.955,1019.173,0.329,0.898
0.966000,721337,1000.00,12,0,1,1361.348,-0.159,2.954,1018.092,-0.622,0.900
0.967000,721338,1000.00,12,0,1,1363.341,2.472,2.975,1018.356,-0.655,0.904
0.968000,721339,1000.00,12,0,1,1365.767,4.029,3.013,1018.501,-0.084,0.896
0.969000,721340,1000.00,12,0,1,1363.798,2.214,3.024,1019.341,0.248,0.897
0.970000,721341,1000.00,12,0,1,1362.044,-1.287,2.966,1020.158,1.219,0.909
0.971000,721342,1000.00,12,0,1,1360.123,-3.204,2.991,1018.693,-0.231,0.910
0.972000,721343,1000.00,12,0,1,1363.678,-1.913,2.999,1018.813,-0.603,0.877
0.973000,721344,1000.00,12,0,1,1366.944,1.260,2.973,1019.629,0.390,0.876
0.974000,721345,1000.00,12,0,1,1367.209,-0.006,2.973,1019.653,0.264,0.876
0.975000,721346,1000.00,12,0,1,1365.911,-1.911,2.982,1020.855,1.038,0.888
0.976000,721347,1000.00,12,0,1,1368.145,-1.034,2.980,1018.501,-0.518,0.890
0.977000,721348,1000.00,12,0,1,1370.571,1.412,2.983,1018.020,-1.863,0.893
0.978000,721349,1000.00,12,0,1,1368.530,-0.192,2.980,1018.621,-0.459,0.888
0.979000,721350,1000.00,12,0,1,1372.181,1.927,2.960,1019.653,0.185,0.889
0.980000,721351,1000.00,12,0,1,1375.039,6.191,3.010,1019.461,0.518,0.874
0.981000,721352,1000.00,12,0,1,1370.331,1.973,2.898,1019.726,0.331,0.850
0.982000,721353,1000.00,12,0,1,1363.894,-3.254,2.895,1017.540,-0.984,0.859
0.983000,721354,1000.00,12,0,1,1361.348,-4.596,2.967,1018.549,-0.869,0.801
0.984000,721355,1000.00,12,0,1,1363.293,-1.210,2.954,1017.684,-0.384,0.799
0.985000,721356,1000.00,12,0,1,1361.564,-0.607,2.945,1018.332,-0.659,0.804
0.986000,721357,1000.00,12,0,1,1361.852,-0.572,2.932,1020.254,1.667,0.834
0.987000,721358,1000.00,12,0,1,1363.149,1.830,2.913,1019.173,0.746,0.833
0.988000,721359,1000.00,12,0,1,1364.350,2.250,2.852,1017.540,-1.170,0.815
0.989000,721360,1000.00,12,0,1,1366.272,3.424,2.824,1017.420,-1.098,0.827
0.990000,721361,1000.00,12,0,1,1367.857,3.565,2.861,1018.092,-0.520,0.829
0.991000,721362,1000.00,12,0,1,1368.290,2.433,2.831,1018.669,0.282,0.819
0.992000,721363,1000.00,12,0,1,1365.071,-1.603,2.832,1018.260,-0.175,0.815
0.993000,721364,1000.00,12,0,1,1364.398,-4.224,2.881,1016.651,-1.396,0.809
0.994000,721365,1000.00,12,0,1,1370.668,0.461,2.882,1019.293,0.293,0.790
0.995000,721366,1000.00,12,0,1,1370.283,0.578,2.866,1019.653,1.737,0.826
0.996000,721367,1000.00,12,0,1,1372.926,0.247,2.849,1019.365,0.455,0.823
0.997000,721368,1000.00,12,0,1,1374.895,2.902,2.829,1019.581,0.995,0.817
0.998000,721369,1000.00,12,0,1,1375.111,1.708,2.810,1019.822,0.829,0.824
0.999000,721370,1000.00,12,0,1,1371.989,-0.307,2.809,1019.461,0.609,0.827
1.000000,721371,1000.00,12,0,1,1370.836,-1.826,2.802,1019.990,0.761,0.828
1.001000,721372,1000.00,12,0,1,1369.611,-1.212,2.806,1020.590,1.345,0.850
1.002000,721373,1000.00,12,0,1,1369.250,-0.859,2.734,1022.176,2.360,0.911
1.003000,721374,1000.00,12,0,1,1366.248,-1.636,2.743,1019.365,0.304,0.903
1.004000,721375,1000.00,12,0,1,1361.107,-5.031,2.656,1018.068,-1.879,0.932
1.005000,721376,1000.00,12,0,1,1362.477,-3.201,2.594,1018.693,-0.696,0.937
1.006000,721377,1000.00,12,0,1,1365.335,1.515,2.591,1019.461,-0.050,0.927
1.007000,721378,1000.00,12,0,1,1364.470,0.927,2.589,1019.437,0.105,0.912
1.008000,721379,1000.00,12,0,1,1361.852,-1.286,2.581,1018.813,-0.506,0.909
1.009000,721380,1000.00,12,0,1,1364.494,-0.161,2.491,1018.693,-0.765,0.911
1.010000,721381,1000.00,12,0,1,1367.233,2.578,2.303,1020.734,0.935,0.920
1.011000,721382,1000.00,12,0,1,1371.652,4.251,2.372,1019.341,0.159,0.918
1.012000,721383,1000.00,12,0,1,1369.370,2.083,2.386,1018.020,-1.745,0.950
1.013000,721384,1000.00,12,0,1,1368.674,-1.862,2.399,1018.380,-1.139,0.940
1.014000,721385,1000.00,12,0,1,1370.427,-0.518,2.400,1018.020,-1.206,0.939
1.015000,721386,1000.00,12,0,1,1378.859,4.603,2.469,1017.948,-1.311,0.956
1.016000,721387,1000.00,12,0,1,1373.238,1.421,2.477,1020.326,0.817,0.959
1.017000,721388,1000.00,12,0,1,1367.521,-7.160,2.653,1020.062,1.086,0.967
1.018000,721389,1000.00,12,0,1,1370.571,-3.120,2.628,1020.302,0.554,0.970
1.019000,721390,1000.00,12,0,1,1371.412,-0.881,2.613,1018.669,-0.286,0.970
1.020000,721391,1000.00,12,0,1,1372.613,0.305,2.607,1018.645,-1.018,0.965
1.021000,721392,1000.00,12,0,1,1371.196,1.126,2.572,1019.774,0.588,0.968
1.022000,721393,1000.00,12,0,1,1370.355,0.140,2.558,1021.095,1.550,0.989
1.023000,721394,1000.00,12,0,1,1360.291,-5.295,2.659,1019.389,0.423,0.989
1.024000,721395,1000.00,12,0,1,1360.747,-6.658,2.821,1016.026,-2.785,1.064
1.025000,721396,1000.00,12,0,1,1363.293,0.421,2.809,1017.011,-2.098,1.095
1.026000,721397,1000.00,12,0,1,1365.791,1.770,2.816,1020.374,1.642,1.117
1.027000,721398,1000.00,12,0,1,1364.302,2.372,2.829,1019.437,1.153,1.098
1.028000,721399,1000.00,12,0,1,1364.470,0.764,2.831,1018.789,-0.111,1.096
1.029000,721400,1000.00,12,0,1,1360.915,-1.421,2.825,1017.372,-0.905,1.103
1.030000,721401,1000.00,12,0,1,1364.182,-0.976,2.689,1018.549,-0.492,1.103
1.031000,721402,1000.00,12,0,1,1367.040,2.366,2.696,1018.597,0.383,1.103
1.032000,721403,1000.00,12,0,1,1368.938,1.926,2.670,1015.906,-2.198,1.138
1.033000,721404,1000.00,12,0,1,1366.752,-0.577,2.591,1015.642,-2.571,1.188
1.034000,721405,1000.00,12,0,1,1366.584,-2.625,2.612,1018.693,0.513,1.189
1.035000,721406,1000.00,12,0,1,1363.485,-4.879,2.700,1019.029,1.339,1.200
1.036000,721407,1000.00,12,0,1,1363.630,-5.595,2.812,1019.461,1.086,1.187
1.037000,721408,1000.00,12,0,1,1369.539,0.266,2.801,1018.380,0.489,1.184
1.038000,721409,1000.00,12,0,1,1371.628,3.532,2.827,1019.149,0.421,1.174
1.039000,721410,1000.00,12,0,1,1373.574,4.251,2.849,1019.293,1.125,1.175
1.040000,721411,1000.00,12,0,1,1372.373,4.656,2.881,1019.822,1.008,1.181
1.041000,721412,1000.00,12,0,1,1369.851,1.708,2.870,1020.302,1.613,1.202
1.042000,721413,1000.00,12,0,1,1368.602,1.836,2.873,1018.140,-0.242,1.202
1.043000,721414,1000.00,12,0,1,1362.765,-2.026,2.825,1017.348,-1.430,1.203
1.044000,721415,1000.00,12,0,1,1359.426,-4.486,2.895,1019.990,1.173,1.214
1.045000,721416,1000.00,12,0,1,1363.461,0.438,2.894,1018.188,0.302,1.189
1.046000,721417,1000.00,12,0,1,1363.870,2.673,2.918,1017.227,-1.389,1.204
1.047000,721418,1000.00,12,0,1,1361.516,0.157,2.889,1016.411,-1.279,1.209
1.048000,721419,1000.00,12,0,1,1364.014,1.810,2.891,1018.260,-0.166,1.204
1.049000,721420,1000.00,12,0,1,1364.831,2.761,2.917,1019.629,1.806,1.227
1.050000,721421,1000.00,12,0,1,1364.398,0.742,2.907,1018.861,0.734,1.227
1.051000,721422,1000.00,12,0,1,1365.383,0.586,2.903,1017.372,-0.734,1.217
1.052000,721423,1000.00,12,0,1,1362.164,-2.869,2.929,1018.765,0.085,1.170
1.053000,721424,1000.00,12,0,1,1359.498,-6.673,3.068,1019.533,1.134,1.180
1.054000,721425,1000.00,12,0,1,1366.512,-1.402,2.991,1018.813,0.179,1.150
1.055000,721426,1000.00,12,0,1,1369.370,2.327,2.975,1019.798,0.576,1.149
1.056000,721427,1000.00,12,0,1,1371.316,1.948,2.980,1018.188,-0.274,1.150
1.057000,721428,1000.00,12,0,1,1373.646,4.128,3.034,1016.146,-2.719,1.212
1.058000,721429,1000.00,12,0,1,1368.073,-0.703,3.030,1016.531,-1.915,1.240
1.059000,721430,1000.00,12,0,1,1365.911,-3.662,3.074,1018.741,0.179,1.235
1.060000,721431,1000.00,12,0,1,1369.274,0.931,3.055,1020.110,1.836,1.255
1.061000,721432,1000.00,12,0,1,1368.097,1.409,3.002,1016.699,-0.907,1.262
1.062000,721433,1000.00,12,0,1,1366.152,0.127,2.988,1019.053,-0.055,1.237
1.063000,721434,1000.00,12,0,1,1365.407,0.727,2.978,1018.669,1.387,1.242
1.064000,721435,1000.00,12,0,1,1361.948,-0.947,2.980,1019.653,0.651,1.234
1.065000,721436,1000.00,12,0,1,1358.393,-3.363,2.947,1018.861,1.248,1.233
1.066000,721437,1000.00,12,0,1,1358.753,-2.102,2.955,1019.774,0.681,1.231
1.067000,721438,1000.00,12,0,1,1359.594,-0.212,2.776,1018.933,0.924,1.229
1.068000,721439,1000.00,12,0,1,1358.801,-0.655,2.742,1016.699,-1.729,1.250
1.069000,721440,1000.00,12,0,1,1358.081,-1.531,2.748,1017.251,-1.269,1.262
1.070000,721441,1000.00,12,0,1,1359.714,-0.660,2.749,1016.795,-0.909,1.261
1.071000,721442,1000.00,12,0,1,1364.927,2.999,2.777,1018.212,-0.363,1.259
1.072000,721443,1000.00,12,0,1,1372.493,8.230,3.011,1019.221,1.390,1.255
1.073000,721444,1000.00,12,0,1,1374.991,8.876,3.175,1019.509,0.840,1.259
1.074000,721445,1000.00,12,0,1,1376.168,6.594,3.172,1020.014,1.405,1.213
1.075000,721446,1000.00,12,0,1,1377.922,6.095,3.287,1018.693,-0.045,1.176
1.076000,721447,1000.00,12,0,1,1372.709,0.374,3.278,1019.125,-0.161,1.153
1.077000,721448,1000.00,12,0,1,1368.986,-4.926,3.334,1018.861,0.023,1.141
1.078000,721449,1000.00,12,0,1,1370.932,-2.672,3.354,1018.260,-0.879,1.148
1.079000,721450,1000.00,12,0,1,1368.266,-3.442,3.383,1017.900,-0.897,1.148
1.080000,721451,1000.00,12,0,1,1367.881,-3.784,3.422,1017.227,-1.386,1.162
1.081000,721452,1000.00,12,0,1,1367.257,-1.830,3.416,1017.636,-0.887,1.168
1.082000,721453,1000.00,12,0,1,1365.023,-2.806,3.428,1018.693,0.357,1.127
1.083000,721454,1000.00,12,0,1,1369.106,1.669,3.435,1019.894,1.422,1.085
1.084000,721455,1000.00,12,0,1,1369.923,4.588,3.476,1017.420,-0.277,1.084
1.085000,721456,1000.00,12,0,1,1363.317,-1.105,3.410,1017.107,-1.386,1.085
1.086000,721457,1000.00,12,0,1,1362.765,-2.203,3.332,1019.029,0.979,1.083
1.087000,721458,1000.00,12,0,1,1364.182,0.375,3.332,1019.437,1.331,1.097
1.088000,721459,1000.00,12,0,1,1364.975,0.507,3.295,1020.302,1.694,1.121
1.089000,721460,1000.00,12,0,1,1365.287,0.475,3.241,1020.398,1.783,1.138
1.090000,721461,1000.00,12,0,1,1365.263,-0.648,3.174,1019.750,0.663,1.133
1.091000,721462,1000.00,12,0,1,1366.392,-0.811,3.167,1018.861,-0.215,1.110
1.092000,721463,1000.00,12,0,1,1371.797,2.356,3.174,1017.900,-1.275,1.124
1.093000,721464,1000.00,12,0,1,1372.085,2.213,3.177,1016.579,-2.219,1.150
1.094000,721465,1000.00,12,0,1,1371.172,-1.087,3.116,1017.251,-1.754,1.164
1.095000,721466,1000.00,12,0,1,1375.183,1.269,3.121,1017.996,-0.481,1.166
1.096000,721467,1000.00,12,0,1,1376.961,2.628,3.120,1019.942,0.908,1.156
1.097000,721468,1000.00,12,0,1,1373.886,-0.908,3.123,1019.629,1.167,1.154
1.098000,721469,1000.00,12,0,1,1369.515,-4.749,3.184,1021.143,1.476,1.172
1.099000,721470,1000.00,12,0,1,1367.473,-5.952,3.270,1020.230,1.390,1.161
1.100000,721471,1000.00,12,0,1,1367.016,-4.445,3.328,1019.245,-0.481,1.158
1.101000,721472,1000.00,12,0,1,1371.340,0.400,3.328,1019.101,-0.246,1.154
1.102000,721473,1000.00,12,0,1,1377.153,7.315,3.461,1018.476,-0.804,1.160
1.103000,721474,1000.00,12,0,1,1371.292,3.689,3.371,1018.885,-0.503,1.151
1.104000,721475,1000.00,12,0,1,1364.062,-3.695,3.405,1018.549,-0.293,1.151
1.105000,721476,1000.00,12,0,1,1365.503,-1.583,3.397,1019.125,-0.183,1.148
1.106000,721477,1000.00,12,0,1,1365.119,-0.136,3.385,1019.365,0.578,1.151
1.107000,721478,1000.00,12,0,1,1363.798,-1.624,3.343,1017.492,-1.195,1.098
1.108000,721479,1000.00,12,0,1,1366.608,0.765,3.343,1018.789,-0.398,1.065
1.109000,721480,1000.00,12,0,1,1369.130,2.766,3.326,1018.693,0.304,1.066
1.110000,721481,1000.00,12,0,1,1373.454,4.759,3.390,1017.684,-1.064,1.045
1.111000,721482,1000.00,12,0,1,1375.688,5.608,3.476,1019.293,0.332,1.038
1.112000,721483,1000.00,12,0,1,1373.382,1.329,3.481,1019.750,1.061,1.048
1.113000,721484,1000.00,12,0,1,1379.579,3.521,3.515,1019.846,0.615,1.034
1.114000,721485,1000.00,12,0,1,1383.158,6.585,3.634,1018.380,-0.410,1.031
1.115000,721486,1000.00,12,0,1,1380.180,1.254,3.607,1020.542,0.519,1.019
1.116000,721487,1000.00,12,0,1,1375.640,-3.789,3.635,1019.365,0.661,1.018
1.117000,721488,1000.00,12,0,1,1375.856,-4.577,3.692,1017.900,-1.798,1.041
1.118000,721489,1000.00,12,0,1,1377.874,-1.691,3.698,1018.885,-0.419,1.014
1.119000,721490,1000.00,12,0,1,1378.354,-0.625,3.693,1019.726,0.406,1.000
1.120000,721491,1000.00,12,0,1,1372.685,-4.099,3.737,1020.734,1.180,1.005
1.121000,721492,1000.00,12,0,1,1373.838,-3.365,3.743,1019.702,0.574,1.007
1.122000,721493,1000.00,12,0,1,1372.613,-1.013,3.561,1019.029,-0.618,0.992
1.123000,721494,1000.00,12,0,1,1366.368,-5.764,3.430,1018.020,-0.910,0.993
1.124000,721495,1000.00,12,0,1,1367.761,-3.725,3.343,1020.782,0.776,0.979
1.125000,721496,1000.00,12,0,1,1365.551,-2.421,3.248,1020.470,1.750,1.010
1.126000,721497,1000.00,12,0,1,1368.458,-1.100,3.251,1018.212,-1.223,1.024
1.127000,721498,1000.00,12,0,1,1372.589,4.674,3.244,1018.621,-0.713,1.029
1.128000,721499,1000.00,12,0,1,1373.718,4.106,3.274,1017.948,-0.852,1.029
1.129000,721500,1000.00,12,0,1,1369.851,0.454,3.238,1016.723,-2.049,1.061
1.130000,721501,1000.00,12,0,1,1370.932,-1.350,3.199,1019.774,0.524,1.046
1.131000,721502,1000.00,12,0,1,1375.328,2.286,3.205,1019.966,1.512,1.060
1.132000,721503,1000.00,12,0,1,1376.240,1.728,3.190,1020.182,0.716,1.064
1.133000,721504,1000.00,12,0,1,1373.142,-2.422,3.199,1019.990,0.861,1.051
1.134000,721505,1000.00,12,0,1,1370.163,-6.069,3.248,1016.675,-2.167,1.094
1.135000,721506,1000.00,12,0,1,1374.079,-3.541,3.283,1017.852,-1.853,1.108
1.136000,721507,1000.00,12,0,1,1377.081,0.494,3.269,1019.942,1.046,1.109
1.137000,721508,1000.00,12,0,1,1381.621,3.218,3.300,1019.221,0.160,1.094
1.138000,721509,1000.00,12,0,1,1384.648,6.806,3.437,1018.573,-0.473,1.069
1.139000,721510,1000.00,12,0,1,1384.552,5.752,3.531,1018.837,-0.272,1.040
1.140000,721511,1000.00,12,0,1,1385.993,6.626,3.652,1019.197,0.231,1.036
1.141000,721512,1000.00,12,0,1,1387.194,7.650,3.807,1019.581,0.554,1.038
1.142000,721513,1000.00,12,0,1,1377.297,-0.040,3.793,1018.332,-0.287,1.023
1.143000,721514,1000.00,12,0,1,1365.239,-11.075,4.091,1016.459,-1.977,1.014
1.144000,721515,1000.00,12,0,1,1357.841,-15.197,4.619,1016.747,-1.579,1.008
1.145000,721516,1000.00,12,0,1,1360.123,-11.054,4.873,1018.068,0.113,1.006
1.146000,721517,1000.00,12,0,1,1367.353,-1.620,4.864,1016.291,-0.903,1.005
1.147000,721518,1000.00,12,0,1,1367.809,0.700,4.863,1015.810,-1.677,1.020
1.148000,721519,1000.00,12,0,1,1363.654,-3.396,4.841,1016.915,-0.098,0.998
1.149000,721520,1000.00,12,0,1,1365.911,-2.128,4.777,1016.963,0.167,0.979
1.150000,721521,1000.00,12,0,1,1370.836,2.288,4.746,1016.122,-0.503,0.979
1.151000,721522,1000.00,12,0,1,1373.238,3.409,4.770,1016.002,-0.613,0.982
1.152000,721523,1000.00,12,0,1,1376.697,4.319,4.696,1017.900,0.997,0.986
1.153000,721524,1000.00,12,0,1,1377.201,3.712,4.697,1018.260,1.690,1.012
1.154000,721525,1000.00,12,0,1,1378.330,2.096,4.677,1018.621,1.331,1.029
1.155000,721526,1000.00,12,0,1,1376.288,0.099,4.672,1017.828,0.867,1.036
1.156000,721527,1000.00,12,0,1,1377.682,-0.737,4.673,1019.197,1.201,1.046
1.157000,721528,1000.00,12,0,1,1377.537,0.402,4.668,1019.341,1.882,1.066
1.158000,721529,1000.00,12,0,1,1381.093,2.234,4.677,1020.542,1.922,1.099
1.159000,721530,1000.00,12,0,1,1384.023,6.325,4.746,1019.798,1.747,1.125
1.160000,721531,1000.00,12,0,1,1379.771,2.799,4.714,1018.813,0.028,1.115
1.161000,721532,1000.00,12,0,1,1373.958,-2.179,4.657,1017.179,-1.011,1.124
1.162000,721533,1000.00,12,0,1,1374.607,-0.774,4.655,1018.236,-0.539,1.116
1.163000,721534,1000.00,12,0,1,1375.400,1.902,4.636,1016.723,-0.804,1.118
1.164000,721535,1000.00,12,0,1,1376.481,3.329,4.566,1016.483,-1.644,1.141
1.165000,721536,1000.00,12,0,1,1375.039,2.927,4.581,1015.834,-1.218,1.152
1.166000,721537,1000.00,12,0,1,1370.692,-0.974,4.552,1017.540,-0.141,1.148
1.167000,721538,1000.00,12,0,1,1365.960,-5.173,4.564,1018.933,1.786,1.147
1.168000,721539,1000.00,12,0,1,1365.551,-5.597,4.626,1015.402,-1.134,1.157
1.169000,721540,1000.00,12,0,1,1369.178,-2.266,4.637,1017.588,-0.540,1.158
1.170000,721541,1000.00,12,0,1,1374.655,2.094,4.610,1018.645,1.973,1.180
1.171000,721542,1000.00,12,0,1,1380.228,5.520,4.651,1019.389,1.151,1.188
1.172000,721543,1000.00,12,0,1,1379.651,3.701,4.678,1020.014,2.195,1.225
1.173000,721544,1000.00,12,0,1,1380.900,1.383,4.611,1017.348,-0.709,1.222
1.174000,721545,1000.00,12,0,1,1385.272,4.016,4.616,1017.660,-1.124,1.228
1.175000,721546,1000.00,12,0,1,1386.257,3.336,4.627,1016.435,-1.304,1.216
1.176000,721547,1000.00,12,0,1,1384.239,0.144,4.625,1016.531,-1.985,1.236
1.177000,721548,1000.00,12,0,1,1383.903,-1.155,4.580,1018.308,0.358,1.233
1.178000,721549,1000.00,12,0,1,1383.423,-1.160,4.546,1017.468,-0.243,1.228
1.179000,721550,1000.00,12,0,1,1377.321,-5.327,4.608,1017.083,-0.779,1.198
1.180000,721551,1000.00,12,0,1,1373.814,-7.923,4.738,1018.308,0.511,1.198
1.181000,721552,1000.00,12,0,1,1371.797,-6.592,4.818,1018.092,0.628,1.182
1.182000,721553,1000.00,12,0,1,1371.004,-5.391,4.872,1016.435,-0.823,1.184
1.183000,721554,1000.00,12,0,1,1371.676,-2.156,4.869,1019.125,1.057,1.187
1.184000,721555,1000.00,12,0,1,1371.196,-0.705,4.794,1019.774,2.608,1.204
1.185000,721556,1000.00,12,0,1,1372.085,0.951,4.770,1016.387,-0.895,1.182
1.186000,721557,1000.00,12,0,1,1375.159,4.258,4.807,1018.212,0.008,1.173
1.187000,721558,1000.00,12,0,1,1378.402,6.702,4.879,1017.732,0.795,1.178
1.188000,721559,1000.00,12,0,1,1374.367,2.890,4.800,1018.501,0.208,1.177
1.189000,721560,1000.00,12,0,1,1371.052,-2.577,4.745,1018.693,1.235,1.189
1.190000,721561,1000.00,12,0,1,1372.757,-1.734,4.658,1016.987,-0.920,1.196
1.191000,721562,1000.00,12,0,1,1374.607,-0.979,4.532,1018.933,0.390,1.194
1.192000,721563,1000.00,12,0,1,1376.769,-0.424,4.533,1019.341,1.327,1.208
1.193000,721564,1000.00,12,0,1,1380.948,1.869,4.262,1017.732,-0.765,1.180
1.194000,721565,1000.00,12,0,1,1383.927,3.348,3.711,1015.210,-2.691,1.220
1.195000,721566,1000.00,12,0,1,1382.246,0.820,3.367,1015.594,-2.767,1.281
1.196000,721567,1000.00,12,0,1,1382.942,-0.284,3.360,1017.852,0.013,1.275
1.197000,721568,1000.00,12,0,1,1383.326,0.651,3.359,1017.876,0.275,1.253
1.198000,721569,1000.00,12,0,1,1382.942,-0.026,3.325,1019.702,1.368,1.268
1.199000,721570,1000.00,12,0,1,1385.464,2.649,3.332,1019.173,1.545,1.286
1.200000,721571,1000.00,12,0,1,1384.023,2.779,3.340,1018.549,0.098,1.284
1.201000,721572,1000.00,12,0,1,1380.684,-0.017,3.305,1017.299,-0.433,1.283
1.202000,721573,1000.00,12,0,1,1381.957,1.885,3.259,1018.356,-0.137,1.275
1.203000,721574,1000.00,12,0,1,1382.125,3.549,3.255,1018.885,1.113,1.263
1.204000,721575,1000.00,12,0,1,1371.652,-4.121,3.294,1017.972,-0.017,1.249
1.205000,721576,1000.00,12,0,1,1371.172,-6.004,3.401,1016.987,-0.782,1.247
1.206000,721577,1000.00,12,0,1,1375.616,0.918,3.402,1017.059,-0.703,1.240
1.207000,721578,1000.00,12,0,1,1378.090,2.549,3.421,1019.605,1.413,1.227
1.208000,721579,1000.00,12,0,1,1377.562,2.019,3.418,1021.239,3.154,1.277
1.209000,721580,1000.00,12,0,1,1377.441,0.116,3.299,1019.702,1.305,1.267
1.210000,721581,1000.00,12,0,1,1376.120,-1.823,3.285,1017.900,-0.753,1.271
1.211000,721582,1000.00,12,0,1,1377.754,-2.296,3.287,1015.642,-2.677,1.318
1.212000,721583,1000.00,12,0,1,1383.975,1.885,3.296,1018.452,-0.764,1.321
1.213000,721584,1000.00,12,0,1,1385.368,2.510,3.304,1018.428,0.522,1.318
1.214000,721585,1000.00,12,0,1,1383.471,-1.529,3.277,1018.957,-0.216,1.297
1.215000,721586,1000.00,12,0,1,1384.095,-1.944,3.263,1017.612,-0.451,1.288
1.216000,721587,1000.00,12,0,1,1382.726,-3.162,3.290,1017.444,-1.519,1.305
1.217000,721588,1000.00,12,0,1,1386.113,-0.977,3.211,1018.693,0.179,1.281
1.218000,721589,1000.00,12,0,1,1383.783,-0.803,3.114,1016.098,-1.669,1.292
1.219000,721590,1000.00,12,0,1,1381.933,-3.205,3.130,1016.171,-2.300,1.331
1.220000,721591,1000.00,12,0,1,1384.095,0.658,3.118,1016.459,-0.756,1.305
1.221000,721592,1000.00,12,0,1,1384.047,2.077,3.033,1017.900,-0.037,1.295
1.222000,721593,1000.00,12,0,1,1382.270,1.430,2.994,1017.083,0.390,1.259
1.223000,721594,1000.00,12,0,1,1381.020,1.379,2.994,1016.531,-0.859,1.261
1.224000,721595,1000.00,12,0,1,1379.916,1.179,2.944,1016.651,-0.038,1.250
1.225000,721596,1000.00,12,0,1,1376.120,-1.010,2.910,1019.101,1.656,1.259
1.226000,721597,1000.00,12,0,1,1376.889,-0.975,2.913,1019.173,2.399,1.273
1.227000,721598,1000.00,12,0,1,1376.553,0.205,2.909,1017.876,0.511,1.274
1.228000,721599,1000.00,12,0,1,1375.976,-1.573,2.913,1017.948,0.417,1.275
1.229000,721600,1000.00,12,0,1,1369.419,-6.351,2.953,1020.446,2.324,1.312
1.230000,721601,1000.00,12,0,1,1369.250,-8.771,3.001,1018.693,1.199,1.321
1.231000,721602,1000.00,12,0,1,1372.709,-4.223,2.914,1019.461,0.505,1.320
1.232000,721603,1000.00,12,0,1,1374.559,-3.315,2.852,1019.557,1.292,1.327
1.233000,721604,1000.00,12,0,1,1376.553,-2.033,2.850,1018.573,-0.321,1.320
1.234000,721605,1000.00,12,0,1,1382.462,2.123,2.864,1018.813,-0.196,1.268
1.235000,721606,1000.00,12,0,1,1386.545,5.389,2.960,1019.413,0.355,1.262
1.236000,721607,1000.00,12,0,1,1388.851,6.010,3.021,1017.540,-1.176,1.273
1.237000,721608,1000.00,12,0,1,1386.545,3.511,2.911,1018.332,-0.978,1.276
1.238000,721609,1000.00,12,0,1,1381.525,-1.421,2.889,1019.341,0.496,1.277
1.239000,721610,1000.00,12,0,1,1374.151,-6.844,3.025,1018.621,-0.200,1.266
1.240000,721611,1000.00,12,0,1,1377.273,-3.720,3.060,1020.014,0.591,1.262
1.241000,721612,1000.00,12,0,1,1379.940,2.458,3.077,1018.501,0.063,1.260
1.242000,721613,1000.00,12,0,1,1377.513,1.280,3.082,1018.909,-0.695,1.250
1.243000,721614,1000.00,12,0,1,1379.819,3.872,3.119,1017.876,-0.421,1.247
1.244000,721615,1000.00,12,0,1,1379.531,5.618,3.183,1019.053,-0.468,1.189
1.245000,721616,1000.00,12,0,1,1378.426,3.801,3.226,1019.629,1.081,1.133
1.246000,721617,1000.00,12,0,1,1379.675,5.191,3.309,1017.852,-0.952,1.141
1.247000,721618,1000.00,12,0,1,1372.013,-1.117,3.311,1016.819,-1.850,1.170
1.248000,721619,1000.00,12,0,1,1365.839,-8.211,3.509,1019.581,0.440,1.156
1.249000,721620,1000.00,12,0,1,1365.719,-7.569,3.649,1019.678,1.232,1.148
1.250000,721621,1000.00,12,0,1,1374.079,-0.898,3.630,1017.732,-0.995,1.157
1.251000,721622,1000.00,12,0,1,1382.438,6.804,3.756,1017.131,-1.623,1.178
1.252000,721623,1000.00,12,0,1,1383.254,5.710,3.832,1019.101,0.168,1.178
1.253000,721624,1000.00,12,0,1,1373.526,-4.276,3.847,1018.957,0.487,1.169
1.254000,721625,1000.00,12,0,1,1372.733,-8.064,3.970,1018.380,-0.430,1.171
1.255000,721626,1000.00,12,0,1,1376.312,-3.232,3.905,1017.540,-0.953,1.174
1.256000,721627,1000.00,12,0,1,1378.763,-1.365,3.907,1019.293,0.242,1.170
1.257000,721628,1000.00,12,0,1,1380.012,0.371,3.891,1019.509,1.067,1.162
1.258000,721629,1000.00,12,0,1,1382.990,2.932,3.903,1019.029,0.134,1.074
1.259000,721630,1000.00,12,0,1,1385.368,5.709,3.985,1017.636,-0.797,1.064
1.260000,721631,1000.00,12,0,1,1383.014,4.336,4.024,1018.356,-0.541,1.061
1.261000,721632,1000.00,12,0,1,1374.319,-2.570,4.027,1016.987,-0.876,0.999
1.262000,721633,1000.00,12,0,1,1372.565,-3.869,4.056,1017.852,-0.776,0.999
1.263000,721634,1000.00,12,0,1,1372.301,-1.045,4.043,1019.461,1.394,1.016
1.264000,721635,1000.00,12,0,1,1372.998,0.453,4.037,1018.380,0.444,1.017
1.265000,721636,1000.00,12,0,1,1373.358,2.387,4.042,1017.852,-0.422,1.017
1.266000,721637,1000.00,12,0,1,1376.817,5.070,4.081,1016.699,-0.912,1.002
1.267000,721638,1000.00,12,0,1,1377.417,6.095,4.169,1017.348,-0.834,1.009
1.268000,721639,1000.00,12,0,1,1376.120,3.284,4.193,1018.140,0.600,0.985
1.269000,721640,1000.00,12,0,1,1373.334,-0.109,4.168,1018.140,0.259,0.930
1.270000,721641,1000.00,12,0,1,1373.046,-2.066,4.177,1017.924,0.224,0.924
1.271000,721642,1000.00,12,0,1,1374.847,-1.337,4.171,1018.236,0.230,0.925
1.272000,721643,1000.00,12,0,1,1380.444,1.975,4.176,1017.732,0.003,0.923
1.273000,721644,1000.00,12,0,1,1380.252,1.434,4.176,1016.819,-0.966,0.925
1.274000,721645,1000.00,12,0,1,1378.402,-2.555,4.189,1019.461,1.018,0.937
1.275000,721646,1000.00,12,0,1,1378.138,-3.298,4.212,1021.815,3.514,1.034
1.276000,721647,1000.00,12,0,1,1380.132,-1.997,4.219,1019.509,1.201,0.992
1.277000,721648,1000.00,12,0,1,1385.873,2.848,4.238,1018.116,-0.830,0.996
1.278000,721649,1000.00,12,0,1,1390.220,7.149,4.352,1017.588,-0.956,1.003
1.279000,721650,1000.00,12,0,1,1385.584,3.170,4.281,1018.164,-0.604,0.952
1.280000,721651,1000.00,12,0,1,1379.171,-2.923,4.119,1017.468,-0.615,0.941
1.281000,721652,1000.00,12,0,1,1374.631,-5.551,4.150,1018.188,-0.387,0.939
1.282000,721653,1000.00,12,0,1,1373.142,-5.123,4.187,1015.690,-1.531,0.947
1.283000,721654,1000.00,12,0,1,1375.159,-1.350,4.181,1016.219,-1.958,0.985
1.284000,721655,1000.00,12,0,1,1375.688,1.216,4.174,1018.861,1.394,1.004
1.285000,721656,1000.00,12,0,1,1377.057,2.654,4.121,1018.020,0.808,1.010
1.286000,721657,1000.00,12,0,1,1374.679,1.816,4.040,1016.963,-0.576,0.999
1.287000,721658,1000.00,12,0,1,1373.094,-0.755,4.011,1019.774,1.716,1.019
1.288000,721659,1000.00,12,0,1,1373.694,0.013,4.006,1017.732,0.684,1.021
1.289000,721660,1000.00,12,0,1,1373.982,-0.483,3.888,1017.251,-1.020,1.031
1.290000,721661,1000.00,12,0,1,1376.144,0.256,3.852,1018.476,0.692,1.032
1.291000,721662,1000.00,12,0,1,1378.090,1.070,3.840,1017.275,-0.390,1.033
1.292000,721663,1000.00,12,0,1,1381.117,1.731,3.843,1016.267,-1.555,1.052
1.293000,721664,1000.00,12,0,1,1384.888,3.675,3.839,1018.452,0.373,1.052
1.294000,721665,1000.00,12,0,1,1382.342,0.294,3.756,1017.732,0.360,1.051
1.295000,721666,1000.00,12,0,1,1382.894,-1.687,3.725,1017.924,-0.201,1.040
1.296000,721667,1000.00,12,0,1,1385.344,0.693,3.654,1018.549,0.790,1.037
1.297000,721668,1000.00,12,0,1,1386.954,1.418,3.656,1018.428,0.487,1.006
1.298000,721669,1000.00,12,0,1,1381.933,-2.009,3.478,1019.293,1.036,1.015
1.299000,721670,1000.00,12,0,1,1380.324,-4.202,3.362,1020.062,1.804,1.032
1.300000,721671,1000.00,12,0,1,1381.189,-1.117,3.363,1018.212,0.099,1.022
1.301000,721672,1000.00,12,0,1,1377.537,-2.609,3.244,1017.492,-0.939,1.005
1.302000,721673,1000.00,12,0,1,1375.736,-3.228,3.175,1019.485,0.854,1.012
1.303000,721674,1000.00,12,0,1,1375.328,-1.190,3.121,1019.269,1.144,1.022
1.304000,721675,1000.00,12,0,1,1378.931,2.490,2.927,1019.101,0.301,1.022
1.305000,721676,1000.00,12,0,1,1376.937,3.121,2.924,1019.846,1.116,1.025
1.306000,721677,1000.00,12,0,1,1374.679,-0.233,2.918,1018.476,-0.128,1.024
1.307000,721678,1000.00,12,0,1,1372.685,-0.909,2.920,1017.852,-1.084,1.025
1.308000,721679,1000.00,12,0,1,1371.100,-3.088,2.924,1017.612,-0.981,1.034
1.309000,721680,1000.00,12,0,1,1373.262,-1.473,2.818,1019.894,0.589,1.031
1.310000,721681,1000.00,12,0,1,1372.781,-1.763,2.761,1018.861,0.512,1.031
1.311000,721682,1000.00,12,0,1,1375.880,-1.139,2.742,1017.540,-1.613,1.049
1.312000,721683,1000.00,12,0,1,1377.970,0.945,2.690,1017.732,-1.028,1.053
1.313000,721684,1000.00,12,0,1,1379.339,-0.063,2.686,1017.348,-1.271,1.050
1.314000,721685,1000.00,12,0,1,1379.219,-0.475,2.686,1017.275,-1.288,1.064
1.315000,721686,1000.00,12,0,1,1380.924,-0.630,2.667,1017.612,-0.713,1.067
1.316000,721687,1000.00,12,0,1,1382.654,1.127,2.573,1017.299,-0.841,1.065
1.317000,721688,1000.00,12,0,1,1383.134,1.100,2.430,1016.627,-1.212,1.073
1.318000,721689,1000.00,12,0,1,1382.101,0.542,2.386,1018.332,0.105,1.069
1.319000,721690,1000.00,12,0,1,1379.051,-1.407,2.394,1017.636,0.363,1.070
1.320000,721691,1000.00,12,0,1,1377.489,-2.036,2.394,1017.083,-0.782,1.075
1.321000,721692,1000.00,12,0,1,1375.280,-1.776,2.399,1019.413,1.522,1.096
1.322000,721693,1000.00,12,0,1,1374.847,-1.120,2.388,1016.939,0.047,1.096
1.323000,721694,1000.00,12,0,1,1374.655,0.983,2.384,1016.819,-1.179,1.100
1.324000,721695,1000.00,12,0,1,1377.057,3.521,2.408,1017.828,0.742,1.096
1.325000,721696,1000.00,12,0,1,1380.732,7.726,2.603,1017.299,0.001,0.977
1.326000,721697,1000.00,12,0,1,1373.550,2.196,2.606,1017.348,0.119,0.962
1.327000,721698,1000.00,12,0,1,1371.604,-2.120,2.592,1016.891,-0.118,0.955
1.328000,721699,1000.00,12,0,1,1376.529,3.016,2.425,1017.516,0.173,0.946
1.329000,721700,1000.00,12,0,1,1374.487,0.911,2.387,1017.588,0.632,0.946
1.330000,721701,1000.00,12,0,1,1372.133,-3.177,2.393,1017.516,0.185,0.942
1.331000,721702,1000.00,12,0,1,1369.274,-5.768,2.403,1016.171,-0.629,0.945
1.332000,721703,1000.00,12,0,1,1373.262,-4.205,2.368,1016.939,-0.527,0.923
1.333000,721704,1000.00,12,0,1,1377.033,0.112,2.360,1017.612,0.720,0.886
1.334000,721705,1000.00,12,0,1,1379.315,0.369,2.354,1018.092,0.705,0.870
1.335000,721706,1000.00,12,0,1,1378.522,-0.283,2.324,1018.933,1.481,0.887
1.336000,721707,1000.00,12,0,1,1379.627,-0.746,2.313,1016.459,-0.491,0.886
1.337000,721708,1000.00,12,0,1,1384.359,3.562,2.364,1016.891,-1.002,0.864
1.338000,721709,1000.00,12,0,1,1379.147,0.400,2.365,1017.299,0.356,0.860
1.339000,721710,1000.00,12,0,1,1372.133,-6.657,2.545,1016.603,-0.673,0.853
1.340000,721711,1000.00,12,0,1,1367.809,-7.867,2.777,1017.083,-0.022,0.848
1.341000,721712,1000.00,12,0,1,1366.632,-7.027,2.946,1018.789,1.402,0.869
1.342000,721713,1000.00,12,0,1,1368.362,-2.405,2.955,1019.581,2.224,0.897
1.343000,721714,1000.00,12,0,1,1371.676,2.439,2.929,1020.110,2.211,0.949
1.344000,721715,1000.00,12,0,1,1373.814,5.940,3.047,1018.621,0.895,0.956
1.345000,721716,1000.00,12,0,1,1378.162,9.431,3.318,1016.459,-1.429,0.977
1.346000,721717,1000.00,12,0,1,1377.249,9.114,3.558,1015.402,-2.269,1.022
1.347000,721718,1000.00,12,0,1,1374.247,4.385,3.606,1016.723,-0.972,1.029
1.348000,721719,1000.00,12,0,1,1367.881,-1.445,3.600,1018.140,0.692,1.023
1.349000,721720,1000.00,12,0,1,1366.176,-4.877,3.617,1015.858,-0.955,1.000
1.350000,721721,1000.00,12,0,1,1363.726,-5.964,3.711,1015.810,-1.706,1.028
1.351000,721722,1000.00,12,0,1,1364.566,-6.526,3.806,1018.260,1.034,1.030
1.352000,721723,1000.00,12,0,1,1366.392,-4.060,3.822,1019.245,1.858,1.056
1.353000,721724,1000.00,12,0,1,1370.043,-1.706,3.826,1017.948,0.593,1.047
1.354000,721725,1000.00,12,0,1,1372.829,0.847,3.812,1016.939,-0.755,1.052
1.355000,721726,1000.00,12,0,1,1374.487,1.538,3.792,1017.299,-0.421,1.042
1.356000,721727,1000.00,12,0,1,1373.118,0.175,3.792,1017.444,-0.133,1.042
1.357000,721728,1000.00,12,0,1,1373.646,0.087,3.790,1017.372,-0.268,1.031
1.358000,721729,1000.00,12,0,1,1371.244,-0.787,3.767,1017.203,-0.297,1.022
1.359000,721730,1000.00,12,0,1,1369.971,-1.750,3.769,1018.044,0.284,1.020
1.360000,721731,1000.00,12,0,1,1371.244,0.920,3.763,1017.492,0.205,1.018
1.361000,721732,1000.00,12,0,1,1370.764,2.152,3.772,1016.026,-1.298,1.009
1.362000,721733,1000.00,12,0,1,1366.560,-0.265,3.770,1018.717,0.793,1.004
1.363000,721734,1000.00,12,0,1,1367.040,0.742,3.771,1017.828,1.067,1.000
1.364000,721735,1000.00,12,0,1,1366.992,2.769,3.791,1017.588,-0.295,0.984
1.365000,721736,1000.00,12,0,1,1365.767,1.990,3.800,1017.348,0.300,0.980
1.366000,721737,1000.00,12,0,1,1370.860,6.083,3.893,1018.380,0.502,0.975
1.367000,721738,1000.00,12,0,1,1375.880,10.785,4.178,1017.323,0.314,0.961
1.368000,721739,1000.00,12,0,1,1368.866,3.831,4.213,1019.173,0.845,0.968
1.369000,721740,1000.00,12,0,1,1368.266,-0.332,4.208,1017.299,0.375,0.968
1.370000,721741,1000.00,12,0,1,1372.613,3.560,4.228,1017.708,-0.751,0.968
1.371000,721742,1000.00,12,0,1,1373.814,2.884,4.240,1017.107,-0.117,0.943
1.372000,721743,1000.00,12,0,1,1372.253,-0.069,4.238,1016.699,-1.248,0.960
1.373000,721744,1000.00,12,0,1,1369.995,-3.525,4.264,1015.858,-1.369,0.965
1.374000,721745,1000.00,12,0,1,1372.445,-2.793,4.254,1017.732,-0.155,0.959
1.375000,721746,1000.00,12,0,1,1374.079,-0.851,4.113,1018.669,1.277,0.976
1.376000,721747,1000.00,12,0,1,1374.607,-1.359,4.105,1018.308,0.624,0.980
1.377000,721748,1000.00,12,0,1,1376.264,0.316,4.095,1016.603,-0.897,0.988
1.378000,721749,1000.00,12,0,1,1376.601,0.811,4.074,1018.212,0.076,0.988
1.379000,721750,1000.00,12,0,1,1373.166,-1.440,4.077,1018.669,1.086,0.996
1.380000,721751,1000.00,12,0,1,1371.604,-2.596,4.069,1018.789,0.692,1.000
1.381000,721752,1000.00,12,0,1,1373.070,0.202,3.986,1017.948,0.128,0.996
1.382000,721753,1000.00,12,0,1,1373.886,2.215,3.954,1016.146,-1.516,1.016
1.383000,721754,1000.00,12,0,1,1370.980,0.787,3.956,1016.939,-1.052,1.022
1.384000,721755,1000.00,12,0,1,1367.617,-1.722,3.963,1019.269,1.513,1.040
1.385000,721756,1000.00,12,0,1,1368.626,-0.355,3.963,1018.549,0.996,1.028
1.386000,721757,1000.00,12,0,1,1369.394,1.441,3.967,1018.741,0.584,1.029
1.387000,721758,1000.00,12,0,1,1369.491,1.077,3.938,1019.173,1.127,1.032
1.388000,721759,1000.00,12,0,1,1370.115,1.317,3.942,1018.020,-0.023,1.030
1.389000,721760,1000.00,12,0,1,1370.620,0.847,3.830,1017.492,-0.791,1.032
1.390000,721761,1000.00,12,0,1,1368.314,-1.806,3.673,1018.861,0.416,1.034
1.391000,721762,1000.00,12,0,1,1371.148,-1.372,3.542,1019.653,1.199,1.029
1.392000,721763,1000.00,12,0,1,1376.937,3.361,3.557,1019.053,0.477,0.982
1.393000,721764,1000.00,12,0,1,1378.018,3.087,3.567,1017.732,-0.886,0.939
1.394000,721765,1000.00,12,0,1,1380.996,3.216,3.497,1018.476,-0.529,0.933
1.395000,721766,1000.00,12,0,1,1381.093,2.942,3.259,1020.470,1.353,0.931
1.396000,721767,1000.00,12,0,1,1376.721,-2.421,3.013,1020.302,1.240,0.891
1.397000,721768,1000.00,12,0,1,1378.715,-1.668,2.958,1018.693,-0.583,0.885
1.398000,721769,1000.00,12,0,1,1375.544,-2.423,2.970,1016.098,-2.724,0.960
1.399000,721770,1000.00,12,0,1,1371.652,-6.381,3.027,1016.339,-2.746,1.027
1.400000,721771,1000.00,12,0,1,1372.085,-3.988,2.961,1016.315,-1.723,1.027
1.401000,721772,1000.00,12,0,1,1374.223,-0.580,2.815,1018.020,-0.533,1.020
1.402000,721773,1000.00,12,0,1,1372.685,0.105,2.756,1019.077,1.203,1.000
1.403000,721774,1000.00,12,0,1,1375.015,2.107,2.761,1019.341,1.007,1.006
1.404000,721775,1000.00,12,0,1,1371.052,1.134,2.763,1018.789,0.649,1.005
1.405000,721776,1000.00,12,0,1,1364.470,-5.269,2.854,1019.509,0.811,1.010
1.406000,721777,1000.00,12,0,1,1366.536,-2.970,2.884,1017.540,-0.396,1.011
1.407000,721778,1000.00,12,0,1,1371.316,2.508,2.906,1017.972,-0.875,1.018
1.408000,721779,1000.00,12,0,1,1373.046,3.588,2.948,1017.732,-0.177,1.017
1.409000,721780,1000.00,12,0,1,1370.764,0.957,2.941,1019.197,0.379,1.018
1.410000,721781,1000.00,12,0,1,1368.290,-2.898,2.966,1019.389,1.226,1.032
1.411000,721782,1000.00,12,0,1,1368.530,-3.316,2.988,1017.299,-0.982,1.025
1.412000,721783,1000.00,12,0,1,1374.151,0.346,2.988,1016.579,-1.806,1.050
1.413000,721784,1000.00,12,0,1,1383.206,7.518,3.170,1017.948,-0.305,1.040
1.414000,721785,1000.00,12,0,1,1383.903,7.274,3.309,1019.942,1.439,1.059
1.415000,721786,1000.00,12,0,1,1376.769,-1.159,3.301,1018.260,0.460,1.060
1.416000,721787,1000.00,12,0,1,1372.757,-6.019,3.299,1017.636,-1.053,1.069
1.417000,721788,1000.00,12,0,1,1374.079,-4.288,2.987,1017.588,-0.370,1.069
1.418000,721789,1000.00,12,0,1,1373.670,-3.043,2.969,1018.116,-0.302,1.063
1.419000,721790,1000.00,12,0,1,1374.823,-1.534,2.977,1018.813,0.716,1.067
1.420000,721791,1000.00,12,0,1,1375.616,1.038,2.938,1018.452,0.292,1.062
1.421000,721792,1000.00,12,0,1,1374.847,1.169,2.914,1018.789,0.391,1.063
1.422000,721793,1000.00,12,0,1,1368.674,-2.397,2.933,1019.413,1.033,1.059
1.423000,721794,1000.00,12,0,1,1369.322,-2.158,2.907,1019.365,0.824,1.047
1.424000,721795,1000.00,12,0,1,1372.061,2.881,2.909,1017.540,-0.651,1.051
1.425000,721796,1000.00,12,0,1,1369.539,1.178,2.911,1016.723,-1.728,1.064
1.426000,721797,1000.00,12,0,1,1369.971,0.990,2.908,1017.564,-0.594,1.064
1.427000,721798,1000.00,12,0,1,1375.280,5.641,3.015,1018.621,0.448,1.058
1.428000,721799,1000.00,12,0,1,1379.843,8.675,3.253,1018.140,0.262,1.059
1.429000,721800,1000.00,12,0,1,1375.015,3.596,3.286,1019.221,0.703,1.052
1.430000,721801,1000.00,12,0,1,1367.209,-5.975,3.373,1019.629,1.431,1.067
1.431000,721802,1000.00,12,0,1,1362.957,-10.135,3.665,1019.125,0.514,1.069
1.432000,721803,1000.00,12,0,1,1367.209,-7.060,3.786,1017.251,-0.992,1.057
1.433000,721804,1000.00,12,0,1,1372.277,-1.305,3.788,1018.308,-0.647,1.050
1.434000,721805,1000.00,12,0,1,1375.424,0.690,3.782,1017.732,-0.260,1.029
1.435000,721806,1000.00,12,0,1,1373.454,-0.777,3.783,1018.308,-0.493,1.022
1.436000,721807,1000.00,12,0,1,1370.908,-3.884,3.817,1019.293,0.927,1.027
1.437000,721808,1000.00,12,0,1,1370.620,-3.413,3.845,1018.188,-0.136,1.014
1.438000,721809,1000.00,12,0,1,1370.259,-2.528,3.857,1019.702,0.604,1.018
1.439000,721810,1000.00,12,0,1,1372.517,0.159,3.855,1019.053,0.844,1.019
1.440000,721811,1000.00,12,0,1,1371.700,1.605,3.853,1016.387,-2.134,1.061
1.441000,721812,1000.00,12,0,1,1372.877,2.425,3.864,1017.612,-1.056,1.058
1.442000,721813,1000.00,12,0,1,1373.382,4.810,3.894,1017.708,-0.203,1.056
1.443000,721814,1000.00,12,0,1,1375.015,5.721,3.953,1017.372,-0.771,1.054
1.444000,721815,1000.00,12,0,1,1366.272,0.292,3.927,1017.299,-0.457,1.054
1.445000,721816,1000.00,12,0,1,1361.828,-5.652,3.986,1017.420,-0.373,1.038
1.446000,721817,1000.00,12,0,1,1367.161,0.812,3.973,1019.197,1.160,1.036
1.447000,721818,1000.00,12,0,1,1369.154,3.491,3.997,1019.245,1.530,1.055
1.448000,721819,1000.00,12,0,1,1365.815,-0.086,3.982,1019.101,0.779,0.988
1.449000,721820,1000.00,12,0,1,1369.803,1.711,3.886,1018.573,0.482,0.911
1.450000,721821,1000.00,12,0,1,1369.971,2.475,3.861,1018.813,0.208,0.878
1.451000,721822,1000.00,12,0,1,1369.827,-0.129,3.860,1018.741,0.396,0.877
1.452000,721823,1000.00,12,0,1,1368.770,-1.271,3.864,1018.092,-0.412,0.862
1.453000,721824,1000.00,12,0,1,1369.346,-2.310,3.866,1017.564,-0.826,0.859
1.454000,721825,1000.00,12,0,1,1371.893,-0.347,3.863,1017.251,-1.010,0.865
1.455000,721826,1000.00,12,0,1,1370.764,-1.190,3.794,1019.461,0.718,0.864
1.456000,721827,1000.00,12,0,1,1372.133,-1.204,3.775,1019.413,1.335,0.882
1.457000,721828,1000.00,12,0,1,1372.853,0.735,3.760,1018.525,-0.168,0.874
1.458000,721829,1000.00,12,0,1,1374.006,1.086,3.728,1015.354,-2.303,0.932
1.459000,721830,1000.00,12,0,1,1372.589,1.372,3.731,1017.348,-1.524,0.956
1.460000,721831,1000.00,12,0,1,1374.247,2.119,3.721,1016.627,-0.305,0.941
1.461000,721832,1000.00,12,0,1,1375.616,5.037,3.759,1019.149,0.415,0.932
1.462000,721833,1000.00,12,0,1,1373.766,3.396,3.789,1018.789,1.756,0.930
1.463000,721834,1000.00,12,0,1,1369.659,0.387,3.637,1016.843,-1.147,0.943
1.464000,721835,1000.00,12,0,1,1363.678,-4.148,3.538,1017.636,-0.221,0.922
1.465000,721836,1000.00,12,0,1,1363.846,-3.916,3.577,1019.533,1.562,0.945
1.466000,721837,1000.00,12,0,1,1363.341,-2.034,3.486,1019.053,1.168,0.948
1.467000,721838,1000.00,12,0,1,1365.335,-1.059,3.436,1017.876,-0.126,0.947
1.468000,721839,1000.00,12,0,1,1367.833,2.188,3.423,1016.507,-1.428,0.967
1.469000,721840,1000.00,12,0,1,1368.314,1.497,3.423,1017.972,-0.239,0.962
1.470000,721841,1000.00,12,0,1,1370.764,2.460,3.438,1018.068,0.387,0.963
1.471000,721842,1000.00,12,0,1,1367.281,-0.793,3.435,1018.140,0.080,0.962
1.472000,721843,1000.00,12,0,1,1369.226,-2.016,3.431,1017.348,-0.323,0.952
1.473000,721844,1000.00,12,0,1,1373.670,2.464,3.435,1019.053,0.653,0.949
1.474000,721845,1000.00,12,0,1,1376.072,2.868,3.434,1019.461,1.584,0.971
1.475000,721846,1000.00,12,0,1,1377.369,3.198,3.460,1018.693,0.370,0.941
1.476000,721847,1000.00,12,0,1,1382.990,6.192,3.566,1017.900,-0.331,0.938
1.477000,721848,1000.00,12,0,1,1376.240,1.612,3.484,1018.188,-0.223,0.937
1.478000,721849,1000.00,12,0,1,1370.740,-6.042,3.370,1019.317,0.789,0.943
1.479000,721850,1000.00,12,0,1,1370.139,-4.384,3.389,1018.404,0.278,0.938
1.480000,721851,1000.00,12,0,1,1368.578,-4.472,3.342,1018.164,-0.518,0.919
1.481000,721852,1000.00,12,0,1,1366.632,-4.455,3.085,1018.549,0.214,0.917
1.482000,721853,1000.00,12,0,1,1365.839,-3.301,2.956,1015.810,-1.982,0.948
1.483000,721854,1000.00,12,0,1,1364.518,-2.746,2.975,1016.291,-2.045,0.987
1.484000,721855,1000.00,12,0,1,1363.918,-1.760,2.984,1017.396,-0.106,0.987
1.485000,721856,1000.00,12,0,1,1365.743,0.587,2.983,1015.786,-1.406,1.004
1.486000,721857,1000.00,12,0,1,1367.233,2.930,2.961,1016.555,-0.972,1.005
1.487000,721858,1000.00,12,0,1,1370.547,4.871,3.002,1018.380,1.173,1.018
1.488000,721859,1000.00,12,0,1,1375.688,8.743,3.227,1017.756,0.672,1.019
1.489000,721860,1000.00,12,0,1,1370.836,3.769,3.270,1017.348,-0.030,1.012
1.490000,721861,1000.00,12,0,1,1366.008,-3.527,3.300,1016.627,-0.445,0.968
1.491000,721862,1000.00,12,0,1,1369.202,-1.639,3.291,1016.915,-0.432,0.958
1.492000,721863,1000.00,12,0,1,1376.288,3.730,3.263,1017.299,0.250,0.959
1.493000,721864,1000.00,12,0,1,1379.651,5.818,3.266,1017.444,0.263,0.953
1.494000,721865,1000.00,12,0,1,1377.129,1.923,3.277,1019.053,1.508,0.975
1.495000,721866,1000.00,12,0,1,1376.000,-0.995,3.181,1018.020,0.996,0.983
1.496000,721867,1000.00,12,0,1,1380.636,2.343,3.196,1017.492,-0.249,0.970
1.497000,721868,1000.00,12,0,1,1384.600,5.796,3.263,1017.396,0.116,0.946
1.498000,721869,1000.00,12,0,1,1379.579,1.503,3.270,1015.210,-1.731,0.971
1.499000,721870,1000.00,12,0,1,1367.881,-8.892,3.495,1015.498,-1.673,0.997
1.500000,721871,1000.00,12,0,1,1364.038,-11.781,3.856,1017.708,0.845,1.004
1.501000,721872,1000.00,12,0,1,1364.855,-7.595,4.003,1017.900,1.241,1.017
1.502000,721873,1000.00,12,0,1,1368.338,-2.651,4.016,1018.236,1.156,1.029
1.503000,721874,1000.00,12,0,1,1370.571,1.745,4.010,1017.732,0.865,1.029
1.504000,721875,1000.00,12,0,1,1366.920,-0.336,4.010,1016.195,-0.719,1.024
1.505000,721876,1000.00,12,0,1,1366.752,-0.863,4.009,1015.762,-1.156,1.032
1.506000,721877,1000.00,12,0,1,1366.080,0.077,4.005,1017.251,0.231,1.015
1.507000,721878,1000.00,12,0,1,1367.929,0.574,4.004,1019.029,1.905,1.050
1.508000,721879,1000.00,12,0,1,1371.965,4.332,4.048,1020.182,2.663,1.067
1.509000,721880,1000.00,12,0,1,1370.980,2.603,4.060,1018.861,1.319,1.062
1.510000,721881,1000.00,12,0,1,1367.977,-1.708,4.056,1017.059,-0.840,1.067
1.511000,721882,1000.00,12,0,1,1371.148,-0.570,3.994,1018.020,-0.263,1.066
1.512000,721883,1000.00,12,0,1,1369.899,-1.208,3.969,1019.485,1.265,1.053
1.513000,721884,1000.00,12,0,1,1371.652,-2.064,3.979,1019.509,1.094,1.051
1.514000,721885,1000.00,12,0,1,1373.214,0.108,3.936,1018.308,-0.116,1.051
1.515000,721886,1000.00,12,0,1,1375.280,0.544,3.897,1019.750,0.561,1.031
1.516000,721887,1000.00,12,0,1,1376.529,2.038,3.897,1019.918,1.239,1.032
1.517000,721888,1000.00,12,0,1,1379.195,3.564,3.927,1020.158,0.668,1.036
1.518000,721889,1000.00,12,0,1,1384.984,8.385,4.090,1017.179,-1.296,1.033
1.519000,721890,1000.00,12,0,1,1383.447,7.724,4.228,1016.723,-2.655,1.099
1.520000,721891,1000.00,12,0,1,1371.436,-3.279,4.240,1017.828,-0.698,1.102
1.521000,721892,1000.00,12,0,1,1363.774,-9.998,4.468,1019.005,0.188,1.102
1.522000,721893,1000.00,12,0,1,1364.590,-7.096,4.570,1017.468,-0.625,1.105
1.523000,721894,1000.00,12,0,1,1364.999,-3.717,4.587,1017.492,-1.203,1.114
1.524000,721895,1000.00,12,0,1,1361.636,-4.962,4.623,1018.308,0.022,1.091
1.525000,721896,1000.00,12,0,1,1360.411,-4.911,4.653,1017.083,-0.896,1.097
1.526000,721897,1000.00,12,0,1,1357.817,-5.256,4.630,1016.651,-1.581,1.119
1.527000,721898,1000.00,12,0,1,1360.291,-3.220,4.646,1016.867,-0.889,1.125
1.528000,721899,1000.00,12,0,1,1363.077,0.743,4.568,1017.876,-0.208,1.120
1.529000,721900,1000.00,12,0,1,1366.800,2.763,4.543,1017.564,0.056,1.119
1.530000,721901,1000.00,12,0,1,1371.124,5.917,4.576,1018.044,-0.099,1.117
1.531000,721902,1000.00,12,0,1,1375.256,7.494,4.654,1017.732,0.168,1.117
1.532000,721903,1000.00,12,0,1,1373.646,4.701,4.678,1017.852,-0.232,1.082
1.533000,721904,1000.00,12,0,1,1378.450,5.235,4.721,1017.900,0.188,1.043
1.534000,721905,1000.00,12,0,1,1376.697,4.302,4.753,1017.251,-0.488,1.045
1.535000,721906,1000.00,12,0,1,1377.321,1.148,4.755,1016.843,-0.764,1.031
1.536000,721907,1000.00,12,0,1,1377.057,1.987,4.746,1017.780,0.122,1.022
1.537000,721908,1000.00,12,0,1,1372.013,-3.141,4.716,1019.605,1.791,1.040
1.538000,721909,1000.00,12,0,1,1372.445,-2.884,4.570,1018.981,1.509,1.058
1.539000,721910,1000.00,12,0,1,1369.034,-2.955,4.558,1018.452,0.384,1.059
1.540000,721911,1000.00,12,0,1,1363.509,-7.422,4.650,1017.035,-0.424,1.059
1.541000,721912,1000.00,12,0,1,1367.521,-2.014,4.653,1019.317,0.742,1.062
1.542000,721913,1000.00,12,0,1,1370.331,3.201,4.645,1019.702,2.109,1.103
1.543000,721914,1000.00,12,0,1,1368.914,2.724,4.588,1019.942,1.191,1.115
1.544000,721915,1000.00,12,0,1,1366.392,1.009,4.582,1016.267,-1.187,1.107
1.545000,721916,1000.00,12,0,1,1362.933,-1.506,4.585,1018.428,-0.949,1.106
1.546000,721917,1000.00,12,0,1,1361.275,-2.936,4.592,1018.092,0.659,1.110
1.547000,721918,1000.00,12,0,1,1358.705,-4.280,4.558,1016.675,-1.825,1.139
1.548000,721919,1000.00,12,0,1,1360.771,-3.306,4.577,1017.203,-0.831,1.119
1.549000,721920,1000.00,12,0,1,1363.461,-0.127,4.401,1017.708,-0.279,1.094
1.550000,721921,1000.00,12,0,1,1366.632,1.193,4.077,1017.540,-0.446,1.089
1.551000,721922,1000.00,12,0,1,1370.932,4.046,3.974,1016.699,-0.917,1.083
1.552000,721923,1000.00,12,0,1,1370.523,2.564,3.973,1018.861,0.355,1.072
1.553000,721924,1000.00,12,0,1,1369.154,-0.698,3.967,1017.323,0.250,1.065
1.554000,721925,1000.00,12,0,1,1371.484,0.397,3.967,1018.957,0.035,1.060
1.555000,721926,1000.00,12,0,1,1373.526,1.896,3.974,1017.348,0.389,1.049
1.556000,721927,1000.00,12,0,1,1373.286,1.395,3.979,1017.251,-1.344,1.066
1.557000,721928,1000.00,12,0,1,1373.526,1.284,3.982,1017.780,0.399,1.033
1.558000,721929,1000.00,12,0,1,1371.917,0.742,3.936,1018.549,0.439,0.964
1.559000,721930,1000.00,12,0,1,1371.148,0.245,3.919,1017.972,0.488,0.948
1.560000,721931,1000.00,12,0,1,1368.866,-0.007,3.912,1019.317,1.027,0.952
1.561000,721932,1000.00,12,0,1,1368.001,-0.232,3.911,1020.278,2.212,1.001
1.562000,721933,1000.00,12,0,1,1366.416,0.360,3.908,1019.293,1.085,0.997
1.563000,721934,1000.00,12,0,1,1367.377,1.499,3.903,1018.212,-0.303,0.986
1.564000,721935,1000.00,12,0,1,1368.842,4.069,3.945,1016.651,-1.357,1.004
1.565000,721936,1000.00,12,0,1,1372.685,6.716,4.057,1015.258,-2.742,1.073
1.566000,721937,1000.00,12,0,1,1368.097,3.496,4.077,1017.299,-0.709,1.064
1.567000,721938,1000.00,12,0,1,1360.939,-4.950,4.105,1018.380,0.815,1.066
1.568000,721939,1000.00,12,0,1,1363.389,-3.683,3.965,1018.212,0.461,1.052
1.569000,721940,1000.00,12,0,1,1367.305,0.311,3.812,1016.843,-0.674,0.987
1.570000,721941,1000.00,12,0,1,1368.362,-0.122,3.783,1018.573,0.281,0.983
1.571000,721942,1000.00,12,0,1,1372.421,1.827,3.519,1017.107,-0.058,0.983
1.572000,721943,1000.00,12,0,1,1376.240,3.910,3.418,1016.699,-1.435,0.999
1.573000,721944,1000.00,12,0,1,1379.003,4.361,3.433,1016.459,-0.786,0.991
1.574000,721945,1000.00,12,0,1,1376.481,1.048,3.364,1017.203,-0.545,0.994
1.575000,721946,1000.00,12,0,1,1374.463,-2.652,3.312,1019.629,1.821,1.019
1.576000,721947,1000.00,12,0,1,1375.159,-1.994,3.240,1017.804,0.688,0.999
1.577000,721948,1000.00,12,0,1,1375.592,-1.210,3.213,1017.780,-0.476,0.993
1.578000,721949,1000.00,12,0,1,1374.439,-1.505,3.218,1017.732,0.428,0.995
1.579000,721950,1000.00,12,0,1,1367.137,-6.119,3.309,1016.555,-1.090,1.007
1.580000,721951,1000.00,12,0,1,1366.248,-6.778,3.342,1016.819,-0.562,1.010
1.581000,721952,1000.00,12,0,1,1369.467,-0.584,3.171,1015.978,-0.919,1.018
1.582000,721953,1000.00,12,0,1,1368.362,0.118,3.100,1015.954,-1.026,1.027
1.583000,721954,1000.00,12,0,1,1369.106,1.379,3.017,1017.852,0.932,1.036
1.584000,721955,1000.00,12,0,1,1367.809,1.813,2.966,1017.612,1.080,1.044
1.585000,721956,1000.00,12,0,1,1366.920,0.516,2.963,1017.660,0.625,1.043
1.586000,721957,1000.00,12,0,1,1367.881,1.754,2.960,1015.066,-1.056,1.053
1.587000,721958,1000.00,12,0,1,1366.920,0.546,2.927,1017.372,-0.171,1.023
1.588000,721959,1000.00,12,0,1,1368.290,0.469,2.899,1019.629,2.996,1.086
1.589000,721960,1000.00,12,0,1,1370.812,2.000,2.883,1018.789,1.522,1.106
1.590000,721961,1000.00,12,0,1,1367.521,-1.719,2.696,1016.723,-0.442,1.106
1.591000,721962,1000.00,12,0,1,1369.274,-2.729,2.709,1019.774,1.320,1.117
1.592000,721963,1000.00,12,0,1,1373.334,0.911,2.674,1018.693,1.488,1.097
1.593000,721964,1000.00,12,0,1,1375.159,1.129,2.651,1017.203,-1.161,1.096
1.594000,721965,1000.00,12,0,1,1376.144,1.030,2.651,1015.306,-2.081,1.122
1.595000,721966,1000.00,12,0,1,1375.472,-0.164,2.642,1014.897,-2.764,1.181
1.596000,721967,1000.00,12,0,1,1372.709,-2.778,2.639,1016.171,-1.020,1.186
1.597000,721968,1000.00,12,0,1,1367.209,-6.691,2.737,1016.098,-0.528,1.160
1.598000,721969,1000.00,12,0,1,1365.431,-7.528,2.900,1016.579,-0.350,1.155
1.599000,721970,1000.00,12,0,1,1366.728,-3.695,2.946,1015.906,-0.192,1.155
1.600000,721971,1000.00,12,0,1,1364.470,-3.242,2.977,1016.459,-0.282,1.154
1.601000,721972,1000.00,12,0,1,1363.798,-2.423,2.941,1016.026,0.224,1.147
1.602000,721973,1000.00,12,0,1,1363.990,0.110,2.919,1016.507,-0.004,1.146
1.603000,721974,1000.00,12,0,1,1364.206,1.456,2.925,1015.570,0.002,1.145
1.604000,721975,1000.00,12,0,1,1361.972,0.955,2.927,1015.498,-0.683,1.149
1.605000,721976,1000.00,12,0,1,1359.114,-1.328,2.921,1015.978,0.308,1.149
1.606000,721977,1000.00,12,0,1,1357.624,-2.045,2.929,1017.131,1.037,1.142
1.607000,721978,1000.00,12,0,1,1361.251,0.840,2.925,1016.723,0.975,1.149
1.608000,721979,1000.00,12,0,1,1366.464,5.465,3.024,1016.891,0.582,1.150
1.609000,721980,1000.00,12,0,1,1364.807,3.373,3.061,1017.396,1.099,1.159
1.610000,721981,1000.00,12,0,1,1367.809,2.855,3.088,1017.852,1.256,1.163
1.611000,721982,1000.00,12,0,1,1372.805,6.749,3.232,1018.693,1.678,1.145
1.612000,721983,1000.00,12,0,1,1370.547,2.989,3.259,1017.732,0.910,1.142
