# FW/GUI: v9.6.1-multi17-dual (PyQt5)
# StartTime: 2026-04-03 16:14:59
# Slot: 13
# DeviceID: 13
# Label: EMG13
# IP: 192.168.137.206
# TCP: 3333
# DeviceFW: EMG_FW_v9.6_MULTI17_DUALCH_RUNTIMECFG_CHEN
# IMU1_RefTime = format(imu_ms) = relative since power-on Time (IMU acquisition time)
IMU1_RefTime,ax_g,ay_g,az_g,gx_dps,gy_dps,gz_dps,mx_uT,my_uT,mz_uT,temp_C,qw,qx,qy,qz
'00:06:52.624,0.060547,0.029785,1.001953,0.304878,1.341463,-0.609756,-3.381250,20.087500,23.325001,27.793,0.62196392,-0.00702450,-0.02721990,-0.78254112
'00:06:52.634,0.061035,0.029785,1.003906,0.365854,1.402439,-0.609756,-3.268750,19.825001,23.175001,27.717,0.62193245,-0.00703532,-0.02722931,-0.78256571
'00:06:52.644,0.059570,0.029297,1.002441,0.365854,1.341463,-0.609756,-3.268750,19.825001,23.175001,27.732,0.62190102,-0.00704397,-0.02723230,-0.78259051
'00:06:52.655,0.060059,0.029297,1.003906,0.365854,1.341463,-0.548781,-3.250000,19.843750,23.243750,27.717,0.62187249,-0.00705837,-0.02723940,-0.78261281
'00:06:52.664,0.059570,0.029297,1.002930,0.365854,1.341463,-0.487805,-3.250000,19.843750,23.243750,27.793,0.62185292,-0.00706762,-0.02724336,-0.78262813
'00:06:52.674,0.060547,0.030273,1.001465,0.426829,1.402439,-0.609756,-3.256250,19.893751,23.150000,27.778,0.62182347,-0.00707116,-0.02726081,-0.78265089
'00:06:52.684,0.059570,0.029297,1.001465,0.365854,1.341463,-0.609756,-3.256250,19.893751,23.150000,27.702,0.62179413,-0.00708111,-0.02726616,-0.78267392
'00:06:52.694,0.060059,0.030273,1.002930,0.304878,1.341463,-0.548781,-3.556250,20.256250,23.350000,27.748,0.62175454,-0.00707574,-0.02725637,-0.78270577
'00:06:52.704,0.060059,0.028809,1.002441,0.304878,1.341463,-0.548781,-3.556250,20.256250,23.350000,27.763,0.62171542,-0.00707790,-0.02723816,-0.78273746
'00:06:52.714,0.060059,0.030273,1.001953,0.365854,1.341463,-0.609756,-3.593750,20.306250,23.487501,27.748,0.62167000,-0.00706801,-0.02723148,-0.78277385
'00:06:52.724,0.060059,0.030273,1.001953,0.365854,1.341463,-0.609756,-3.200000,19.812500,23.206251,27.748,0.62164328,-0.00708005,-0.02724979,-0.78279432
'00:06:52.735,0.060547,0.029785,1.001465,0.365854,1.341463,-0.609756,-3.200000,19.812500,23.206251,27.778,0.62161403,-0.00709931,-0.02726914,-0.78281670
'00:06:52.744,0.060547,0.029785,1.001465,0.365854,1.341463,-0.609756,-3.237500,19.825001,23.125000,27.778,0.62158833,-0.00711231,-0.02728213,-0.78283654
'00:06:52.756,0.061035,0.029297,1.003418,0.426829,1.341463,-0.609756,-3.237500,19.825001,23.125000,27.702,0.62155429,-0.00713152,-0.02730227,-0.78286269
'00:06:52.764,0.059570,0.029297,1.002930,0.365854,1.341463,-0.609756,-3.237500,19.881250,23.118750,27.748,0.62153228,-0.00714000,-0.02730723,-0.78287992
'00:06:52.776,0.060059,0.029297,1.001465,0.365854,1.341463,-0.609756,-3.237500,19.881250,23.118750,27.778,0.62149930,-0.00715661,-0.02731837,-0.78290556
'00:06:52.784,0.060059,0.029297,1.001465,0.365854,1.341463,-0.609756,-3.631250,20.450001,23.600000,27.778,0.62146298,-0.00715130,-0.02730708,-0.78293483
'00:06:52.794,0.060059,0.030273,1.002930,0.365854,1.402439,-0.609756,-3.631250,20.450001,23.600000,27.763,0.62141769,-0.00713567,-0.02729534,-0.78297133
'00:06:52.804,0.060059,0.029297,1.002441,0.365854,1.341463,-0.670732,-3.506250,20.312500,23.400000,27.763,0.62137478,-0.00713583,-0.02728951,-0.78300558
'00:06:52.816,0.059082,0.030273,1.003418,0.426829,1.341463,-0.609756,-3.506250,20.312500,23.400000,27.763,0.62132828,-0.00711935,-0.02728880,-0.78304266
'00:06:52.824,0.060059,0.029785,1.003418,0.365854,1.341463,-0.609756,-3.237500,19.906250,23.193750,27.763,0.62130690,-0.00712940,-0.02729914,-0.78305917
'00:06:52.834,0.060547,0.029785,1.001953,0.365854,1.280488,-0.609756,-3.237500,19.906250,23.193750,27.717,0.62128004,-0.00714933,-0.02731836,-0.78307963
'00:06:52.844,0.060059,0.029785,1.003418,0.365854,1.341463,-0.609756,-3.250000,19.862501,23.175001,27.717,0.62125198,-0.00716018,-0.02732917,-0.78310141
'00:06:52.856,0.060059,0.029785,1.002930,0.365854,1.341463,-0.609756,-3.250000,19.862501,23.175001,27.763,0.62121837,-0.00717319,-0.02734228,-0.78312750
'00:06:52.864,0.061035,0.029785,1.002441,0.426829,1.341463,-0.609756,-3.293750,19.912500,23.187500,27.732,0.62119430,-0.00718193,-0.02735598,-0.78314603
'00:06:52.874,0.060547,0.029297,1.002441,0.365854,1.341463,-0.609756,-3.293750,19.912500,23.187500,27.717,0.62116435,-0.00719552,-0.02736327,-0.78316941
'00:06:52.884,0.059082,0.029785,1.003906,0.365854,1.341463,-0.609756,-3.368750,20.075001,23.262501,27.687,0.62113169,-0.00719365,-0.02736198,-0.78319537
'00:06:52.896,0.059082,0.030762,1.002441,0.365854,1.341463,-0.609756,-3.368750,20.075001,23.262501,27.717,0.62109237,-0.00718612,-0.02736881,-0.78322638
'00:06:52.905,0.060547,0.029785,1.002441,0.365854,1.341463,-0.609756,-3.462500,20.212500,23.387501,27.717,0.62105931,-0.00718884,-0.02736989,-0.78325254
'00:06:52.914,0.060059,0.029785,1.002930,0.365854,1.341463,-0.609756,-3.462500,20.212500,23.387501,27.748,0.62102634,-0.00718886,-0.02736872,-0.78327873
'00:06:52.924,0.059082,0.030273,1.003418,0.426829,1.341463,-0.609756,-3.256250,19.912500,23.125000,27.763,0.62099937,-0.00718793,-0.02738224,-0.78329964
'00:06:52.935,0.061523,0.028809,1.002441,0.365854,1.341463,-0.609756,-3.256250,19.912500,23.125000,27.778,0.62097004,-0.00721546,-0.02739592,-0.78332216
'00:06:52.944,0.060059,0.029785,1.002441,0.426829,1.341463,-0.609756,-3.256250,19.843750,23.118750,27.748,0.62094503,-0.00722162,-0.02740881,-0.78334148
'00:06:52.954,0.061035,0.029785,1.001465,0.365854,1.341463,-0.548781,-3.256250,19.843750,23.118750,27.793,0.62092139,-0.00723810,-0.02742406,-0.78335953
'00:06:52.964,0.059570,0.028809,1.001953,0.426829,1.341463,-0.609756,-3.212500,19.800001,23.112501,27.732,0.62089612,-0.00724938,-0.02743254,-0.78337916
'00:06:52.975,0.059082,0.029297,1.001953,0.426829,1.402439,-0.609756,-3.200000,19.868750,23.150000,27.778,0.62087028,-0.00725272,-0.02744112,-0.78339931
'00:06:52.984,0.060059,0.029785,1.002930,0.365854,1.341463,-0.609756,-3.200000,19.868750,23.150000,27.717,0.62084890,-0.00726522,-0.02745406,-0.78341569
'00:06:52.994,0.060547,0.029297,1.003418,0.365854,1.341463,-0.548781,-3.525000,20.287500,23.450001,27.748,0.62081391,-0.00726658,-0.02744703,-0.78344364
'00:06:53.004,0.060059,0.029297,1.002930,0.304878,1.402439,-0.548781,-3.525000,20.287500,23.450001,27.748,0.62077916,-0.00726435,-0.02743067,-0.78347177
'00:06:53.015,0.060547,0.028809,1.001953,0.365854,1.341463,-0.609756,-3.381250,20.062500,23.218750,27.763,0.62074363,-0.00727687,-0.02743030,-0.78349982
'00:06:53.024,0.060547,0.030273,1.002930,0.365854,1.341463,-0.609756,-3.381250,20.062500,23.218750,27.702,0.62071434,-0.00728029,-0.02743794,-0.78352273
'00:06:53.034,0.061035,0.028809,1.002930,0.365854,1.341463,-0.609756,-3.287500,19.931250,23.212500,27.763,0.62068629,-0.00729976,-0.02744518,-0.78354451
'00:06:53.044,0.060547,0.029785,1.003418,0.304878,1.280488,-0.609756,-3.287500,19.931250,23.212500,27.778,0.62065788,-0.00731843,-0.02745502,-0.78356650
'00:06:53.055,0.059082,0.029785,1.001465,0.365854,1.341463,-0.609756,-3.262500,19.875000,23.156250,27.702,0.62062797,-0.00732221,-0.02746116,-0.78358994
'00:06:53.064,0.059570,0.029785,1.002930,0.365854,1.341463,-0.609756,-3.262500,19.875000,23.156250,27.717,0.62060357,-0.00732778,-0.02746771,-0.78360898
'00:06:53.074,0.060547,0.030273,1.002930,0.365854,1.341463,-0.548781,-3.312500,19.893751,23.256250,27.748,0.62057726,-0.00733460,-0.02747884,-0.78362936
'00:06:53.084,0.060547,0.029297,1.001953,0.365854,1.280488,-0.609756,-3.312500,19.893751,23.256250,27.687,0.62054691,-0.00735053,-0.02748747,-0.78365295
'00:06:53.095,0.060059,0.029297,1.001953,0.365854,1.341463,-0.548781,-3.506250,20.218750,23.468750,27.763,0.62050934,-0.00734936,-0.02747864,-0.78368301
'00:06:53.104,0.059082,0.030273,1.001953,0.365854,1.341463,-0.609756,-3.506250,20.218750,23.468750,27.732,0.62047478,-0.00733870,-0.02747294,-0.78371068
'00:06:53.114,0.059570,0.030762,1.001465,0.365854,1.341463,-0.548781,-3.575000,20.306250,23.468750,27.748,0.62043763,-0.00732439,-0.02746847,-0.78374038
'00:06:53.124,0.060547,0.029297,1.002441,0.365854,1.341463,-0.548781,-3.575000,20.306250,23.468750,27.732,0.62040096,-0.00732336,-0.02745947,-0.78376973
'00:06:53.136,0.062012,0.029785,1.002441,0.365854,1.341463,-0.609756,-3.268750,19.887501,23.218750,27.778,0.62036875,-0.00734979,-0.02748356,-0.78379414
'00:06:53.144,0.061523,0.028809,1.002441,0.304878,1.341463,-0.609756,-3.268750,19.887501,23.218750,27.732,0.62034742,-0.00737127,-0.02748910,-0.78381062
'00:06:53.154,0.060059,0.029297,1.004395,0.426829,1.341463,-0.548781,-3.268750,19.918751,23.168751,27.763,0.62032559,-0.00737954,-0.02749973,-0.78382745
'00:06:53.164,0.060547,0.029297,1.002930,0.426829,1.341463,-0.609756,-3.268750,19.918751,23.168751,27.717,0.62029960,-0.00739091,-0.02751338,-0.78384743
'00:06:53.174,0.059082,0.030273,1.002441,0.426829,1.341463,-0.670732,-3.237500,19.818750,23.118750,27.657,0.62027002,-0.00738932,-0.02752721,-0.78387037
'00:06:53.184,0.059082,0.029297,1.001953,0.365854,1.341463,-0.609756,-3.237500,19.818750,23.118750,27.778,0.62024486,-0.00739634,-0.02753068,-0.78389008
'00:06:53.194,0.060547,0.030273,1.002930,0.365854,1.341463,-0.609756,-3.443750,20.068750,23.362501,27.793,0.62020918,-0.00739586,-0.02753378,-0.78391821
'00:06:53.204,0.061035,0.029785,1.001953,0.365854,1.341463,-0.609756,-3.443750,20.068750,23.362501,27.778,0.62017371,-0.00740115,-0.02753675,-0.78394612
'00:06:53.217,0.061035,0.029297,1.002441,0.365854,1.341463,-0.609756,-3.687500,20.493750,23.593750,27.778,0.62011553,-0.00739592,-0.02751996,-0.78399278
'00:06:53.224,0.060059,0.029785,1.002441,0.365854,1.341463,-0.548781,-3.687500,20.493750,23.593750,27.717,0.62008718,-0.00738769,-0.02751008,-0.78401563
'00:06:53.234,0.059570,0.030762,1.003418,0.426829,1.341463,-0.609756,-3.406250,20.037500,23.231251,27.702,0.62005436,-0.00737815,-0.02751919,-0.78404135
'00:06:53.244,0.058594,0.030273,1.002441,0.365854,1.341463,-0.548781,-3.406250,20.037500,23.231251,27.748,0.62002590,-0.00736897,-0.02751670,-0.78406403
'00:06:53.256,0.059570,0.030273,1.003418,0.365854,1.341463,-0.609756,-3.200000,19.818750,23.150000,27.778,0.61999932,-0.00737957,-0.02753559,-0.78408429
'00:06:53.265,0.061035,0.028809,1.002441,0.365854,1.341463,-0.609756,-3.218750,19.843750,23.118750,27.717,0.61997898,-0.00740134,-0.02754701,-0.78409977
'00:06:53.274,0.059570,0.029785,1.002930,0.365854,1.341463,-0.609756,-3.218750,19.843750,23.118750,27.778,0.61995848,-0.00741012,-0.02755714,-0.78411554
'00:06:53.284,0.059570,0.029785,1.001465,0.365854,1.341463,-0.609756,-3.418750,20.193750,23.406250,27.717,0.61992702,-0.00741006,-0.02755760,-0.78414039
'00:06:53.296,0.061523,0.029297,1.003418,0.365854,1.402439,-0.609756,-3.418750,20.193750,23.406250,27.732,0.61988969,-0.00742184,-0.02756097,-0.78416968
'00:06:53.306,0.060547,0.029297,1.003418,0.426829,1.341463,-0.609756,-3.556250,20.331251,23.412500,27.732,0.61985200,-0.00741860,-0.02755788,-0.78419961
'00:06:53.315,0.060547,0.029297,1.001465,0.365854,1.341463,-0.609756,-3.556250,20.331251,23.412500,27.717,0.61981814,-0.00741921,-0.02755237,-0.78422656
'00:06:53.324,0.060547,0.028809,1.001465,0.365854,1.341463,-0.548781,-3.412500,20.156250,23.318750,27.717,0.61979430,-0.00742928,-0.02755216,-0.78424531
'00:06:53.336,0.061035,0.029297,1.002930,0.365854,1.341463,-0.609756,-3.412500,20.156250,23.318750,27.748,0.61975745,-0.00744268,-0.02755770,-0.78427411
'00:06:53.344,0.060059,0.029785,1.002441,0.365854,1.341463,-0.548781,-3.287500,19.862501,23.175001,27.763,0.61973954,-0.00744956,-0.02756486,-0.78428795
'00:06:53.354,0.060547,0.030762,1.001953,0.365854,1.341463,-0.548781,-3.287500,19.862501,23.175001,27.763,0.61971694,-0.00745629,-0.02758259,-0.78430512
'00:06:53.364,0.059570,0.030273,1.001953,0.304878,1.341463,-0.609756,-3.300000,19.875000,23.218750,27.763,0.61968952,-0.00746185,-0.02758708,-0.78432657
'00:06:53.376,0.060059,0.029785,1.001953,0.365854,1.341463,-0.609756,-3.300000,19.875000,23.218750,27.748,0.61965688,-0.00747115,-0.02759665,-0.78435193
'00:06:53.384,0.060547,0.029297,1.002930,0.365854,1.341463,-0.609756,-3.275000,19.962500,23.187500,27.732,0.61963766,-0.00748342,-0.02760482,-0.78436672
'00:06:53.394,0.061035,0.029297,1.001465,0.426829,1.341463,-0.548781,-3.275000,19.962500,23.187500,27.732,0.61961784,-0.00749878,-0.02762215,-0.78438162
'00:06:53.404,0.060059,0.030273,1.003418,0.365854,1.341463,-0.609756,-3.500000,20.206251,23.362501,27.763,0.61958232,-0.00749307,-0.02762083,-0.78440978
'00:06:53.419,0.060547,0.028809,1.001953,0.426829,1.341463,-0.609756,-3.512500,20.268751,23.406250,27.748,0.61952978,-0.00749539,-0.02761621,-0.78445141
'00:06:53.424,0.060059,0.029297,1.002441,0.426829,1.341463,-0.548781,-3.512500,20.268751,23.406250,27.732,0.61951437,-0.00749359,-0.02761501,-0.78446364
'00:06:53.434,0.059082,0.029785,1.002930,0.365854,1.341463,-0.609756,-3.512500,20.268751,23.406250,27.748,0.61947932,-0.00748476,-0.02760663,-0.78449170
'00:06:53.444,0.059570,0.029785,1.002441,0.365854,1.341463,-0.609756,-3.243750,19.881250,23.162500,27.748,0.61945667,-0.00749357,-0.02761721,-0.78450912
'00:06:53.456,0.059570,0.028809,1.001953,0.365854,1.341463,-0.548781,-3.243750,19.881250,23.162500,27.763,0.61943482,-0.00751024,-0.02762249,-0.78452603
'00:06:53.464,0.060059,0.030273,1.002930,0.304878,1.341463,-0.670732,-3.193750,19.862501,23.143751,27.748,0.61941573,-0.00752255,-0.02763487,-0.78454055
'00:06:53.474,0.060059,0.030273,1.002930,0.304878,1.341463,-0.670732,-3.193750,19.862501,23.143751,27.748,0.61939189,-0.00753776,-0.02765015,-0.78455869
'00:06:53.484,0.060547,0.029785,1.003418,0.365854,1.280488,-0.609756,-3.218750,19.812500,23.175001,27.717,0.61936974,-0.00755708,-0.02766878,-0.78457533
'00:06:53.497,0.060059,0.031250,1.001953,0.365854,1.341463,-0.609756,-3.312500,20.018751,23.243750,27.778,0.61933643,-0.00755728,-0.02769206,-0.78460081
'00:06:53.504,0.060547,0.029785,1.001953,0.365854,1.341463,-0.548781,-3.312500,20.018751,23.243750,27.748,0.61932167,-0.00756480,-0.02769954,-0.78461212
'00:06:53.514,0.061035,0.029785,1.002441,0.365854,1.341463,-0.609756,-3.543750,20.287500,23.450001,27.732,0.61928510,-0.00756544,-0.02769762,-0.78464104
'00:06:53.524,0.060059,0.029297,1.001953,0.365854,1.402439,-0.609756,-3.543750,20.287500,23.450001,27.763,0.61924892,-0.00755863,-0.02768505,-0.78467011
'00:06:53.534,0.060059,0.029297,1.002930,0.487805,1.341463,-0.609756,-3.231250,19.800001,23.125000,27.687,0.61922667,-0.00756570,-0.02770212,-0.78468700
'00:06:53.544,0.059082,0.030273,1.002441,0.365854,1.341463,-0.548781,-3.231250,19.800001,23.125000,27.778,0.61920832,-0.00756851,-0.02771218,-0.78470109
'00:06:53.554,0.060059,0.030273,1.002930,0.365854,1.341463,-0.609756,-3.256250,19.825001,23.156250,27.748,0.61918444,-0.00757568,-0.02772502,-0.78471941
'00:06:53.564,0.059082,0.028320,1.003418,0.365854,1.341463,-0.548781,-3.256250,19.825001,23.156250,27.763,0.61916526,-0.00758662,-0.02772008,-0.78473461
'00:06:53.574,0.059082,0.029297,1.002930,0.365854,1.341463,-0.609756,-3.231250,19.837500,23.100000,27.732,0.61914375,-0.00759421,-0.02772418,-0.78475137
'00:06:53.584,0.060059,0.030762,1.002930,0.365854,1.341463,-0.548781,-3.231250,19.837500,23.100000,27.748,0.61912608,-0.00760054,-0.02774242,-0.78476461
'00:06:53.594,0.061035,0.029785,1.002930,0.426829,1.341463,-0.609756,-3.387500,20.018751,23.300001,27.748,0.61909639,-0.00760553,-0.02775280,-0.78478762
'00:06:53.604,0.061523,0.030273,1.001465,0.365854,1.402439,-0.548781,-3.387500,20.018751,23.300001,27.748,0.61907091,-0.00761068,-0.02776177,-0.78480735
'00:06:53.616,0.060059,0.029297,1.001465,0.426829,1.402439,-0.609756,-3.581250,20.287500,23.450001,27.763,0.61902534,-0.00759558,-0.02774790,-0.78484393
'00:06:53.624,0.060547,0.029297,1.002441,0.426829,1.402439,-0.609756,-3.581250,20.287500,23.450001,27.702,0.61899512,-0.00758808,-0.02774055,-0.78486810
'00:06:53.634,0.061523,0.030273,1.002441,0.365854,1.341463,-0.548781,-3.381250,20.056250,23.212500,27.763,0.61897114,-0.00759843,-0.02775422,-0.78488642
'00:06:53.644,0.061035,0.029297,1.002441,0.365854,1.341463,-0.609756,-3.381250,20.056250,23.212500,27.748,0.61894326,-0.00761037,-0.02775923,-0.78490811
'00:06:53.654,0.060547,0.029297,1.001953,0.365854,1.341463,-0.609756,-3.237500,19.912500,23.175001,27.763,0.61892274,-0.00762798,-0.02777165,-0.78492369
'00:06:53.664,0.060547,0.028809,1.002441,0.426829,1.341463,-0.609756,-3.237500,19.912500,23.175001,27.717,0.61890238,-0.00764438,-0.02778470,-0.78493912
'00:06:53.674,0.060059,0.031250,1.001465,0.426829,1.341463,-0.609756,-3.275000,19.893751,23.212500,27.717,0.61887860,-0.00764270,-0.02780773,-0.78495706
'00:06:53.684,0.060059,0.029785,1.002930,0.365854,1.402439,-0.548781,-3.275000,19.893751,23.212500,27.763,0.61885951,-0.00764745,-0.02781285,-0.78497189
'00:06:53.694,0.059570,0.030762,1.002441,0.304878,1.341463,-0.609756,-3.231250,19.868750,23.193750,27.763,0.61883843,-0.00765440,-0.02782443,-0.78498803
'00:06:53.704,0.060547,0.030273,1.001953,0.426829,1.341463,-0.609756,-3.231250,19.868750,23.193750,27.808,0.61881754,-0.00766337,-0.02784616,-0.78500364
'00:06:53.714,0.060059,0.028809,1.002441,0.365854,1.341463,-0.609756,-3.500000,20.268751,23.406250,27.732,0.61878495,-0.00766532,-0.02783564,-0.78502969
'00:06:53.724,0.060059,0.029297,1.002930,0.365854,1.341463,-0.609756,-3.500000,20.268751,23.406250,27.763,0.61875237,-0.00766488,-0.02782825,-0.78505563
'00:06:53.734,0.061523,0.029785,1.002441,0.304878,1.341463,-0.548781,-3.418750,20.112501,23.356251,27.808,0.61872689,-0.00767860,-0.02783141,-0.78507546
'00:06:53.744,0.060059,0.030762,1.002441,0.365854,1.402439,-0.609756,-3.418750,20.112501,23.356251,27.748,0.61869728,-0.00767071,-0.02783450,-0.78509877
'00:06:53.754,0.060547,0.030273,1.001953,0.365854,1.341463,-0.548781,-3.218750,19.868750,23.212500,27.732,0.61868169,-0.00768428,-0.02785337,-0.78511025
'00:06:53.764,0.060547,0.030273,1.002441,0.365854,1.341463,-0.609756,-3.218750,19.868750,23.212500,27.748,0.61866192,-0.00769735,-0.02787171,-0.78512506
'00:06:53.774,0.060059,0.029297,1.001953,0.304878,1.341463,-0.548781,-3.225000,19.812500,23.143751,27.763,0.61864552,-0.00771459,-0.02787579,-0.78513766
'00:06:53.784,0.061035,0.029297,1.001953,0.304878,1.341463,-0.609756,-3.262500,19.925001,23.156250,27.778,0.61862410,-0.00773580,-0.02788331,-0.78515406
'00:06:53.794,0.059570,0.029297,1.002441,0.365854,1.341463,-0.609756,-3.262500,19.925001,23.156250,27.778,0.61860277,-0.00774423,-0.02788744,-0.78517063
'00:06:53.804,0.060547,0.029297,1.001953,0.426829,1.402439,-0.609756,-3.575000,20.406250,23.437500,27.778,0.61856796,-0.00773506,-0.02787963,-0.78519843
'00:06:53.814,0.060059,0.029297,1.002441,0.365854,1.402439,-0.609756,-3.575000,20.406250,23.437500,27.778,0.61853326,-0.00772643,-0.02786538,-0.78522635
'00:06:53.825,0.060059,0.029785,1.002930,0.365854,1.280488,-0.609756,-3.568750,20.300001,23.493750,27.748,0.61849333,-0.00772322,-0.02785894,-0.78525807
'00:06:53.834,0.060059,0.029785,1.001953,0.365854,1.341463,-0.609756,-3.568750,20.300001,23.493750,27.748,0.61846092,-0.00771722,-0.02785139,-0.78528392
'00:06:53.844,0.060547,0.028809,1.001953,0.365854,1.341463,-0.609756,-3.275000,19.943750,23.243750,27.748,0.61843948,-0.00773481,-0.02785787,-0.78530040
'00:06:53.854,0.060059,0.030273,1.001953,0.365854,1.280488,-0.548781,-3.275000,19.943750,23.243750,27.717,0.61842176,-0.00774606,-0.02787446,-0.78531366
'00:06:53.864,0.059082,0.029785,1.002441,0.426829,1.341463,-0.548781,-3.262500,19.906250,23.181250,27.763,0.61840486,-0.00774635,-0.02788403,-0.78532662
'00:06:53.874,0.060547,0.031250,1.003906,0.426829,1.341463,-0.609756,-3.262500,19.906250,23.181250,27.763,0.61838345,-0.00774793,-0.02790939,-0.78534257
'00:06:53.884,0.061035,0.029785,1.002441,0.365854,1.341463,-0.548781,-3.218750,19.856251,23.225000,27.687,0.61836846,-0.00776647,-0.02792673,-0.78535356
'00:06:53.894,0.060059,0.030273,1.002930,0.365854,1.341463,-0.548781,-3.218750,19.856251,23.225000,27.793,0.61835338,-0.00777602,-0.02794180,-0.78536481
'00:06:53.904,0.060547,0.030273,1.001953,0.365854,1.341463,-0.609756,-3.368750,20.018751,23.287500,27.748,0.61832656,-0.00777967,-0.02794958,-0.78538561
'00:06:53.914,0.059570,0.030762,1.001465,0.365854,1.341463,-0.548781,-3.368750,20.018751,23.287500,27.748,0.61830389,-0.00777511,-0.02795581,-0.78540329
'00:06:53.924,0.059082,0.029785,1.001465,0.365854,1.280488,-0.609756,-3.543750,20.293751,23.468750,27.763,0.61826959,-0.00776785,-0.02794689,-0.78543067
'00:06:53.934,0.060059,0.029785,1.002441,0.365854,1.402439,-0.609756,-3.543750,20.293751,23.468750,27.778,0.61823574,-0.00775828,-0.02793601,-0.78545780
'00:06:53.944,0.060059,0.028809,1.002441,0.365854,1.341463,-0.609756,-3.350000,19.993750,23.275000,27.748,0.61821060,-0.00776796,-0.02793363,-0.78547758
'00:06:53.954,0.059570,0.028809,1.002441,0.365854,1.341463,-0.609756,-3.350000,19.993750,23.275000,27.748,0.61818553,-0.00777454,-0.02792896,-0.78549741
'00:06:53.964,0.059082,0.029297,1.002441,0.426829,1.341463,-0.609756,-3.262500,19.837500,23.156250,27.778,0.61816426,-0.00777676,-0.02793423,-0.78551394
'00:06:53.974,0.059570,0.030273,1.003418,0.365854,1.341463,-0.609756,-3.262500,19.837500,23.156250,27.778,0.61814277,-0.00778018,-0.02794351,-0.78553049
'00:06:53.984,0.059570,0.030273,1.002441,0.365854,1.341463,-0.609756,-3.225000,19.925001,23.187500,27.763,0.61812496,-0.00778728,-0.02795758,-0.78554393
'00:06:53.994,0.061035,0.029785,1.002441,0.365854,1.341463,-0.609756,-3.225000,19.925001,23.187500,27.748,0.61810723,-0.00780586,-0.02797555,-0.78555706
'00:06:54.004,0.060059,0.029297,1.001465,0.365854,1.341463,-0.548781,-3.237500,19.856251,23.150000,27.808,0.61809209,-0.00781935,-0.02798364,-0.78556854
'00:06:54.014,0.061035,0.030762,1.002441,0.426829,1.402439,-0.548781,-3.237500,19.856251,23.150000,27.732,0.61807678,-0.00782362,-0.02800623,-0.78557974
'00:06:54.024,0.060059,0.029297,1.002930,0.365854,1.341463,-0.609756,-3.387500,20.087500,23.337500,27.778,0.61805054,-0.00782842,-0.02800419,-0.78560041
'00:06:54.034,0.059082,0.029785,1.002930,0.365854,1.341463,-0.609756,-3.387500,20.087500,23.337500,27.748,0.61802429,-0.00782476,-0.02800058,-0.78562123
'00:06:54.044,0.060059,0.030273,1.002441,0.365854,1.341463,-0.609756,-3.362500,20.043751,23.300001,27.763,0.61799908,-0.00782621,-0.02800668,-0.78564083
'00:06:54.054,0.061035,0.029297,1.003418,0.365854,1.341463,-0.609756,-3.325000,19.981251,23.243750,27.748,0.61797584,-0.00784031,-0.02801306,-0.78565874
'00:06:54.064,0.060059,0.029785,1.002441,0.426829,1.402439,-0.609756,-3.325000,19.981251,23.243750,27.808,0.61795273,-0.00783851,-0.02801904,-0.78567672
'00:06:54.074,0.061035,0.029785,1.002930,0.365854,1.341463,-0.609756,-3.318750,19.893751,23.181250,27.748,0.61792879,-0.00784974,-0.02802793,-0.78569512
'00:06:54.084,0.059082,0.029785,1.001953,0.365854,1.341463,-0.548781,-3.318750,19.893751,23.181250,27.778,0.61790912,-0.00784907,-0.02802751,-0.78571061
'00:06:54.094,0.060547,0.029785,1.002441,0.365854,1.341463,-0.609756,-3.237500,19.862501,23.156250,27.793,0.61789022,-0.00786269,-0.02804049,-0.78572488
'00:06:54.104,0.061035,0.029785,1.002441,0.365854,1.280488,-0.609756,-3.237500,19.862501,23.156250,27.748,0.61787117,-0.00788332,-0.02805897,-0.78573900
'00:06:54.114,0.060547,0.029785,1.002441,0.365854,1.341463,-0.609756,-3.556250,20.293751,23.468750,27.778,0.61783722,-0.00787928,-0.02805194,-0.78576598
'00:06:54.124,0.061035,0.029785,1.002441,0.365854,1.341463,-0.609756,-3.556250,20.293751,23.468750,27.732,0.61780340,-0.00787843,-0.02804756,-0.78579273
'00:06:54.134,0.060059,0.029785,1.002441,0.365854,1.341463,-0.609756,-3.543750,20.337500,23.537500,27.763,0.61777091,-0.00787312,-0.02804020,-0.78581860
'00:06:54.144,0.059570,0.029785,1.002441,0.365854,1.341463,-0.609756,-3.543750,20.337500,23.537500,27.732,0.61773855,-0.00786506,-0.02803074,-0.78584445
'00:06:54.154,0.060547,0.030273,1.001953,0.426829,1.341463,-0.609756,-3.262500,19.912500,23.206251,27.687,0.61771903,-0.00787220,-0.02805046,-0.78585902
'00:06:54.164,0.060059,0.029297,1.002930,0.426829,1.341463,-0.609756,-3.262500,19.912500,23.206251,27.732,0.61769979,-0.00788090,-0.02806073,-0.78587369
'00:06:54.174,0.060547,0.030273,1.002441,0.365854,1.341463,-0.609756,-3.225000,19.887501,23.206251,27.702,0.61768235,-0.00789343,-0.02807831,-0.78588664
'00:06:54.185,0.059570,0.030762,1.002441,0.365854,1.341463,-0.670732,-3.225000,19.887501,23.206251,27.717,0.61765849,-0.00789738,-0.02809551,-0.78590474
'00:06:54.194,0.060059,0.031250,1.002441,0.426829,1.341463,-0.609756,-3.268750,19.887501,23.206251,27.763,0.61764009,-0.00789555,-0.02811478,-0.78591853
'00:06:54.204,0.061035,0.029297,1.002930,0.365854,1.402439,-0.548781,-3.268750,19.887501,23.206251,27.763,0.61762440,-0.00790866,-0.02812048,-0.78593053
'00:06:54.214,0.061035,0.029297,1.002930,0.365854,1.402439,-0.548781,-3.487500,20.193750,23.362501,27.763,0.61759871,-0.00790962,-0.02811299,-0.78595098
'00:06:54.224,0.060059,0.029785,1.001465,0.365854,1.341463,-0.609756,-3.487500,20.193750,23.362501,27.702,0.61756867,-0.00790664,-0.02810807,-0.78597478
'00:06:54.235,0.059570,0.029785,1.002441,0.365854,1.341463,-0.609756,-3.550000,20.343750,23.412500,27.778,0.61753373,-0.00789716,-0.02809696,-0.78600272
'00:06:54.244,0.059570,0.029785,1.002441,0.365854,1.341463,-0.609756,-3.550000,20.343750,23.412500,27.778,0.61750528,-0.00788969,-0.02808820,-0.78602546
'00:06:54.254,0.060059,0.031250,1.003418,0.426829,1.341463,-0.609756,-3.281250,19.993750,23.225000,27.732,0.61748610,-0.00788832,-0.02811047,-0.78603976
'00:06:54.264,0.061035,0.030273,1.002930,0.365854,1.341463,-0.609756,-3.281250,19.993750,23.225000,27.687,0.61746708,-0.00790135,-0.02812702,-0.78605397
'00:06:54.274,0.060547,0.029785,1.001953,0.365854,1.341463,-0.609756,-3.243750,19.906250,23.193750,27.763,0.61744946,-0.00791564,-0.02814007,-0.78606720
'00:06:54.284,0.060059,0.029297,1.002441,0.365854,1.402439,-0.548781,-3.243750,19.906250,23.193750,27.748,0.61743631,-0.00792499,-0.02814378,-0.78607731
'00:06:54.294,0.061035,0.029297,1.002930,0.365854,1.402439,-0.609756,-3.250000,19.850000,23.175001,27.732,0.61741778,-0.00793907,-0.02815073,-0.78609147
'00:06:54.304,0.059570,0.029297,1.001953,0.304878,1.402439,-0.609756,-3.250000,19.850000,23.175001,27.778,0.61739927,-0.00794731,-0.02814662,-0.78610607
'00:06:54.314,0.061035,0.029297,1.002930,0.426829,1.341463,-0.609756,-3.268750,19.956251,23.212500,27.717,0.61738092,-0.00796168,-0.02816111,-0.78611981
'00:06:54.324,0.060059,0.029785,1.001465,0.426829,1.341463,-0.548781,-3.537500,20.231251,23.437500,27.763,0.61735278,-0.00795254,-0.02815665,-0.78614216
'00:06:54.336,0.060547,0.029297,1.003418,0.365854,1.402439,-0.609756,-3.537500,20.231251,23.437500,27.793,0.61731443,-0.00794661,-0.02814072,-0.78617291
'00:06:54.345,0.060547,0.029785,1.001465,0.426829,1.402439,-0.548781,-3.375000,20.031250,23.243750,27.763,0.61729668,-0.00794563,-0.02814565,-0.78618668
'00:06:54.354,0.060547,0.029297,1.003906,0.365854,1.402439,-0.609756,-3.375000,20.031250,23.243750,27.808,0.61727531,-0.00794924,-0.02814300,-0.78620352
'00:06:54.364,0.059570,0.029297,1.003418,0.365854,1.341463,-0.609756,-3.256250,19.937500,23.206251,27.778,0.61725796,-0.00795883,-0.02814716,-0.78621689
'00:06:54.374,0.060059,0.030273,1.002441,0.304878,1.280488,-0.609756,-3.256250,19.937500,23.206251,27.748,0.61724019,-0.00797409,-0.02815953,-0.78623025
'00:06:54.384,0.060059,0.029297,1.003418,0.365854,1.280488,-0.609756,-3.281250,19.850000,23.125000,27.717,0.61722005,-0.00798784,-0.02816585,-0.78624569
'00:06:54.394,0.059570,0.028809,1.002930,0.365854,1.341463,-0.609756,-3.281250,19.850000,23.125000,27.763,0.61720021,-0.00799674,-0.02816352,-0.78626126
'00:06:54.404,0.059570,0.029297,1.002441,0.365854,1.341463,-0.609756,-3.318750,19.893751,23.193750,27.748,0.61717826,-0.00800115,-0.02816213,-0.78627849
'00:06:54.414,0.059570,0.029785,1.003418,0.426829,1.341463,-0.609756,-3.318750,19.893751,23.193750,27.763,0.61715632,-0.00799962,-0.02816768,-0.78629554
'00:06:54.424,0.060059,0.029297,1.002441,0.426829,1.341463,-0.609756,-3.612500,20.387501,23.462500,27.687,0.61712234,-0.00798929,-0.02815713,-0.78632268
'00:06:54.434,0.059570,0.029785,1.002441,0.365854,1.341463,-0.609756,-3.612500,20.387501,23.462500,27.748,0.61708837,-0.00797722,-0.02814342,-0.78634996
'00:06:54.444,0.061035,0.029785,1.000977,0.304878,1.341463,-0.609756,-3.481250,20.250000,23.325001,27.778,0.61706111,-0.00798509,-0.02814205,-0.78637132
'00:06:54.455,0.060547,0.029785,1.001953,0.365854,1.341463,-0.609756,-3.481250,20.250000,23.325001,27.748,0.61703127,-0.00798658,-0.02814216,-0.78639471
'00:06:54.465,0.060059,0.029297,1.002441,0.365854,1.341463,-0.609756,-3.300000,19.856251,23.181250,27.732,0.61701064,-0.00799585,-0.02814526,-0.78641069
'00:06:54.474,0.059082,0.029785,1.002441,0.365854,1.341463,-0.609756,-3.300000,19.856251,23.181250,27.717,0.61699204,-0.00799641,-0.02814651,-0.78642524
'00:06:54.484,0.061035,0.030273,1.002441,0.365854,1.341463,-0.609756,-3.306250,19.837500,23.175001,27.778,0.61697058,-0.00800618,-0.02815992,-0.78644150
'00:06:54.494,0.060059,0.030273,1.002441,0.365854,1.341463,-0.609756,-3.306250,19.837500,23.175001,27.778,0.61694917,-0.00800976,-0.02816832,-0.78645795
'00:06:54.504,0.059570,0.030762,1.002441,0.365854,1.341463,-0.609756,-3.212500,19.818750,23.181250,27.763,0.61693358,-0.00801420,-0.02818488,-0.78646955
'00:06:54.514,0.060547,0.029297,1.001953,0.365854,1.341463,-0.609756,-3.212500,19.818750,23.181250,27.748,0.61691830,-0.00803228,-0.02819681,-0.78648092
'00:06:54.524,0.060547,0.030273,1.001465,0.365854,1.280488,-0.609756,-3.450000,20.125000,23.325001,27.748,0.61689129,-0.00803604,-0.02820339,-0.78650183
'00:06:54.534,0.061035,0.029785,1.002441,0.365854,1.341463,-0.609756,-3.450000,20.125000,23.325001,27.793,0.61686461,-0.00804085,-0.02820550,-0.78652263
'00:06:54.544,0.060059,0.030273,1.002930,0.426829,1.341463,-0.609756,-3.575000,20.337500,23.431250,27.823,0.61683289,-0.00802781,-0.02820327,-0.78654772
'00:06:54.554,0.060059,0.029785,1.003418,0.365854,1.341463,-0.609756,-3.575000,20.337500,23.431250,27.808,0.61680139,-0.00802069,-0.02819378,-0.78657284
'00:06:54.564,0.061523,0.030762,1.001953,0.365854,1.280488,-0.609756,-3.331250,19.893751,23.181250,27.763,0.61677933,-0.00803429,-0.02821482,-0.78658924
'00:06:54.574,0.060059,0.030273,1.002930,0.426829,1.280488,-0.609756,-3.331250,19.893751,23.181250,27.763,0.61675748,-0.00803754,-0.02822890,-0.78660583
'00:06:54.586,0.060059,0.028809,1.002930,0.365854,1.341463,-0.548781,-3.262500,19.843750,23.181250,27.732,0.61674138,-0.00805462,-0.02823115,-0.78661820
'00:06:54.594,0.059570,0.030762,1.002930,0.365854,1.341463,-0.670732,-3.300000,19.906250,23.168751,27.748,0.61672242,-0.00805358,-0.02823913,-0.78663279
'00:06:54.604,0.059570,0.029297,1.002441,0.365854,1.341463,-0.609756,-3.300000,19.906250,23.168751,27.748,0.61670330,-0.00805997,-0.02823985,-0.78664769
'00:06:54.614,0.061035,0.030762,1.001953,0.365854,1.341463,-0.548781,-3.250000,19.793751,23.075001,27.778,0.61668993,-0.00807061,-0.02825997,-0.78665734
'00:06:54.624,0.060547,0.029785,1.002930,0.365854,1.341463,-0.609756,-3.250000,19.793751,23.075001,27.748,0.61667262,-0.00808258,-0.02827061,-0.78667040
'00:06:54.634,0.060059,0.029785,1.003418,0.365854,1.341463,-0.548781,-3.718750,20.518751,23.562500,27.763,0.61663899,-0.00806786,-0.02825198,-0.78669758
'00:06:54.645,0.060059,0.030273,1.001953,0.365854,1.341463,-0.609756,-3.718750,20.518751,23.562500,27.748,0.61659746,-0.00804973,-0.02823615,-0.78673089
'00:06:54.654,0.060059,0.029785,1.002930,0.365854,1.341463,-0.609756,-3.525000,20.281250,23.437500,27.732,0.61657174,-0.00804627,-0.02823072,-0.78675128
'00:06:54.665,0.059082,0.029785,1.002930,0.365854,1.280488,-0.609756,-3.525000,20.281250,23.437500,27.748,0.61654028,-0.00804024,-0.02822270,-0.78677628
'00:06:54.674,0.060059,0.029785,1.002930,0.426829,1.341463,-0.609756,-3.262500,19.831251,23.193750,27.748,0.61652472,-0.00804617,-0.02823453,-0.78678799
'00:06:54.684,0.060059,0.029297,1.001953,0.365854,1.341463,-0.670732,-3.262500,19.831251,23.193750,27.748,0.61650332,-0.00805851,-0.02824068,-0.78680441
'00:06:54.694,0.059570,0.029297,1.003418,0.365854,1.280488,-0.609756,-3.250000,19.831251,23.193750,27.763,0.61648686,-0.00807251,-0.02824790,-0.78681691
'00:06:54.705,0.059570,0.030273,1.003418,0.365854,1.341463,-0.548781,-3.250000,19.831251,23.193750,27.763,0.61647326,-0.00807781,-0.02825899,-0.78682711
'00:06:54.714,0.060059,0.029785,1.002930,0.304878,1.341463,-0.609756,-3.287500,19.893751,23.181250,27.793,0.61645709,-0.00808807,-0.02826188,-0.78683957
'00:06:54.724,0.059570,0.029297,1.000977,0.365854,1.341463,-0.548781,-3.287500,19.893751,23.181250,27.717,0.61644350,-0.00809607,-0.02826460,-0.78685003
'00:06:54.734,0.060547,0.030273,1.001465,0.365854,1.402439,-0.548781,-3.350000,19.993750,23.181250,27.732,0.61642724,-0.00809741,-0.02827131,-0.78686252
'00:06:54.744,0.060547,0.029785,1.002930,0.426829,1.402439,-0.609756,-3.350000,19.993750,23.181250,27.748,0.61640701,-0.00809745,-0.02827837,-0.78687811
'00:06:54.755,0.061035,0.029297,1.001953,0.426829,1.402439,-0.548781,-3.425000,20.075001,23.325001,27.778,0.61638498,-0.00809947,-0.02828020,-0.78689528
'00:06:54.764,0.060059,0.029785,1.003906,0.426829,1.402439,-0.609756,-3.425000,20.075001,23.325001,27.778,0.61636319,-0.00809303,-0.02827941,-0.78691245
'00:06:54.774,0.060059,0.029785,1.003418,0.365854,1.341463,-0.548781,-3.287500,19.875000,23.218750,27.823,0.61634933,-0.00810121,-0.02828615,-0.78692297
'00:06:54.784,0.060547,0.029297,1.003906,0.304878,1.341463,-0.609756,-3.287500,19.875000,23.218750,27.702,0.61633137,-0.00811781,-0.02828770,-0.78693681
'00:06:54.794,0.059570,0.028320,1.003418,0.426829,1.341463,-0.609756,-3.281250,19.856251,23.181250,27.808,0.61631405,-0.00812674,-0.02828703,-0.78695031
'00:06:54.804,0.060059,0.030273,1.002930,0.426829,1.341463,-0.609756,-3.281250,19.856251,23.181250,27.778,0.61629627,-0.00812889,-0.02830164,-0.78696369
'00:06:54.814,0.061035,0.030762,1.001953,0.426829,1.402439,-0.670732,-3.225000,19.800001,23.143751,27.748,0.61627731,-0.00813393,-0.02832513,-0.78697763
'00:06:54.824,0.060059,0.029785,1.001953,0.365854,1.341463,-0.609756,-3.225000,19.800001,23.143751,27.717,0.61626264,-0.00814535,-0.02833615,-0.78698861
'00:06:54.834,0.059570,0.030273,1.001953,0.365854,1.341463,-0.609756,-3.231250,19.837500,23.143751,27.763,0.61624802,-0.00815093,-0.02834777,-0.78699958
'00:06:54.844,0.060547,0.029785,1.002930,0.365854,1.341463,-0.548781,-3.606250,20.337500,23.506250,27.748,0.61621986,-0.00814483,-0.02833750,-0.78702206
'00:06:54.854,0.059570,0.028809,1.002930,0.365854,1.341463,-0.609756,-3.606250,20.337500,23.506250,27.748,0.61618789,-0.00813762,-0.02831676,-0.78704791
'00:06:54.866,0.060547,0.028809,1.002930,0.304878,1.280488,-0.609756,-3.281250,19.893751,23.168751,27.748,0.61616782,-0.00816620,-0.02832043,-0.78706320
'00:06:54.874,0.059570,0.029297,1.003906,0.365854,1.341463,-0.609756,-3.281250,19.893751,23.168751,27.763,0.61615453,-0.00817192,-0.02832182,-0.78707350
'00:06:54.884,0.059082,0.030273,1.001953,0.365854,1.341463,-0.609756,-3.262500,19.868750,23.150000,27.732,0.61613865,-0.00817251,-0.02832956,-0.78708565
'00:06:54.894,0.059082,0.029785,1.002441,0.365854,1.341463,-0.670732,-3.262500,19.868750,23.150000,27.778,0.61611874,-0.00817534,-0.02833388,-0.78710105
'00:06:54.906,0.060059,0.029297,1.003906,0.365854,1.402439,-0.670732,-3.256250,19.900000,23.187500,27.778,0.61609610,-0.00818459,-0.02833743,-0.78711854
'00:06:54.914,0.058594,0.030273,1.000977,0.304878,1.463415,-0.853659,-3.256250,19.900000,23.187500,27.732,0.61607092,-0.00817882,-0.02833429,-0.78713842
'00:06:54.924,0.051270,0.035645,1.002441,0.304878,1.524390,-1.463415,-3.456250,20.062500,23.262501,27.748,0.61598590,-0.00808103,-0.02831118,-0.78720680
'00:06:54.934,0.049805,0.037109,1.002930,0.487805,1.646341,-2.682927,-3.456250,20.062500,23.262501,27.732,0.61581781,-0.00794747,-0.02829776,-0.78734014
'00:06:54.946,0.044434,0.041504,1.001953,0.609756,1.646341,-4.207317,-3.718750,20.481251,23.518751,27.732,0.61547722,-0.00770063,-0.02827941,-0.78760953
'00:06:54.954,0.035645,0.038574,1.002930,0.426829,1.219512,-6.707317,-3.718750,20.481251,23.518751,27.778,0.61511359,-0.00753425,-0.02822948,-0.78789695
'00:06:54.964,0.035645,0.038574,1.002930,0.426829,1.219512,-6.707317,-3.456250,20.012501,23.281250,27.778,0.61467094,-0.00733749,-0.02818141,-0.78824590
'00:06:54.974,0.036621,0.047852,1.015625,0.243902,0.853659,-10.365854,-3.456250,20.012501,23.281250,27.793,0.61397538,-0.00713232,-0.02820406,-0.78878888
'00:06:54.985,0.082031,0.021973,0.996094,-0.121951,0.975610,-8.536586,-3.400000,19.825001,23.081251,27.748,0.61335793,-0.00737816,-0.02826801,-0.78926455
'00:06:54.994,0.082031,0.021973,0.996094,-0.121951,0.975610,-8.536586,-3.400000,19.825001,23.081251,27.748,0.61285355,-0.00757760,-0.02832099,-0.78965247
'00:06:55.005,0.062500,0.025879,0.998535,0.670732,1.463415,-7.621952,-3.450000,19.743750,23.118750,27.748,0.61230454,-0.00759019,-0.02833649,-0.79007758
'00:06:55.014,0.067871,0.028320,1.001953,-0.304878,0.487805,-7.073171,-3.450000,19.743750,23.118750,27.778,0.61188722,-0.00772830,-0.02837268,-0.79039819
'00:06:55.026,0.039551,0.031250,0.995605,0.670732,1.524390,-7.073171,-3.468750,19.681250,23.043751,27.732,0.61133344,-0.00752881,-0.02829072,-0.79083145
'00:06:55.034,0.039551,0.031250,0.995605,0.670732,1.524390,-7.073171,-3.468750,19.681250,23.043751,27.732,0.61096593,-0.00740047,-0.02823943,-0.79111845
'00:06:55.044,0.079102,0.021973,1.005859,0.060976,0.792683,-6.341464,-3.625000,19.862501,23.143751,27.748,0.61054965,-0.00760401,-0.02829280,-0.79143592
'00:06:55.056,0.026367,0.033203,1.003906,0.548781,1.707317,-2.804878,-3.625000,19.887501,23.112501,27.748,0.61034564,-0.00729709,-0.02811818,-0.79160238
'00:06:55.066,0.048340,0.031250,0.997070,0.000000,0.792683,-3.780488,-3.625000,19.887501,23.112501,27.763,0.61010774,-0.00728908,-0.02808759,-0.79178690
'00:06:55.074,0.048340,0.031250,0.997070,0.000000,0.792683,-3.780488,-3.625000,19.887501,23.112501,27.763,0.60991806,-0.00728355,-0.02806434,-0.79193390
'00:06:55.084,0.058105,0.020996,0.992676,1.036585,1.951220,-3.902439,-3.500000,19.681250,22.968750,27.732,0.60968423,-0.00726162,-0.02803719,-0.79211510
'00:06:55.094,0.069336,0.029297,1.006348,0.243902,0.975610,-3.231707,-3.500000,19.681250,22.968750,27.778,0.60949232,-0.00737578,-0.02810851,-0.79225919
'00:06:55.106,0.053711,0.030762,1.010742,-0.121951,0.670732,-3.780488,-3.556250,19.568750,22.906250,27.778,0.60920976,-0.00742803,-0.02809444,-0.79247649
'00:06:55.114,0.096680,0.031738,0.994629,-0.243902,0.670732,-2.743902,-3.531250,19.550001,22.881250,27.793,0.60907803,-0.00766366,-0.02824195,-0.79257026
'00:06:55.124,0.087402,0.030273,1.000488,-0.792683,-0.060976,-2.743902,-3.531250,19.550001,22.881250,27.778,0.60891192,-0.00799367,-0.02837709,-0.79268980
'00:06:55.134,0.075684,0.032715,1.004395,0.548781,1.707317,-1.890244,-3.600000,19.668751,22.893751,27.748,0.60880737,-0.00804691,-0.02846698,-0.79276634
'00:06:55.145,0.064453,0.032227,1.003418,0.914634,1.890244,-1.829268,-3.600000,19.668751,22.893751,27.702,0.60869853,-0.00800002,-0.02852265,-0.79284838
'00:06:55.154,0.073242,0.026855,1.002441,0.792683,1.829268,-1.585366,-3.756250,19.850000,23.081251,27.717,0.60861859,-0.00803481,-0.02856069,-0.79290803
'00:06:55.164,0.066406,0.028320,1.002441,0.548781,1.646341,-1.036585,-3.756250,19.850000,23.081251,27.748,0.60856709,-0.00805336,-0.02857259,-0.79294694
'00:06:55.174,0.061035,0.029297,1.002441,0.365854,1.402439,-0.853659,-3.681250,19.750000,22.912500,27.808,0.60853132,-0.00806543,-0.02857004,-0.79297436
'00:06:55.185,0.058594,0.030273,1.002930,0.365854,1.341463,-0.853659,-3.681250,19.750000,22.912500,27.748,0.60849175,-0.00806148,-0.02856469,-0.79300496
'00:06:55.194,0.059570,0.031250,1.003906,0.365854,1.341463,-1.036585,-3.581250,19.562500,22.856251,27.778,0.60845121,-0.00806330,-0.02857449,-0.79303569
'00:06:55.204,0.056152,0.031738,1.002930,0.426829,1.402439,-1.219512,-3.581250,19.562500,22.856251,27.778,0.60839382,-0.00803394,-0.02857353,-0.79308005
'00:06:55.214,0.055176,0.031250,1.002441,0.426829,1.402439,-1.463415,-3.593750,19.575001,22.825001,27.748,0.60831945,-0.00800034,-0.02856470,-0.79313775
'00:06:55.226,0.044434,0.031738,1.002930,0.609756,1.524390,-2.256098,-3.593750,19.575001,22.825001,27.748,0.60816551,-0.00785170,-0.02850298,-0.79325951
'00:06:55.234,0.040039,0.030273,0.999023,0.853659,1.890244,-2.804878,-3.787500,19.831251,23.062500,27.778,0.60802681,-0.00770032,-0.02842971,-0.79336993
'00:06:55.244,0.055176,0.030762,1.004883,0.121951,0.853659,-2.987805,-3.787500,19.831251,23.062500,27.808,0.60783845,-0.00771694,-0.02841910,-0.79351448
'00:06:55.254,0.063477,0.026855,1.000977,-0.792683,0.000000,-1.829268,-3.931250,19.975000,23.143751,27.687,0.60772175,-0.00790646,-0.02839850,-0.79360273
'00:06:55.266,0.060059,0.033691,1.009277,0.060976,0.853659,-2.378049,-3.931250,19.975000,23.143751,27.763,0.60753768,-0.00793813,-0.02841809,-0.79374263
'00:06:55.274,0.056152,0.025879,1.008789,0.304878,1.097561,-2.317073,-3.737500,19.643751,22.893751,27.808,0.60742704,-0.00795338,-0.02838883,-0.79382820
'00:06:55.284,0.050781,0.022949,0.997070,1.402439,2.317073,-1.768293,-3.737500,19.643751,22.893751,27.748,0.60733160,-0.00781463,-0.02832437,-0.79390490
'00:06:55.294,0.066895,0.040039,0.996582,0.853659,1.829268,-2.804878,-3.575000,19.425001,22.750000,27.748,0.60716651,-0.00776404,-0.02844592,-0.79402732
'00:06:55.306,0.073242,0.020020,0.985352,0.792683,2.073171,-2.865854,-3.575000,19.425001,22.750000,27.808,0.60696957,-0.00785310,-0.02845964,-0.79417651
'00:06:55.314,0.055176,0.024902,0.989258,0.365854,1.524390,-2.439024,-3.631250,19.468750,22.712500,27.823,0.60685848,-0.00785119,-0.02841951,-0.79426285
'00:06:55.324,0.055664,0.025879,0.995117,0.060976,1.036585,-2.500000,-3.631250,19.468750,22.712500,27.763,0.60671424,-0.00789607,-0.02838142,-0.79437395
'00:06:55.334,0.051270,0.030273,1.000000,0.304878,1.341463,-3.109756,-3.631250,19.518751,22.737501,27.717,0.60652902,-0.00785548,-0.02835120,-0.79451686
'00:06:55.346,0.053711,0.027832,1.005859,0.853659,1.646341,-3.841464,-3.993750,19.956251,23.000000,27.763,0.60622822,-0.00775556,-0.02831148,-0.79474880
'00:06:55.354,0.070312,0.024414,0.999023,0.365854,1.036585,-2.134146,-3.993750,19.956251,23.000000,27.778,0.60612212,-0.00784154,-0.02833161,-0.79482816
'00:06:55.364,0.058105,0.032227,1.003906,-0.670732,0.000000,-2.195122,-3.993750,19.956251,23.000000,27.778,0.60598063,-0.00796506,-0.02832919,-0.79493490
'00:06:55.374,0.062988,0.028320,1.001465,-0.304878,0.548781,-2.134146,-4.006250,19.881250,22.906250,27.748,0.60584425,-0.00807603,-0.02832101,-0.79503801
'00:06:55.386,0.081543,0.035156,1.001465,-0.304878,0.487805,-2.256098,-3.718750,19.437500,22.593750,27.748,0.60568212,-0.00831847,-0.02848297,-0.79515325
'00:06:55.394,0.072754,0.031250,1.006836,0.182927,1.219512,-2.256098,-3.718750,19.437500,22.593750,27.793,0.60557659,-0.00839011,-0.02853371,-0.79523105
'00:06:55.404,0.067383,0.028809,1.006348,0.548781,1.524390,-1.585366,-3.687500,19.387501,22.568750,27.732,0.60549441,-0.00842198,-0.02856798,-0.79529206
'00:06:55.415,0.058105,0.031250,1.003906,0.487805,1.585366,-1.585366,-3.687500,19.387501,22.568750,27.763,0.60540404,-0.00838147,-0.02856747,-0.79536130
'00:06:55.426,0.064453,0.028320,1.003418,0.426829,1.341463,-1.524390,-3.681250,19.375000,22.625000,27.778,0.60531849,-0.00842329,-0.02858997,-0.79542516
'00:06:55.434,0.056152,0.031738,1.001465,0.487805,1.524390,-1.524390,-3.681250,19.375000,22.625000,27.748,0.60525636,-0.00838680,-0.02858841,-0.79547288
'00:06:55.444,0.050293,0.033203,1.004883,0.487805,1.463415,-2.134146,-3.881250,19.600000,22.806250,27.823,0.60512636,-0.00829033,-0.02855779,-0.79557389
'00:06:55.454,0.035156,0.028809,1.003418,0.914634,1.829268,-2.682927,-3.881250,19.600000,22.806250,27.808,0.60496128,-0.00807254,-0.02843926,-0.79570590
'00:06:55.467,0.036133,0.034668,1.008301,0.060976,0.792683,-3.231707,-4.087500,19.843750,22.937500,27.808,0.60468056,-0.00790748,-0.02832266,-0.79592507
'00:06:55.474,0.061035,0.024902,1.007812,0.548781,1.463415,-3.780488,-4.087500,19.843750,22.937500,27.778,0.60450652,-0.00790829,-0.02830110,-0.79605802
'00:06:55.484,0.059570,0.034180,1.013184,0.000000,0.792683,-3.109756,-3.893750,19.568750,22.693750,27.748,0.60430951,-0.00794330,-0.02832643,-0.79620633
'00:06:55.494,0.061035,0.038086,1.000000,0.609756,1.341463,-3.536585,-3.893750,19.568750,22.693750,27.778,0.60408406,-0.00789998,-0.02840298,-0.79637511
'00:06:55.504,0.095703,0.032715,0.994629,0.426829,1.402439,-4.207317,-3.762500,19.337500,22.537500,27.778,0.60381718,-0.00808595,-0.02858627,-0.79656905
'00:06:55.514,0.088867,0.025391,1.001953,-0.060976,0.853659,-2.317073,-3.762500,19.337500,22.537500,27.717,0.60368207,-0.00833488,-0.02868754,-0.79666524
'00:06:55.524,0.076660,0.025879,1.004395,0.731707,1.646341,-1.463415,-3.768750,19.387501,22.537500,27.763,0.60360965,-0.00841778,-0.02875022,-0.79671699
'00:06:55.534,0.063965,0.029297,1.000488,0.609756,1.585366,-0.731707,-3.768750,19.387501,22.537500,27.763,0.60358757,-0.00842351,-0.02877178,-0.79673287
'00:06:55.546,0.061035,0.029785,1.001953,0.121951,1.097561,-0.548781,-4.037500,19.606251,22.787500,27.808,0.60355705,-0.00845981,-0.02875205,-0.79675633
'00:06:55.554,0.059570,0.032227,1.004395,0.426829,1.402439,-0.609756,-4.037500,19.606251,22.787500,27.808,0.60353372,-0.00843704,-0.02874909,-0.79677435
'00:06:55.564,0.059570,0.030762,1.002441,0.365854,1.402439,-0.670732,-4.075000,19.793751,22.862501,27.778,0.60350131,-0.00841927,-0.02873375,-0.79679963
'00:06:55.574,0.057617,0.032227,1.001953,0.304878,1.280488,-0.670732,-4.075000,19.793751,22.862501,27.763,0.60346841,-0.00839504,-0.02872125,-0.79682525
'00:06:55.586,0.052734,0.033203,1.002441,0.365854,1.463415,-0.914634,-3.787500,19.350000,22.506250,27.778,0.60342399,-0.00831989,-0.02869837,-0.79686051
'00:06:55.594,0.043457,0.040039,1.003906,0.182927,1.341463,-2.134146,-3.787500,19.350000,22.506250,27.763,0.60332527,-0.00820939,-0.02867803,-0.79693713
'00:06:55.605,0.022949,0.033691,1.003418,0.426829,1.158537,-3.719512,-3.800000,19.300001,22.443750,27.778,0.60306868,-0.00794491,-0.02852755,-0.79713940
'00:06:55.614,0.020996,0.029785,1.004883,0.182927,1.036585,-5.304878,-3.800000,19.300001,22.443750,27.838,0.60276137,-0.00775508,-0.02836874,-0.79737933
'00:06:55.625,0.046875,0.025391,0.996582,0.975610,1.890244,-4.939024,-3.812500,19.275000,22.412500,27.748,0.60241852,-0.00762254,-0.02829817,-0.79764218
'00:06:55.634,0.065918,0.029785,1.005859,1.707317,2.560976,-5.365854,-3.812500,19.275000,22.412500,27.808,0.60211309,-0.00752463,-0.02835968,-0.79787150
'00:06:55.644,0.076660,0.029785,1.016602,1.036585,1.829268,-3.597561,-3.787500,19.287500,22.325001,27.778,0.60189721,-0.00756829,-0.02846287,-0.79803028
'00:06:55.654,0.064941,0.019043,0.997070,-1.524390,-0.853659,-0.731707,-4.131250,19.625000,22.700001,27.732,0.60185791,-0.00790845,-0.02839580,-0.79805901
'00:06:55.664,0.101074,0.036621,1.001953,-0.853659,0.000000,-0.914634,-4.131250,19.625000,22.700001,27.763,0.60180328,-0.00825835,-0.02857974,-0.79809011
'00:06:55.674,0.090820,0.037109,1.008789,0.731707,1.890244,-1.036585,-3.987500,19.375000,22.431250,27.748,0.60175070,-0.00834029,-0.02874123,-0.79812309
'00:06:55.684,0.090820,0.037109,1.008789,0.731707,1.890244,-1.036585,-3.987500,19.375000,22.431250,27.748,0.60169784,-0.00842096,-0.02890011,-0.79815636
'00:06:55.694,0.061523,0.032715,1.005371,0.975610,2.012195,-0.731707,-3.856250,19.187500,22.293751,27.808,0.60167405,-0.00834353,-0.02892659,-0.79817415
'00:06:55.704,0.064941,0.026367,0.999512,0.365854,1.402439,-0.609756,-3.856250,19.187500,22.293751,27.748,0.60165826,-0.00839396,-0.02892128,-0.79818572
'00:06:55.714,0.061035,0.030273,1.001465,0.121951,0.975610,-0.548781,-3.925000,19.175001,22.431250,27.687,0.60163940,-0.00843948,-0.02892058,-0.79819948
'00:06:55.724,0.059082,0.032715,1.004395,0.304878,1.280488,-0.609756,-3.925000,19.175001,22.431250,27.763,0.60161666,-0.00842912,-0.02892145,-0.79821670
'00:06:55.734,0.058594,0.031738,1.002441,0.426829,1.463415,-0.609756,-3.843750,19.112501,22.306250,27.778,0.60159952,-0.00840642,-0.02891960,-0.79822992
'00:06:55.744,0.062012,0.030273,1.002441,0.365854,1.402439,-0.609756,-3.843750,19.112501,22.306250,27.732,0.60158253,-0.00841953,-0.02892360,-0.79824244
'00:06:55.754,0.061523,0.030273,1.000488,0.365854,1.280488,-0.609756,-4.287500,19.887501,22.837500,27.763,0.60154860,-0.00841922,-0.02891130,-0.79826846
'00:06:55.764,0.061035,0.031250,1.002930,0.304878,1.219512,-0.670732,-4.287500,19.887501,22.837500,27.748,0.60151016,-0.00841846,-0.02890091,-0.79829781
'00:06:55.774,0.060059,0.031738,1.001953,0.304878,1.341463,-0.609756,-4.081250,19.500000,22.518751,27.763,0.60148359,-0.00840958,-0.02889265,-0.79831822
'00:06:55.784,0.060547,0.030762,1.001953,0.426829,1.402439,-0.670732,-4.081250,19.500000,22.518751,27.808,0.60145336,-0.00839765,-0.02888623,-0.79834136
'00:06:55.794,0.060547,0.031250,1.001953,0.365854,1.341463,-0.609756,-3.868750,19.281250,22.331251,27.732,0.60143782,-0.00840248,-0.02889529,-0.79835268
'00:06:55.804,0.060547,0.031250,1.003418,0.365854,1.341463,-0.609756,-3.868750,19.281250,22.331251,27.808,0.60142233,-0.00840694,-0.02890353,-0.79836401
'00:06:55.814,0.060547,0.029785,1.004395,0.304878,1.280488,-0.609756,-3.837500,19.162500,22.293751,27.778,0.60140713,-0.00842626,-0.02890138,-0.79837533
'00:06:55.824,0.060547,0.031250,1.003418,0.304878,1.280488,-0.609756,-3.837500,19.162500,22.293751,27.778,0.60139159,-0.00843858,-0.02890893,-0.79838664
'00:06:55.834,0.059570,0.031738,1.001953,0.365854,1.280488,-0.609756,-3.818750,19.181250,22.287500,27.823,0.60137761,-0.00844102,-0.02892175,-0.79839668
'00:06:55.844,0.061035,0.030273,1.001953,0.365854,1.341463,-0.670732,-3.818750,19.181250,22.287500,27.778,0.60135985,-0.00845495,-0.02892885,-0.79840965
'00:06:55.854,0.059082,0.031250,1.000977,0.304878,1.341463,-0.670732,-4.093750,19.618750,22.618750,27.732,0.60133043,-0.00844307,-0.02891466,-0.79843245
'00:06:55.864,0.060547,0.030273,1.001465,0.365854,1.402439,-0.731707,-4.093750,19.618750,22.618750,27.732,0.60129732,-0.00843717,-0.02890244,-0.79845789
'00:06:55.875,0.061035,0.031250,1.002930,0.365854,1.341463,-0.792683,-4.281250,19.762501,22.781250,27.778,0.60124520,-0.00842255,-0.02888791,-0.79849782
'00:06:55.884,0.062988,0.029297,1.003418,0.304878,1.280488,-0.731707,-4.281250,19.762501,22.781250,27.808,0.60120678,-0.00843613,-0.02887257,-0.79852716
'00:06:55.894,0.061035,0.030762,1.003418,0.365854,1.280488,-0.670732,-3.856250,19.200001,22.368750,27.748,0.60118696,-0.00845031,-0.02888391,-0.79854151
'00:06:55.904,0.060547,0.031250,1.002441,0.365854,1.341463,-0.670732,-3.856250,19.200001,22.368750,27.793,0.60116720,-0.00845498,-0.02889315,-0.79855601
'00:06:55.914,0.060059,0.029785,1.000977,0.365854,1.341463,-0.609756,-3.862500,19.118750,22.256250,27.763,0.60115064,-0.00846247,-0.02888963,-0.79856852
'00:06:55.924,0.061035,0.031738,1.001465,0.365854,1.280488,-0.609756,-3.868750,19.187500,22.350000,27.763,0.60113394,-0.00847130,-0.02890659,-0.79858039
'00:06:55.934,0.061035,0.030273,1.002441,0.426829,1.402439,-0.609756,-3.868750,19.187500,22.350000,27.808,0.60111794,-0.00847503,-0.02891148,-0.79859221
'00:06:55.944,0.060547,0.031738,1.003906,0.365854,1.341463,-0.609756,-3.831250,19.181250,22.287500,27.838,0.60110408,-0.00847826,-0.02892461,-0.79860213
'00:06:55.954,0.060547,0.030762,1.002930,0.304878,1.341463,-0.609756,-3.831250,19.181250,22.287500,27.748,0.60109042,-0.00848950,-0.02892764,-0.79861219
'00:06:55.964,0.060059,0.030762,1.003418,0.304878,1.280488,-0.609756,-4.175000,19.662500,22.625000,27.717,0.60106161,-0.00848537,-0.02891246,-0.79863446
'00:06:55.974,0.060547,0.031250,1.004395,0.304878,1.280488,-0.609756,-4.175000,19.662500,22.625000,27.778,0.60103283,-0.00848190,-0.02890241,-0.79865653
'00:06:55.984,0.061035,0.030762,1.002930,0.365854,1.341463,-0.609756,-4.025000,19.431250,22.525000,27.793,0.60101030,-0.00848350,-0.02890115,-0.79867351
'00:06:55.994,0.060547,0.030762,1.001465,0.365854,1.341463,-0.609756,-4.025000,19.431250,22.525000,27.778,0.60098784,-0.00848252,-0.02889845,-0.79869052
'00:06:56.004,0.060547,0.031250,1.002930,0.426829,1.341463,-0.609756,-3.856250,19.250000,22.400000,27.732,0.60097370,-0.00848477,-0.02891296,-0.79870061
'00:06:56.014,0.062012,0.031250,1.001465,0.365854,1.402439,-0.609756,-3.856250,19.250000,22.400000,27.808,0.60095961,-0.00849520,-0.02892730,-0.79871058
'00:06:56.024,0.061035,0.031250,1.003418,0.426829,1.341463,-0.548781,-3.812500,19.200001,22.356251,27.763,0.60095190,-0.00850263,-0.02894611,-0.79871562
'00:06:56.035,0.060547,0.030762,1.003418,0.304878,1.341463,-0.609756,-3.812500,19.200001,22.356251,27.732,0.60093877,-0.00851677,-0.02895126,-0.79872516
'00:06:56.044,0.061035,0.031250,1.002930,0.365854,1.341463,-0.609756,-3.906250,19.187500,22.381250,27.732,0.60092207,-0.00852018,-0.02895702,-0.79873748
'00:06:56.054,0.060059,0.031738,1.003418,0.365854,1.341463,-0.548781,-3.906250,19.187500,22.381250,27.808,0.60090771,-0.00851574,-0.02896160,-0.79874817
'00:06:56.064,0.058105,0.031738,1.002930,0.304878,1.402439,-0.609756,-4.162500,19.668751,22.650000,27.763,0.60088028,-0.00848800,-0.02893834,-0.79876994
'00:06:56.074,0.057617,0.031738,1.001465,0.304878,1.402439,-0.792683,-4.162500,19.668751,22.650000,27.778,0.60084030,-0.00845776,-0.02891425,-0.79880121
'00:06:56.084,0.054199,0.032715,1.003418,0.304878,1.402439,-1.280488,-4.125000,19.587500,22.568750,27.793,0.60076766,-0.00840259,-0.02888210,-0.79885758
'00:06:56.094,0.038574,0.028809,1.003418,0.487805,1.097561,-1.768293,-4.125000,19.587500,22.568750,27.793,0.60066181,-0.00828085,-0.02878318,-0.79894202
'00:06:56.104,0.033691,0.027832,1.006348,-0.731707,-0.060976,-2.012195,-3.862500,19.168751,22.331251,27.778,0.60054697,-0.00828800,-0.02864252,-0.79903333
'00:06:56.115,0.061035,0.029297,1.000977,0.609756,1.463415,-2.439024,-3.862500,19.168751,22.331251,27.793,0.60039303,-0.00828395,-0.02866243,-0.79914833
'00:06:56.124,0.077637,0.029297,1.003906,0.548781,1.463415,-1.829268,-3.862500,19.162500,22.293751,27.778,0.60030498,-0.00837131,-0.02874001,-0.79921078
'00:06:56.134,0.085938,0.033691,1.000977,0.792683,1.829268,-1.158537,-3.862500,19.162500,22.293751,27.748,0.60025338,-0.00845610,-0.02888432,-0.79924344
'00:06:56.144,0.078613,0.030762,1.001465,0.609756,1.585366,-0.792683,-3.981250,19.250000,22.325001,27.778,0.60022125,-0.00853324,-0.02896964,-0.79926366
'00:06:56.154,0.064453,0.030762,1.002930,0.548781,1.463415,-0.609756,-3.981250,19.250000,22.325001,27.778,0.60020183,-0.00853954,-0.02899256,-0.79927735
'00:06:56.164,0.061035,0.030273,1.000977,0.304878,1.341463,-0.609756,-4.037500,19.375000,22.412500,27.763,0.60018036,-0.00854708,-0.02898452,-0.79929368
'00:06:56.174,0.059082,0.031738,1.001953,0.365854,1.341463,-0.609756,-4.237500,19.618750,22.606251,27.778,0.60014959,-0.00852313,-0.02896921,-0.79931759
'00:06:56.184,0.060059,0.030762,1.003418,0.426829,1.402439,-0.609756,-4.237500,19.618750,22.606251,27.748,0.60011943,-0.00850229,-0.02895322,-0.79934104
'00:06:56.195,0.059570,0.030762,1.004395,0.304878,1.341463,-0.609756,-3.900000,19.118750,22.256250,27.748,0.60010175,-0.00850511,-0.02894687,-0.79935451
'00:06:56.204,0.061035,0.029297,1.004883,0.365854,1.402439,-0.609756,-3.900000,19.118750,22.256250,27.763,0.60008779,-0.00851487,-0.02894045,-0.79936512
'00:06:56.214,0.062012,0.030762,1.002441,0.365854,1.341463,-0.609756,-3.943750,19.175001,22.262501,27.808,0.60006987,-0.00852712,-0.02894894,-0.79937813
'00:06:56.224,0.061035,0.031250,1.000977,0.365854,1.402439,-0.609756,-3.943750,19.175001,22.262501,27.732,0.60005201,-0.00852708,-0.02895337,-0.79939138
'00:06:56.234,0.061035,0.031738,1.000488,0.426829,1.341463,-0.609756,-3.956250,19.087500,22.231251,27.808,0.60003170,-0.00852410,-0.02896585,-0.79940620
'00:06:56.244,0.061523,0.030273,1.000000,0.365854,1.341463,-0.609756,-3.956250,19.087500,22.231251,27.808,0.60001173,-0.00853437,-0.02896727,-0.79942103
'00:06:56.254,0.061035,0.032227,1.001953,0.365854,1.341463,-0.609756,-3.943750,19.181250,22.362501,27.778,0.59999337,-0.00853411,-0.02898030,-0.79943434
'00:06:56.264,0.061523,0.030273,1.003418,0.365854,1.341463,-0.609756,-3.943750,19.181250,22.362501,27.763,0.59997551,-0.00854573,-0.02898252,-0.79944755
'00:06:56.275,0.061523,0.030762,1.004883,0.365854,1.402439,-0.609756,-4.306250,19.693750,22.743750,27.748,0.59993902,-0.00853227,-0.02896260,-0.79947579
'00:06:56.284,0.060059,0.030762,1.004883,0.365854,1.402439,-0.609756,-4.306250,19.693750,22.743750,27.763,0.59990933,-0.00851378,-0.02894083,-0.79949905
'00:06:56.294,0.059570,0.030762,1.001953,0.304878,1.341463,-0.548781,-4.012500,19.368750,22.500000,27.793,0.59989433,-0.00851345,-0.02893234,-0.79951062
'00:06:56.304,0.059082,0.030762,1.000488,0.365854,1.341463,-0.548781,-4.012500,19.368750,22.500000,27.732,0.59987944,-0.00850734,-0.02892674,-0.79952206
'00:06:56.314,0.059570,0.031738,1.001953,0.426829,1.402439,-0.548781,-3.887500,19.125000,22.293751,27.778,0.59986923,-0.00849716,-0.02893598,-0.79952949
'00:06:56.325,0.060547,0.032227,1.002930,0.365854,1.341463,-0.609756,-3.887500,19.125000,22.293751,27.808,0.59985300,-0.00849799,-0.02895273,-0.79954106
'00:06:56.334,0.061523,0.030273,1.003418,0.365854,1.341463,-0.548781,-3.906250,19.193750,22.300001,27.748,0.59984392,-0.00851189,-0.02895881,-0.79954750
'00:06:56.344,0.061035,0.029785,1.003418,0.304878,1.280488,-0.609756,-3.906250,19.193750,22.300001,27.748,0.59982950,-0.00853374,-0.02895913,-0.79955808
'00:06:56.354,0.061035,0.030762,1.003906,0.304878,1.341463,-0.609756,-3.931250,19.112501,22.293751,27.778,0.59981192,-0.00854372,-0.02895852,-0.79957118
'00:06:56.364,0.062012,0.030273,1.001953,0.304878,1.280488,-0.548781,-3.931250,19.112501,22.293751,27.778,0.59979854,-0.00856667,-0.02896349,-0.79958079
'00:06:56.374,0.061523,0.030273,1.000977,0.304878,1.219512,-0.609756,-4.131250,19.418751,22.437500,27.778,0.59977272,-0.00858110,-0.02895943,-0.79960015
'00:06:56.384,0.061035,0.030762,1.001953,0.365854,1.219512,-0.609756,-4.131250,19.418751,22.437500,27.793,0.59974691,-0.00858680,-0.02896008,-0.79961943
'00:06:56.394,0.061035,0.031250,1.002441,0.304878,1.280488,-0.609756,-4.093750,19.431250,22.406250,27.808,0.59972391,-0.00859155,-0.02895942,-0.79963665
'00:06:56.404,0.059570,0.030762,1.001953,0.365854,1.280488,-0.609756,-4.093750,19.431250,22.406250,27.763,0.59970116,-0.00858666,-0.02895366,-0.79965397
'00:06:56.414,0.061523,0.031250,1.002930,0.365854,1.341463,-0.609756,-3.931250,19.137501,22.250000,27.793,0.59968442,-0.00859406,-0.02896412,-0.79966607
'00:06:56.424,0.060547,0.030762,1.003418,0.365854,1.402439,-0.609756,-3.931250,19.137501,22.250000,27.763,0.59966800,-0.00859337,-0.02896349,-0.79967841
'00:06:56.435,0.060547,0.030762,1.003418,0.365854,1.402439,-0.609756,-3.893750,19.087500,22.293751,27.763,0.59965156,-0.00859498,-0.02896506,-0.79969066
'00:06:56.444,0.059082,0.030762,1.002441,0.426829,1.341463,-0.609756,-3.900000,19.143751,22.331251,27.763,0.59963850,-0.00858964,-0.02896780,-0.79970041
'00:06:56.454,0.060059,0.030273,1.001465,0.304878,1.341463,-0.609756,-3.900000,19.143751,22.331251,27.748,0.59962403,-0.00859874,-0.02896429,-0.79971130
'00:06:56.464,0.060547,0.030273,1.002441,0.365854,1.341463,-0.548781,-4.056250,19.418751,22.468750,27.778,0.59960804,-0.00860043,-0.02895934,-0.79972344
'00:06:56.474,0.060547,0.031250,1.001465,0.426829,1.402439,-0.609756,-4.056250,19.418751,22.468750,27.808,0.59958782,-0.00859023,-0.02896214,-0.79973861
'00:06:56.484,0.061523,0.031250,1.002441,0.426829,1.341463,-0.609756,-4.237500,19.656250,22.587500,27.808,0.59955977,-0.00858153,-0.02896224,-0.79975973
'00:06:56.494,0.062012,0.029785,1.001953,0.365854,1.341463,-0.609756,-4.237500,19.656250,22.587500,27.763,0.59953210,-0.00858593,-0.02895176,-0.79978081
'00:06:56.504,0.060547,0.030762,1.001465,0.365854,1.341463,-0.609756,-3.862500,19.106251,22.225000,27.763,0.59952016,-0.00859488,-0.02896117,-0.79978932
'00:06:56.515,0.061035,0.030762,1.000488,0.426829,1.402439,-0.548781,-3.862500,19.106251,22.225000,27.763,0.59951189,-0.00860009,-0.02897547,-0.79979495
'00:06:56.524,0.061035,0.029785,1.001953,0.365854,1.402439,-0.548781,-3.912500,19.081251,22.312500,27.793,0.59950158,-0.00860789,-0.02897263,-0.79980269
'00:06:56.534,0.060059,0.030762,1.001953,0.426829,1.402439,-0.548781,-3.912500,19.081251,22.312500,27.793,0.59949001,-0.00860267,-0.02897541,-0.79981132
'00:06:56.544,0.060547,0.031738,1.001953,0.426829,1.341463,-0.548781,-3.875000,19.168751,22.268751,27.748,0.59948231,-0.00860361,-0.02899467,-0.79981638
'00:06:56.554,0.060059,0.030762,1.002930,0.365854,1.341463,-0.670732,-3.875000,19.168751,22.268751,27.763,0.59946631,-0.00860882,-0.02900060,-0.79982811
'00:06:56.564,0.059570,0.031250,1.003418,0.365854,1.341463,-0.609756,-3.937500,19.281250,22.343750,27.793,0.59945208,-0.00860597,-0.02900389,-0.79983868
'00:06:56.574,0.059570,0.029785,1.002441,0.365854,1.341463,-0.609756,-3.937500,19.281250,22.343750,27.763,0.59943823,-0.00861029,-0.02899849,-0.79984921
'00:06:56.584,0.060547,0.031250,1.002441,0.365854,1.280488,-0.609756,-4.112500,19.468750,22.543751,27.717,0.59941511,-0.00860900,-0.02899918,-0.79986653
'00:06:56.594,0.061035,0.031250,1.003418,0.243902,1.280488,-0.609756,-4.112500,19.468750,22.543751,27.808,0.59939197,-0.00861691,-0.02899321,-0.79988399
'00:06:56.604,0.061523,0.030273,1.001953,0.365854,1.280488,-0.609756,-4.087500,19.431250,22.437500,27.778,0.59937053,-0.00862714,-0.02899433,-0.79989991
'00:06:56.614,0.060547,0.031250,1.001953,0.365854,1.402439,-0.609756,-4.087500,19.431250,22.437500,27.763,0.59934924,-0.00861839,-0.02899068,-0.79991609
'00:06:56.624,0.059570,0.030762,1.000488,0.365854,1.463415,-0.731707,-3.875000,19.037500,22.293751,27.808,0.59932724,-0.00861129,-0.02898708,-0.79993278
'00:06:56.635,0.057129,0.031738,1.002441,0.365854,1.585366,-0.975610,-3.875000,19.037500,22.293751,27.808,0.59928462,-0.00857144,-0.02896971,-0.79996577
'00:06:56.644,0.058594,0.033203,1.000977,0.426829,1.585366,-1.341463,-3.900000,19.150000,22.262501,27.808,0.59922712,-0.00853778,-0.02897538,-0.80000900
'00:06:56.654,0.051270,0.034180,1.002441,0.609756,1.707317,-2.073171,-3.900000,19.150000,22.262501,27.793,0.59911286,-0.00843069,-0.02896002,-0.80009626
'00:06:56.664,0.036133,0.029297,0.999023,1.463415,2.134146,-2.439024,-3.868750,19.081251,22.256250,27.778,0.59897759,-0.00817865,-0.02888182,-0.80020298
'00:06:56.674,0.013184,0.027832,1.004395,3.048780,4.268293,-4.024390,-3.868750,19.081251,22.256250,27.778,0.59873897,-0.00755809,-0.02868832,-0.80039459
'00:06:56.684,0.029297,0.028809,0.984863,-1.036585,-0.060976,-3.170732,-4.231250,19.568750,22.500000,27.808,0.59853269,-0.00755249,-0.02851315,-0.80055517
'00:06:56.694,0.072266,0.039062,0.993164,-4.512195,-4.451220,-1.951220,-4.231250,19.568750,22.500000,27.793,0.59839667,-0.00825237,-0.02858298,-0.80064745
'00:06:56.705,0.088867,0.025391,1.008301,0.670732,0.914634,-3.597561,-4.200000,19.462500,22.431250,27.808,0.59814114,-0.00845647,-0.02872724,-0.80083107
'00:06:56.715,0.082031,0.022461,1.003906,2.500000,3.231707,-2.865854,-3.925000,19.018751,22.118750,27.823,0.59797860,-0.00837804,-0.02883448,-0.80094942
'00:06:56.724,0.083496,0.028809,0.998047,1.219512,2.317073,-1.280488,-3.925000,19.018751,22.118750,27.732,0.59792807,-0.00841355,-0.02893377,-0.80098319
'00:06:56.734,0.076172,0.034180,1.000488,0.182927,1.280488,-1.097561,-3.937500,19.081251,22.100000,27.778,0.59788088,-0.00851380,-0.02902456,-0.80101408
'00:06:56.744,0.065430,0.035156,1.005371,0.365854,1.402439,-0.914634,-3.937500,19.081251,22.100000,27.748,0.59784703,-0.00852695,-0.02907707,-0.80103729
'00:06:56.756,0.065430,0.031250,1.002930,0.426829,1.524390,-0.731707,-3.925000,19.006250,22.100000,27.793,0.59782260,-0.00855162,-0.02910853,-0.80105412
'00:06:56.764,0.062500,0.029297,1.003906,0.365854,1.402439,-0.670732,-3.925000,19.006250,22.100000,27.793,0.59780987,-0.00857028,-0.02910998,-0.80106337
'00:06:56.774,0.062012,0.030762,1.005371,0.365854,1.341463,-0.609756,-4.162500,19.343750,22.331251,27.808,0.59778747,-0.00857611,-0.02910804,-0.80108009
'00:06:56.784,0.061035,0.032227,1.002441,0.365854,1.341463,-0.609756,-4.162500,19.343750,22.331251,27.763,0.59776478,-0.00857005,-0.02911215,-0.80109694
'00:06:56.797,0.059570,0.031738,1.000977,0.426829,1.341463,-0.609756,-4.268750,19.500000,22.487501,27.808,0.59772974,-0.00854421,-0.02910417,-0.80112365
'00:06:56.804,0.059082,0.031738,1.000488,0.304878,1.280488,-0.548781,-4.268750,19.500000,22.487501,27.793,0.59771380,-0.00853625,-0.02909494,-0.80113596
'00:06:56.814,0.059570,0.031738,1.001953,0.365854,1.280488,-0.609756,-3.962500,19.081251,22.237501,27.793,0.59770011,-0.00853878,-0.02910457,-0.80114580
'00:06:56.824,0.059570,0.031250,1.002441,0.365854,1.341463,-0.609756,-3.962500,19.081251,22.237501,27.823,0.59768672,-0.00853922,-0.02910760,-0.80115567
'00:06:56.835,0.060547,0.029785,1.004883,0.365854,1.280488,-0.609756,-3.931250,19.018751,22.150000,27.778,0.59767364,-0.00855926,-0.02910971,-0.80116514
'00:06:56.844,0.061035,0.030762,1.003906,0.426829,1.341463,-0.609756,-3.931250,19.018751,22.150000,27.778,0.59766287,-0.00856745,-0.02912032,-0.80117270
'00:06:56.854,0.059570,0.030762,1.001953,0.365854,1.402439,-0.609756,-3.975000,19.043751,22.043751,27.778,0.59764900,-0.00856394,-0.02911586,-0.80118325
'00:06:56.864,0.061523,0.031738,1.001465,0.365854,1.341463,-0.609756,-3.975000,19.043751,22.043751,27.778,0.59763474,-0.00857219,-0.02912994,-0.80119329
'00:06:56.875,0.062500,0.030762,1.000977,0.304878,1.402439,-0.609756,-3.900000,19.087500,22.143751,27.808,0.59762533,-0.00859800,-0.02914299,-0.80119955
'00:06:56.884,0.061035,0.031250,1.001465,0.365854,1.280488,-0.548781,-3.900000,19.087500,22.143751,27.748,0.59762115,-0.00861352,-0.02915945,-0.80120191
'00:06:56.894,0.060547,0.029297,1.001953,0.304878,1.341463,-0.609756,-4.200000,19.525000,22.443750,27.778,0.59759991,-0.00862094,-0.02913939,-0.80121840
'00:06:56.904,0.060059,0.031250,1.003418,0.426829,1.341463,-0.548781,-4.200000,19.525000,22.443750,27.778,0.59758269,-0.00861000,-0.02913728,-0.80123143
'00:06:56.915,0.060547,0.031250,1.001953,0.365854,1.341463,-0.609756,-4.018750,19.200001,22.218750,27.808,0.59756647,-0.00861348,-0.02914304,-0.80124328
'00:06:56.924,0.060059,0.032227,1.002930,0.365854,1.402439,-0.670732,-4.018750,19.200001,22.218750,27.853,0.59754935,-0.00860539,-0.02914793,-0.80125596
'00:06:56.934,0.060547,0.030273,1.001953,0.365854,1.402439,-0.609756,-3.950000,19.031250,22.206251,27.808,0.59753661,-0.00861173,-0.02914612,-0.80126546
'00:06:56.944,0.059570,0.030762,1.001465,0.365854,1.341463,-0.548781,-3.950000,19.031250,22.206251,27.778,0.59752792,-0.00861426,-0.02914629,-0.80127191
'00:06:56.955,0.061035,0.031250,1.002441,0.365854,1.341463,-0.609756,-3.918750,19.031250,22.100000,27.808,0.59751628,-0.00862598,-0.02915995,-0.80127996
'00:06:56.964,0.061523,0.031738,1.002441,0.365854,1.341463,-0.609756,-3.918750,19.031250,22.100000,27.778,0.59750662,-0.00863601,-0.02917568,-0.80128649
'00:06:56.974,0.060547,0.031250,1.002441,0.365854,1.219512,-0.609756,-3.912500,18.968750,22.100000,27.793,0.59749499,-0.00865158,-0.02919099,-0.80129444
'00:06:56.984,0.061035,0.031738,1.002930,0.304878,1.280488,-0.609756,-4.168750,19.443750,22.450001,27.763,0.59747381,-0.00865563,-0.02919142,-0.80131017
'00:06:56.996,0.060059,0.032715,1.001953,0.365854,1.341463,-0.609756,-4.168750,19.443750,22.450001,27.702,0.59744845,-0.00863938,-0.02919577,-0.80132909
'00:06:57.004,0.061523,0.032227,1.000977,0.365854,1.402439,-0.609756,-4.125000,19.356251,22.318750,27.808,0.59743319,-0.00863567,-0.02920107,-0.80134032
'00:06:57.014,0.059570,0.030762,1.002441,0.426829,1.402439,-0.609756,-4.125000,19.356251,22.318750,27.763,0.59741462,-0.00862264,-0.02919341,-0.80135458
'00:06:57.024,0.060059,0.030762,1.001465,0.365854,1.402439,-0.609756,-3.968750,19.062500,22.112501,27.778,0.59740178,-0.00862275,-0.02919160,-0.80136422
'00:06:57.037,0.061035,0.031738,1.001953,0.304878,1.280488,-0.548781,-3.968750,19.062500,22.112501,27.763,0.59738988,-0.00864001,-0.02920544,-0.80137240
'00:06:57.044,0.060059,0.031738,1.001465,0.365854,1.280488,-0.548781,-3.918750,19.025000,22.125000,27.778,0.59738533,-0.00864487,-0.02921510,-0.80137539
'00:06:57.054,0.059570,0.030273,1.004395,0.365854,1.341463,-0.548781,-3.918750,19.025000,22.125000,27.778,0.59737937,-0.00865072,-0.02921272,-0.80137985
'00:06:57.064,0.061523,0.030762,1.002441,0.365854,1.341463,-0.670732,-3.968750,19.062500,22.081251,27.793,0.59736221,-0.00866312,-0.02922017,-0.80139224
'00:06:57.074,0.059082,0.031738,1.001953,0.365854,1.341463,-0.609756,-3.968750,19.062500,22.081251,27.748,0.59734918,-0.00865623,-0.02922262,-0.80140194
'00:06:57.084,0.059570,0.031738,1.000977,0.426829,1.341463,-0.670732,-4.293750,19.625000,22.443750,27.808,0.59731974,-0.00863580,-0.02921663,-0.80142432
'00:06:57.094,0.059570,0.030762,1.000977,0.365854,1.341463,-0.609756,-4.293750,19.625000,22.443750,27.793,0.59729489,-0.00862357,-0.02920068,-0.80144355
'00:06:57.104,0.060547,0.031250,1.003418,0.365854,1.402439,-0.609756,-4.137500,19.375000,22.306250,27.778,0.59727619,-0.00861720,-0.02919570,-0.80145774
'00:06:57.116,0.061523,0.030762,1.002441,0.365854,1.341463,-0.609756,-4.137500,19.375000,22.306250,27.732,0.59725377,-0.00862483,-0.02919597,-0.80147435
'00:06:57.124,0.060059,0.029785,1.003418,0.365854,1.280488,-0.609756,-3.981250,19.100000,22.168751,27.823,0.59724357,-0.00863522,-0.02919412,-0.80148191
'00:06:57.134,0.060059,0.030273,1.003418,0.304878,1.341463,-0.548781,-3.981250,19.100000,22.168751,27.808,0.59723509,-0.00864487,-0.02918742,-0.80148837
'00:06:57.144,0.060059,0.030762,1.002930,0.365854,1.280488,-0.548781,-3.937500,19.075001,22.125000,27.778,0.59722904,-0.00865587,-0.02919476,-0.80149250
'00:06:57.156,0.060059,0.031250,1.000977,0.365854,1.341463,-0.609756,-3.937500,19.075001,22.125000,27.823,0.59721666,-0.00866132,-0.02920441,-0.80150130
'00:06:57.164,0.061035,0.032227,1.000977,0.365854,1.402439,-0.609756,-3.912500,19.043751,22.100000,27.763,0.59720929,-0.00866361,-0.02921789,-0.80150629
'00:06:57.174,0.061035,0.032227,1.000977,0.365854,1.402439,-0.609756,-3.912500,19.043751,22.100000,27.763,0.59720006,-0.00866643,-0.02923449,-0.80151253
'00:06:57.184,0.060547,0.031738,1.001953,0.365854,1.341463,-0.609756,-3.906250,19.006250,22.131250,27.778,0.59719042,-0.00867265,-0.02924796,-0.80151914
'00:06:57.196,0.060547,0.030762,1.003906,0.365854,1.341463,-0.609756,-3.906250,19.006250,22.131250,27.748,0.59717916,-0.00868497,-0.02925537,-0.80152713
'00:06:57.204,0.060547,0.029785,1.004395,0.365854,1.341463,-0.548781,-4.368750,19.625000,22.581251,27.808,0.59715894,-0.00867904,-0.02923497,-0.80154301
'00:06:57.214,0.061035,0.030273,1.004395,0.304878,1.280488,-0.609756,-4.368750,19.625000,22.581251,27.748,0.59712919,-0.00867980,-0.02921402,-0.80156592
'00:06:57.224,0.060547,0.031250,1.003418,0.304878,1.280488,-0.548781,-3.962500,19.031250,22.131250,27.763,0.59712068,-0.00869211,-0.02921905,-0.80157195
'00:06:57.236,0.061035,0.030762,1.002930,0.365854,1.341463,-0.548781,-3.881250,19.006250,22.025000,27.793,0.59711731,-0.00871012,-0.02923334,-0.80157374
'00:06:57.244,0.059570,0.032227,1.000488,0.365854,1.341463,-0.609756,-3.881250,19.006250,22.025000,27.748,0.59711136,-0.00870951,-0.02924558,-0.80157773
'00:06:57.254,0.059570,0.031738,1.000977,0.365854,1.341463,-0.548781,-3.925000,19.012501,22.156250,27.823,0.59710495,-0.00870850,-0.02925351,-0.80158223
'00:06:57.264,0.061035,0.030762,1.002930,0.365854,1.402439,-0.548781,-3.925000,19.012501,22.156250,27.823,0.59709890,-0.00871638,-0.02925783,-0.80158649
'00:06:57.276,0.061035,0.030762,1.002930,0.304878,1.280488,-0.548781,-3.943750,19.062500,22.112501,27.763,0.59709101,-0.00873871,-0.02926489,-0.80159187
'00:06:57.284,0.060547,0.031738,1.003906,0.304878,1.280488,-0.548781,-3.943750,19.062500,22.112501,27.793,0.59708555,-0.00874711,-0.02927220,-0.80159558
'00:06:57.294,0.060547,0.030273,1.003906,0.365854,1.402439,-0.548781,-4.212500,19.450001,22.356251,27.808,0.59706798,-0.00873988,-0.02925571,-0.80160935
'00:06:57.304,0.060547,0.031738,1.003418,0.426829,1.402439,-0.548781,-4.212500,19.450001,22.356251,27.748,0.59705021,-0.00872314,-0.02925301,-0.80162286
'00:06:57.316,0.060059,0.030762,1.001465,0.304878,1.341463,-0.548781,-4.275000,19.493750,22.450001,27.778,0.59702474,-0.00871467,-0.02922975,-0.80164277
'00:06:57.324,0.060059,0.030762,1.000977,0.426829,1.402439,-0.609756,-4.275000,19.493750,22.450001,27.838,0.59700465,-0.00870071,-0.02921916,-0.80165827
'00:06:57.334,0.060547,0.031738,1.000977,0.365854,1.402439,-0.548781,-3.956250,19.118750,22.131250,27.778,0.59699874,-0.00870104,-0.02922889,-0.80166232
'00:06:57.344,0.060059,0.031738,1.000977,0.365854,1.341463,-0.548781,-3.956250,19.118750,22.131250,27.778,0.59699269,-0.00870266,-0.02923939,-0.80166642
'00:06:57.356,0.060059,0.031738,1.002441,0.365854,1.341463,-0.609756,-4.050000,19.200001,22.262501,27.732,0.59697404,-0.00869799,-0.02924341,-0.80168021
'00:06:57.364,0.060059,0.031250,1.004395,0.304878,1.341463,-0.609756,-4.050000,19.200001,22.262501,27.778,0.59696173,-0.00869900,-0.02923952,-0.80168951
'00:06:57.374,0.061523,0.031250,1.003906,0.426829,1.341463,-0.609756,-3.956250,19.075001,22.125000,27.778,0.59695088,-0.00870745,-0.02925570,-0.80169691
'00:06:57.384,0.060547,0.030762,1.002441,0.365854,1.341463,-0.609756,-3.956250,19.075001,22.125000,27.778,0.59694011,-0.00871562,-0.02926053,-0.80170466
'00:06:57.395,0.059570,0.030762,1.001465,0.304878,1.341463,-0.609756,-4.225000,19.512501,22.475000,27.748,0.59691624,-0.00870873,-0.02924174,-0.80172320
'00:06:57.404,0.060059,0.031250,1.001465,0.365854,1.341463,-0.609756,-4.225000,19.512501,22.475000,27.838,0.59689675,-0.00870108,-0.02923528,-0.80173803
'00:06:57.414,0.060059,0.031250,1.000977,0.426829,1.341463,-0.609756,-4.237500,19.525000,22.493750,27.808,0.59687459,-0.00868911,-0.02923202,-0.80175477
'00:06:57.424,0.060547,0.030762,1.002441,0.365854,1.341463,-0.609756,-4.237500,19.525000,22.493750,27.793,0.59685260,-0.00868543,-0.02922320,-0.80177150
'00:06:57.436,0.059570,0.030273,1.003418,0.304878,1.280488,-0.609756,-3.931250,19.037500,22.125000,27.778,0.59684134,-0.00870197,-0.02922088,-0.80177979
'00:06:57.444,0.061035,0.031738,1.002441,0.304878,1.219512,-0.609756,-3.931250,19.037500,22.125000,27.748,0.59683337,-0.00871805,-0.02923501,-0.80178504
'00:06:57.454,0.061035,0.031250,1.003418,0.365854,1.280488,-0.609756,-3.912500,19.087500,22.143751,27.748,0.59682581,-0.00873438,-0.02925245,-0.80178985
'00:06:57.464,0.060547,0.032227,1.001465,0.365854,1.341463,-0.609756,-3.912500,19.087500,22.143751,27.778,0.59681812,-0.00873902,-0.02927121,-0.80179483
'00:06:57.476,0.059570,0.031250,1.002441,0.487805,1.402439,-0.548781,-3.912500,19.031250,22.150000,27.793,0.59681337,-0.00872927,-0.02928504,-0.80179797
'00:06:57.484,0.060547,0.031250,1.000977,0.426829,1.402439,-0.609756,-3.912500,19.031250,22.150000,27.778,0.59680671,-0.00873036,-0.02929487,-0.80180256
'00:06:57.494,0.060547,0.030762,1.001953,0.365854,1.341463,-0.609756,-3.918750,19.081251,22.118750,27.778,0.59679894,-0.00874127,-0.02930291,-0.80180793
'00:06:57.504,0.061035,0.030762,1.002930,0.304878,1.280488,-0.548781,-4.000000,19.137501,22.168751,27.793,0.59679061,-0.00875759,-0.02930580,-0.80181384
'00:06:57.514,0.060547,0.031738,1.002930,0.304878,1.280488,-0.548781,-4.000000,19.137501,22.168751,27.778,0.59678206,-0.00876616,-0.02931248,-0.80181987
'00:06:57.524,0.060059,0.031250,1.003906,0.243902,1.280488,-0.609756,-3.950000,19.131250,22.193750,27.778,0.59677246,-0.00878003,-0.02931301,-0.80182685
'00:06:57.534,0.062012,0.031250,1.000488,0.304878,1.280488,-0.609756,-3.950000,19.131250,22.193750,27.793,0.59676279,-0.00880316,-0.02932834,-0.80183323
'00:06:57.544,0.060547,0.030762,1.002441,0.365854,1.341463,-0.609756,-3.918750,19.000000,22.137501,27.793,0.59675337,-0.00881192,-0.02933389,-0.80183994
'00:06:57.554,0.060059,0.030762,1.000977,0.487805,1.402439,-0.609756,-3.918750,19.000000,22.137501,27.778,0.59674422,-0.00880728,-0.02934315,-0.80184646
'00:06:57.564,0.060547,0.031250,1.001953,0.365854,1.341463,-0.609756,-3.950000,19.068750,22.225000,27.793,0.59673354,-0.00881268,-0.02935036,-0.80185409
'00:06:57.574,0.061035,0.029785,1.003418,0.365854,1.341463,-0.609756,-3.950000,19.068750,22.225000,27.778,0.59672321,-0.00882752,-0.02934982,-0.80186163
'00:06:57.584,0.060547,0.030762,1.003906,0.365854,1.341463,-0.609756,-3.962500,19.056250,22.118750,27.732,0.59671202,-0.00883324,-0.02935195,-0.80186981
'00:06:57.596,0.059570,0.030762,1.002930,0.426829,1.341463,-0.548781,-3.962500,19.056250,22.118750,27.763,0.59670383,-0.00882952,-0.02935473,-0.80187585
'00:06:57.604,0.061035,0.031250,1.001465,0.365854,1.341463,-0.609756,-4.156250,19.318750,22.268751,27.808,0.59668800,-0.00882756,-0.02935296,-0.80188772
'00:06:57.614,0.060547,0.031250,1.001465,0.365854,1.341463,-0.609756,-4.156250,19.318750,22.268751,27.808,0.59666828,-0.00882227,-0.02934863,-0.80190261
'00:06:57.624,0.060059,0.031738,1.002441,0.365854,1.402439,-0.609756,-4.168750,19.268751,22.312500,27.793,0.59664681,-0.00880618,-0.02933950,-0.80191909
'00:06:57.636,0.060547,0.031738,1.001953,0.365854,1.402439,-0.609756,-4.168750,19.268751,22.312500,27.687,0.59662118,-0.00879098,-0.02933182,-0.80193861
'00:06:57.645,0.061035,0.031250,1.001465,0.365854,1.402439,-0.609756,-3.950000,19.131250,22.150000,27.778,0.59661339,-0.00879591,-0.02933959,-0.80194406
'00:06:57.654,0.059570,0.031250,1.002930,0.365854,1.402439,-0.609756,-3.950000,19.131250,22.150000,27.748,0.59660568,-0.00879245,-0.02934059,-0.80194981
'00:06:57.664,0.061523,0.030762,1.002441,0.365854,1.341463,-0.548781,-3.925000,19.043751,22.100000,27.748,0.59660153,-0.00880799,-0.02935141,-0.80195232
'00:06:57.677,0.060547,0.030273,1.004883,0.243902,1.219512,-0.609756,-3.925000,19.043751,22.100000,27.778,0.59659027,-0.00884147,-0.02935114,-0.80196034
'00:06:57.684,0.060547,0.030273,1.001953,0.365854,1.219512,-0.548781,-3.943750,19.068750,22.206251,27.778,0.59658635,-0.00885476,-0.02935695,-0.80196290
'00:06:57.694,0.060547,0.030762,1.002441,0.365854,1.280488,-0.548781,-3.943750,19.068750,22.206251,27.823,0.59658078,-0.00886684,-0.02936479,-0.80196662
'00:06:57.704,0.060059,0.031250,1.001953,0.426829,1.341463,-0.609756,-4.300000,19.531250,22.437500,27.808,0.59655542,-0.00884876,-0.02935504,-0.80198605
'00:06:57.717,0.061035,0.031250,1.001465,0.365854,1.402439,-0.609756,-4.300000,19.531250,22.437500,27.823,0.59652274,-0.00883208,-0.02933908,-0.80201112
'00:06:57.724,0.060547,0.031738,1.002441,0.426829,1.402439,-0.609756,-4.193750,19.350000,22.325001,27.793,0.59650794,-0.00882048,-0.02933746,-0.80202231
'00:06:57.734,0.060547,0.031250,1.001953,0.365854,1.341463,-0.609756,-4.193750,19.350000,22.325001,27.808,0.59648679,-0.00881392,-0.02933140,-0.80203833
'00:06:57.744,0.060547,0.031250,1.001953,0.304878,1.402439,-0.609756,-3.912500,19.018751,22.087500,27.793,0.59647921,-0.00882070,-0.02933480,-0.80204377
'00:06:57.754,0.061035,0.030762,1.001953,0.365854,1.341463,-0.609756,-3.912500,19.018751,22.087500,27.778,0.59647162,-0.00883374,-0.02934477,-0.80204891
'00:06:57.764,0.060547,0.030273,1.003418,0.426829,1.402439,-0.609756,-3.956250,19.012501,22.062500,27.778,0.59646140,-0.00883499,-0.02934600,-0.80205645
'00:06:57.774,0.061035,0.030273,1.002930,0.304878,1.280488,-0.609756,-3.937500,19.037500,22.156250,27.748,0.59645213,-0.00885600,-0.02934931,-0.80206299
'00:06:57.784,0.060547,0.031250,1.002441,0.365854,1.219512,-0.609756,-3.937500,19.037500,22.156250,27.793,0.59644252,-0.00887032,-0.02936411,-0.80206944
'00:06:57.794,0.060547,0.031738,1.001465,0.426829,1.402439,-0.609756,-4.175000,19.431250,22.343750,27.793,0.59642413,-0.00885570,-0.02936508,-0.80208324
'00:06:57.804,0.061035,0.030762,1.002930,0.426829,1.402439,-0.609756,-4.175000,19.431250,22.343750,27.778,0.59640606,-0.00884844,-0.02936167,-0.80209688
'00:06:57.814,0.060059,0.031250,1.002441,0.426829,1.463415,-0.609756,-4.143750,19.293751,22.393751,27.793,0.59638745,-0.00882964,-0.02935358,-0.80211123
'00:06:57.824,0.060547,0.030762,1.002441,0.426829,1.402439,-0.609756,-4.143750,19.293751,22.393751,27.763,0.59636890,-0.00882072,-0.02934813,-0.80212531
'00:06:57.834,0.061523,0.030273,1.002930,0.365854,1.341463,-0.609756,-3.975000,19.162500,22.187500,27.808,0.59635981,-0.00883672,-0.02935445,-0.80213166
'00:06:57.844,0.061035,0.030273,1.002930,0.365854,1.219512,-0.548781,-3.975000,19.162500,22.187500,27.778,0.59635468,-0.00885819,-0.02936472,-0.80213487
'00:06:57.854,0.061035,0.030273,1.002930,0.365854,1.280488,-0.609756,-3.962500,19.137501,22.156250,27.808,0.59634589,-0.00887536,-0.02937226,-0.80214094
'00:06:57.864,0.061523,0.031250,1.002441,0.365854,1.280488,-0.548781,-3.962500,19.137501,22.156250,27.778,0.59634108,-0.00889093,-0.02938815,-0.80214376
'00:06:57.874,0.061035,0.032227,1.001465,0.426829,1.402439,-0.609756,-3.925000,19.006250,22.131250,27.793,0.59633229,-0.00888805,-0.02940665,-0.80214965
'00:06:57.884,0.060547,0.030762,1.000977,0.426829,1.402439,-0.609756,-3.925000,19.006250,22.131250,27.717,0.59632386,-0.00888921,-0.02941362,-0.80215564
'00:06:57.894,0.060059,0.031250,1.003906,0.365854,1.341463,-0.609756,-4.006250,19.187500,22.218750,27.808,0.59631275,-0.00888867,-0.02941558,-0.80216384
'00:06:57.904,0.060059,0.031250,1.003906,0.304878,1.280488,-0.609756,-4.006250,19.187500,22.218750,27.793,0.59630146,-0.00889562,-0.02941645,-0.80217212
'00:06:57.914,0.060547,0.030762,1.002930,0.304878,1.219512,-0.548781,-4.062500,19.212500,22.231251,27.763,0.59629108,-0.00890894,-0.02941604,-0.80217971
'00:06:57.924,0.060059,0.031250,1.004395,0.365854,1.280488,-0.609756,-4.062500,19.212500,22.231251,27.808,0.59627655,-0.00890894,-0.02941691,-0.80219047
'00:06:57.934,0.060059,0.031250,1.004395,0.365854,1.280488,-0.609756,-4.075000,19.225000,22.250000,27.808,0.59626141,-0.00890835,-0.02941701,-0.80220173
'00:06:57.944,0.061035,0.031250,1.002441,0.365854,1.341463,-0.609756,-4.075000,19.225000,22.250000,27.778,0.59624643,-0.00890990,-0.02941935,-0.80221276
'00:06:57.954,0.061035,0.030762,1.001465,0.426829,1.402439,-0.609756,-3.918750,19.050001,22.156250,27.748,0.59623933,-0.00891481,-0.02942971,-0.80221760
'00:06:57.964,0.061035,0.031250,1.001465,0.426829,1.402439,-0.609756,-3.918750,19.050001,22.156250,27.793,0.59623211,-0.00891735,-0.02944296,-0.80222245
'00:06:57.974,0.061035,0.030762,1.003418,0.304878,1.280488,-0.609756,-3.943750,19.043751,22.131250,27.763,0.59622292,-0.00893472,-0.02944767,-0.80222892
'00:06:57.984,0.061035,0.031250,1.001465,0.304878,1.280488,-0.548781,-3.943750,19.043751,22.131250,27.793,0.59621783,-0.00895013,-0.02945624,-0.80223221
'00:06:57.994,0.060059,0.031738,1.001465,0.365854,1.341463,-0.548781,-3.906250,18.975000,22.112501,27.793,0.59621417,-0.00895127,-0.02946610,-0.80223456
'00:06:58.004,0.061035,0.030762,1.001953,0.365854,1.402439,-0.609756,-3.906250,18.975000,22.112501,27.778,0.59620658,-0.00895845,-0.02947077,-0.80223995
'00:06:58.014,0.060547,0.031738,1.003906,0.365854,1.341463,-0.609756,-4.337500,19.575001,22.475000,27.808,0.59618017,-0.00894161,-0.02945819,-0.80226023
'00:06:58.024,0.059082,0.029785,1.001953,0.426829,1.402439,-0.548781,-4.337500,19.575001,22.475000,27.778,0.59615882,-0.00891840,-0.02942952,-0.80227740
'00:06:58.034,0.060059,0.031250,1.001953,0.365854,1.280488,-0.609756,-4.275000,19.618750,22.468750,27.778,0.59613743,-0.00891082,-0.02942257,-0.80229363
'00:06:58.044,0.061035,0.030762,1.003418,0.304878,1.280488,-0.548781,-3.956250,19.056250,22.118750,27.808,0.59613231,-0.00892809,-0.02942725,-0.80229708
'00:06:58.054,0.060547,0.030762,1.003906,0.243902,1.280488,-0.609756,-3.956250,19.056250,22.118750,27.778,0.59612286,-0.00894501,-0.02942514,-0.80230398
'00:06:58.064,0.060059,0.030762,1.003418,0.304878,1.219512,-0.609756,-3.943750,19.037500,22.137501,27.778,0.59611374,-0.00896056,-0.02942909,-0.80231044
'00:06:58.074,0.061523,0.030762,1.001953,0.426829,1.341463,-0.670732,-3.943750,19.037500,22.137501,27.763,0.59610068,-0.00897013,-0.02944262,-0.80231954
'00:06:58.084,0.060059,0.032227,1.001465,0.426829,1.463415,-0.548781,-4.000000,19.100000,22.143751,27.793,0.59609353,-0.00895261,-0.02944880,-0.80232482
'00:06:58.094,0.059570,0.031250,1.002930,0.426829,1.463415,-0.548781,-4.000000,19.100000,22.143751,27.763,0.59608669,-0.00893666,-0.02944591,-0.80233019
'00:06:58.104,0.062012,0.030273,1.001953,0.365854,1.341463,-0.609756,-4.175000,19.350000,22.381250,27.808,0.59606764,-0.00894394,-0.02944113,-0.80234444
'00:06:58.114,0.060059,0.031250,1.001465,0.365854,1.341463,-0.609756,-4.175000,19.350000,22.381250,27.763,0.59604846,-0.00893505,-0.02943391,-0.80235905
'00:06:58.125,0.061035,0.031250,1.002441,0.365854,1.341463,-0.609756,-4.187500,19.393751,22.393751,27.778,0.59602739,-0.00893147,-0.02943042,-0.80237487
'00:06:58.134,0.062012,0.031738,1.004395,0.304878,1.280488,-0.609756,-4.187500,19.393751,22.393751,27.808,0.59600993,-0.00893823,-0.02943254,-0.80238768
'00:06:58.144,0.061035,0.030273,1.002930,0.365854,1.341463,-0.609756,-3.893750,19.043751,22.181250,27.838,0.59600493,-0.00895456,-0.02944051,-0.80239092
'00:06:58.154,0.060059,0.031738,1.001465,0.487805,1.402439,-0.548781,-3.893750,19.043751,22.181250,27.793,0.59600409,-0.00894760,-0.02945909,-0.80239094
'00:06:58.164,0.060059,0.031250,1.000977,0.426829,1.402439,-0.609756,-3.912500,19.025000,22.112501,27.778,0.59599769,-0.00894450,-0.02946849,-0.80239539
'00:06:58.174,0.060547,0.031250,1.001953,0.365854,1.341463,-0.609756,-3.912500,19.025000,22.112501,27.778,0.59599108,-0.00895166,-0.02947844,-0.80239985
'00:06:58.184,0.059082,0.030273,1.003418,0.365854,1.341463,-0.670732,-3.950000,19.056250,22.162500,27.808,0.59597836,-0.00895174,-0.02947208,-0.80240953
'00:06:58.194,0.060059,0.030762,1.002930,0.365854,1.280488,-0.609756,-3.950000,19.056250,22.162500,27.808,0.59596964,-0.00896012,-0.02947682,-0.80241574
'00:06:58.204,0.060547,0.030762,1.002930,0.304878,1.219512,-0.609756,-3.968750,19.037500,22.137501,27.763,0.59595918,-0.00897725,-0.02948077,-0.80242317
'00:06:58.214,0.059570,0.030273,1.001953,0.365854,1.219512,-0.609756,-3.968750,19.037500,22.137501,27.748,0.59594892,-0.00898747,-0.02948183,-0.80243064
'00:06:58.224,0.060059,0.031738,1.001465,0.365854,1.280488,-0.548781,-4.368750,19.600000,22.493750,27.808,0.59592576,-0.00897146,-0.02947009,-0.80244845
'00:06:58.234,0.061523,0.031250,1.000977,0.365854,1.341463,-0.609756,-4.368750,19.600000,22.493750,27.748,0.59589872,-0.00896240,-0.02945935,-0.80246903
'00:06:58.244,0.062012,0.030762,1.000488,0.365854,1.341463,-0.548781,-4.012500,19.187500,22.306250,27.778,0.59589226,-0.00897686,-0.02946864,-0.80247332
'00:06:58.254,0.061035,0.030273,1.002930,0.426829,1.402439,-0.548781,-4.012500,19.187500,22.306250,27.763,0.59588617,-0.00897942,-0.02947017,-0.80247776
'00:06:58.264,0.061035,0.030762,1.003906,0.365854,1.341463,-0.609756,-3.887500,19.043751,22.075001,27.748,0.59588215,-0.00899302,-0.02948122,-0.80248018
'00:06:58.274,0.061035,0.031250,1.004883,0.365854,1.341463,-0.548781,-3.887500,19.043751,22.075001,27.763,0.59588226,-0.00900403,-0.02949460,-0.80247949
'00:06:58.284,0.062012,0.029297,1.003418,0.304878,1.280488,-0.609756,-3.925000,19.037500,22.156250,27.748,0.59587528,-0.00903509,-0.02949613,-0.80248426
'00:06:58.294,0.061035,0.031250,1.002441,0.365854,1.280488,-0.548781,-3.925000,19.037500,22.156250,27.823,0.59587214,-0.00904775,-0.02951008,-0.80248594
'00:06:58.304,0.059570,0.031738,1.000000,0.365854,1.341463,-0.609756,-3.906250,19.056250,22.131250,27.748,0.59586648,-0.00904643,-0.02952011,-0.80248979
'00:06:58.314,0.060547,0.032227,1.000977,0.365854,1.402439,-0.609756,-4.156250,19.356251,22.300001,27.808,0.59584913,-0.00903175,-0.02951911,-0.80250287
'00:06:58.324,0.060059,0.031738,1.000000,0.426829,1.463415,-0.609756,-4.156250,19.356251,22.300001,27.717,0.59583220,-0.00900946,-0.02951457,-0.80251586
'00:06:58.334,0.061035,0.029785,1.002441,0.304878,1.341463,-0.548781,-4.262500,19.518751,22.450001,27.838,0.59581527,-0.00901229,-0.02949384,-0.80252917
'00:06:58.344,0.061035,0.029297,1.003906,0.304878,1.280488,-0.609756,-4.262500,19.518751,22.450001,27.778,0.59579412,-0.00902116,-0.02947311,-0.80254553
'00:06:58.354,0.061523,0.030273,1.004395,0.304878,1.280488,-0.548781,-4.000000,19.068750,22.056250,27.793,0.59578745,-0.00903965,-0.02947349,-0.80255026
'00:06:58.364,0.060547,0.030762,1.000977,0.304878,1.280488,-0.609756,-4.000000,19.068750,22.056250,27.808,0.59577638,-0.00905030,-0.02947408,-0.80255833
'00:06:58.374,0.061523,0.030762,1.000488,0.365854,1.341463,-0.609756,-4.018750,19.093750,22.150000,27.778,0.59576433,-0.00905866,-0.02947920,-0.80256699
'00:06:58.384,0.059570,0.031738,1.000977,0.426829,1.402439,-0.609756,-4.018750,19.093750,22.150000,27.793,0.59575234,-0.00904292,-0.02948229,-0.80257596
'00:06:58.394,0.060547,0.032227,1.000000,0.365854,1.402439,-0.609756,-3.918750,18.962500,22.093750,27.823,0.59574469,-0.00903960,-0.02949492,-0.80258121
'00:06:58.404,0.059570,0.031738,1.002441,0.304878,1.341463,-0.548781,-3.918750,18.962500,22.093750,27.808,0.59574130,-0.00903968,-0.02949746,-0.80258363
'00:06:58.414,0.060059,0.030762,1.003906,0.365854,1.402439,-0.548781,-4.206250,19.431250,22.393751,27.808,0.59572686,-0.00902674,-0.02948206,-0.80259506
'00:06:58.424,0.060547,0.030762,1.003906,0.426829,1.402439,-0.609756,-4.206250,19.431250,22.393751,27.808,0.59570828,-0.00901371,-0.02947355,-0.80260931
'00:06:58.436,0.060547,0.029785,1.003906,0.426829,1.341463,-0.609756,-4.268750,19.525000,22.443750,27.808,0.59568324,-0.00900555,-0.02945658,-0.80262861
'00:06:58.444,0.061523,0.031250,1.001465,0.365854,1.341463,-0.548781,-4.268750,19.525000,22.443750,27.748,0.59566971,-0.00900276,-0.02945369,-0.80263879
'00:06:58.454,0.061035,0.032227,1.000977,0.365854,1.280488,-0.548781,-4.012500,19.075001,22.187500,27.748,0.59566184,-0.00900716,-0.02946956,-0.80264400
'00:06:58.464,0.061523,0.030762,1.000977,0.365854,1.341463,-0.609756,-4.012500,19.075001,22.187500,27.808,0.59565019,-0.00901687,-0.02947509,-0.80265233
'00:06:58.474,0.061523,0.030762,1.001953,0.426829,1.463415,-0.609756,-3.918750,19.018751,22.100000,27.778,0.59564451,-0.00902002,-0.02948482,-0.80265615
'00:06:58.484,0.060547,0.031738,1.002930,0.426829,1.402439,-0.609756,-3.918750,19.018751,22.100000,27.808,0.59563848,-0.00901662,-0.02949876,-0.80266015
'00:06:58.494,0.061523,0.030762,1.003906,0.365854,1.402439,-0.609756,-3.950000,19.025000,22.168751,27.808,0.59563034,-0.00902487,-0.02950344,-0.80266593
'00:06:58.504,0.059570,0.030273,1.002930,0.365854,1.402439,-0.609756,-3.950000,19.025000,22.168751,27.793,0.59562240,-0.00902354,-0.02949646,-0.80267210
'00:06:58.514,0.060059,0.031250,1.002441,0.365854,1.341463,-0.609756,-3.956250,19.031250,22.131250,27.793,0.59561392,-0.00902465,-0.02950114,-0.80267820
'00:06:58.524,0.060059,0.030762,1.001953,0.365854,1.341463,-0.609756,-3.956250,19.031250,22.131250,27.748,0.59560557,-0.00902815,-0.02950293,-0.80268429
'00:06:58.535,0.060547,0.031250,1.001465,0.365854,1.341463,-0.609756,-4.393750,19.668751,22.575001,27.778,0.59557610,-0.00901112,-0.02948581,-0.80270698
'00:06:58.544,0.059570,0.031738,1.001465,0.365854,1.280488,-0.609756,-4.393750,19.668751,22.575001,27.793,0.59555189,-0.00899419,-0.02947380,-0.80272557
'00:06:58.554,0.061523,0.031738,1.002441,0.304878,1.341463,-0.609756,-3.993750,19.187500,22.250000,27.748,0.59554343,-0.00900545,-0.02948446,-0.80273133
'00:06:58.564,0.061035,0.031250,1.002930,0.426829,1.341463,-0.609756,-3.950000,19.043751,22.087500,27.808,0.59553611,-0.00901033,-0.02949909,-0.80273617
'00:06:58.574,0.061035,0.031250,1.002930,0.365854,1.280488,-0.609756,-3.950000,19.043751,22.087500,27.778,0.59552857,-0.00902256,-0.02951237,-0.80274114
'00:06:58.584,0.061523,0.030273,1.003906,0.365854,1.280488,-0.609756,-3.900000,19.018751,22.131250,27.732,0.59552397,-0.00904514,-0.02952458,-0.80274385
'00:06:58.594,0.061523,0.030273,1.002930,0.365854,1.280488,-0.609756,-3.900000,19.018751,22.131250,27.717,0.59551930,-0.00906755,-0.02953698,-0.80274661
'00:06:58.604,0.060059,0.030273,1.001465,0.365854,1.402439,-0.609756,-3.943750,19.068750,22.150000,27.763,0.59551284,-0.00907000,-0.02953410,-0.80275148
'00:06:58.614,0.059570,0.030762,1.002441,0.304878,1.280488,-0.609756,-3.943750,19.068750,22.150000,27.717,0.59550595,-0.00907864,-0.02953372,-0.80275650
'00:06:58.624,0.061035,0.031738,1.001953,0.365854,1.341463,-0.548781,-4.037500,19.218750,22.237501,27.778,0.59549940,-0.00908003,-0.02954257,-0.80276102
'00:06:58.634,0.060547,0.030762,1.001465,0.365854,1.341463,-0.609756,-4.037500,19.218750,22.237501,27.823,0.59548883,-0.00908292,-0.02954326,-0.80276880
'00:06:58.645,0.059570,0.029297,1.003906,0.304878,1.341463,-0.609756,-4.131250,19.356251,22.287500,27.823,0.59547342,-0.00908496,-0.02951797,-0.80278114
'00:06:58.654,0.060547,0.030762,1.001953,0.304878,1.280488,-0.609756,-4.131250,19.356251,22.287500,27.823,0.59546039,-0.00909019,-0.02951351,-0.80279091
'00:06:58.664,0.061035,0.030762,1.002930,0.304878,1.280488,-0.609756,-3.937500,19.025000,22.156250,27.823,0.59545319,-0.00910752,-0.02951980,-0.80279582
'00:06:58.674,0.061035,0.030762,1.002930,0.304878,1.280488,-0.609756,-3.937500,19.025000,22.156250,27.823,0.59544597,-0.00912456,-0.02952596,-0.80280076
'00:06:58.684,0.060547,0.032715,1.001953,0.304878,1.219512,-0.609756,-3.918750,19.012501,22.112501,27.853,0.59543931,-0.00913466,-0.02954709,-0.80280480
'00:06:58.694,0.061523,0.030273,1.000488,0.365854,1.341463,-0.609756,-3.918750,19.012501,22.112501,27.778,0.59543351,-0.00915065,-0.02955557,-0.80280861
'00:06:58.704,0.062012,0.030762,1.001465,0.365854,1.341463,-0.548781,-3.912500,19.043751,22.056250,27.808,0.59543304,-0.00916760,-0.02956994,-0.80280824
'00:06:58.715,0.059082,0.030273,1.000977,0.304878,1.280488,-0.609756,-3.912500,19.043751,22.056250,27.808,0.59542782,-0.00917682,-0.02956634,-0.80281214
'00:06:58.724,0.060059,0.031250,1.003418,0.304878,1.280488,-0.609756,-4.156250,19.425001,22.337500,27.793,0.59541409,-0.00917510,-0.02956052,-0.80282256
'00:06:58.734,0.059570,0.030273,1.003418,0.304878,1.280488,-0.670732,-4.156250,19.425001,22.337500,27.808,0.59539487,-0.00917464,-0.02954606,-0.80283735
'00:06:58.744,0.059570,0.030762,1.004395,0.304878,1.219512,-0.609756,-4.137500,19.300001,22.262501,27.793,0.59537896,-0.00917586,-0.02953675,-0.80284947
'00:06:58.754,0.059082,0.031738,1.002930,0.365854,1.280488,-0.609756,-4.137500,19.300001,22.262501,27.778,0.59536309,-0.00916258,-0.02953326,-0.80286152
'00:06:58.767,0.061523,0.030762,1.001465,0.365854,1.341463,-0.548781,-3.918750,19.018751,22.100000,27.793,0.59536146,-0.00918010,-0.02954845,-0.80286197
'00:06:58.774,0.061523,0.030762,1.001465,0.365854,1.341463,-0.548781,-3.918750,19.018751,22.100000,27.793,0.59536053,-0.00918931,-0.02955642,-0.80286226
'00:06:58.784,0.061035,0.031738,1.000488,0.365854,1.402439,-0.609756,-3.987500,19.118750,22.131250,27.793,0.59535196,-0.00918710,-0.02956511,-0.80286833
'00:06:58.794,0.061035,0.030273,1.000488,0.426829,1.463415,-0.609756,-3.987500,19.118750,22.131250,27.778,0.59534396,-0.00918433,-0.02956561,-0.80287427
'00:06:58.804,0.060547,0.030762,1.001953,0.365854,1.341463,-0.548781,-3.906250,18.993750,22.087500,27.868,0.59534314,-0.00919188,-0.02957258,-0.80287453
'00:06:58.814,0.061035,0.030762,1.003418,0.365854,1.341463,-0.609756,-3.906250,18.993750,22.087500,27.763,0.59533802,-0.00920179,-0.02958100,-0.80287791
'00:06:58.824,0.060547,0.030273,1.003418,0.365854,1.280488,-0.609756,-4.112500,19.318750,22.287500,27.763,0.59532434,-0.00920548,-0.02957645,-0.80288818
'00:06:58.834,0.061035,0.031250,1.002441,0.365854,1.341463,-0.548781,-4.243750,19.481251,22.450001,27.793,0.59530873,-0.00919753,-0.02956999,-0.80290008
'00:06:58.844,0.060059,0.031738,1.002441,0.365854,1.341463,-0.609756,-4.243750,19.481251,22.450001,27.763,0.59528885,-0.00918154,-0.02956238,-0.80291528
'00:06:58.854,0.060547,0.031250,1.001953,0.365854,1.280488,-0.609756,-3.993750,19.156250,22.162500,27.823,0.59528051,-0.00918729,-0.02957176,-0.80292106
'00:06:58.864,0.060547,0.031250,1.000488,0.304878,1.280488,-0.609756,-3.993750,19.156250,22.162500,27.778,0.59527210,-0.00919644,-0.02957741,-0.80292698
'00:06:58.874,0.060059,0.030762,1.001465,0.365854,1.341463,-0.609756,-3.925000,19.056250,22.100000,27.808,0.59526706,-0.00920043,-0.02958211,-0.80293049
'00:06:58.885,0.061035,0.031250,1.002930,0.365854,1.341463,-0.609756,-3.925000,19.056250,22.100000,27.748,0.59526135,-0.00920845,-0.02959473,-0.80293417
'00:06:58.894,0.062012,0.030762,1.004395,0.365854,1.341463,-0.609756,-3.937500,19.050001,22.156250,27.763,0.59525568,-0.00922129,-0.02960433,-0.80293788
'00:06:58.904,0.059570,0.030762,1.003906,0.426829,1.402439,-0.609756,-3.937500,19.050001,22.156250,27.838,0.59524965,-0.00921307,-0.02960494,-0.80294241
'00:06:58.914,0.061523,0.031250,1.001465,0.365854,1.341463,-0.609756,-3.943750,19.056250,22.087500,27.808,0.59524320,-0.00922217,-0.02961744,-0.80294663
'00:06:58.924,0.061035,0.030762,1.000977,0.365854,1.341463,-0.548781,-3.943750,19.056250,22.087500,27.778,0.59524112,-0.00923068,-0.02962460,-0.80294781
'00:06:58.934,0.061035,0.030762,1.000977,0.365854,1.341463,-0.609756,-4.200000,19.443750,22.393751,27.838,0.59522382,-0.00922712,-0.02961807,-0.80296092
'00:06:58.944,0.061523,0.031250,1.001465,0.304878,1.341463,-0.609756,-4.200000,19.443750,22.393751,27.808,0.59520642,-0.00922745,-0.02961244,-0.80297402
'00:06:58.954,0.061035,0.030762,1.002930,0.365854,1.341463,-0.609756,-4.031250,19.187500,22.250000,27.808,0.59519615,-0.00923140,-0.02961402,-0.80298153
'00:06:58.964,0.061523,0.029785,1.003418,0.426829,1.402439,-0.609756,-4.031250,19.187500,22.250000,27.808,0.59518633,-0.00923525,-0.02961261,-0.80298881
'00:06:58.974,0.061523,0.028320,1.003418,0.426829,1.341463,-0.609756,-3.925000,19.168751,22.131250,27.808,0.59518397,-0.00925678,-0.02961381,-0.80299027
'00:06:58.984,0.060547,0.029785,1.002930,0.426829,1.341463,-0.609756,-3.925000,19.168751,22.131250,27.868,0.59518126,-0.00926534,-0.02961989,-0.80299196
'00:06:58.994,0.059570,0.030762,1.002441,0.365854,1.280488,-0.609756,-3.912500,19.006250,22.056250,27.793,0.59517627,-0.00926959,-0.02962460,-0.80299544
'00:06:59.005,0.060059,0.030762,1.002930,0.365854,1.280488,-0.609756,-3.912500,19.006250,22.056250,27.793,0.59517075,-0.00927737,-0.02963191,-0.80299916
'00:06:59.014,0.060059,0.031250,1.001953,0.304878,1.341463,-0.609756,-3.950000,19.062500,22.093750,27.763,0.59516473,-0.00927914,-0.02963241,-0.80300359
'00:06:59.024,0.060547,0.030762,1.001953,0.304878,1.341463,-0.609756,-3.950000,19.062500,22.093750,27.823,0.59515815,-0.00928636,-0.02963216,-0.80300839
'00:06:59.034,0.061035,0.030762,1.000977,0.304878,1.341463,-0.609756,-4.106250,19.262501,22.293751,27.823,0.59514408,-0.00928905,-0.02962544,-0.80301903
'00:06:59.044,0.060059,0.030762,1.001953,0.365854,1.341463,-0.548781,-4.106250,19.262501,22.293751,27.748,0.59513442,-0.00928259,-0.02961822,-0.80302653
'00:06:59.054,0.061523,0.030762,1.003906,0.426829,1.341463,-0.609756,-4.406250,19.687500,22.581251,27.793,0.59510810,-0.00926796,-0.02960576,-0.80304667
'00:06:59.064,0.060547,0.029297,1.003418,0.304878,1.280488,-0.548781,-4.406250,19.687500,22.581251,27.763,0.59508628,-0.00926533,-0.02957528,-0.80306399
'00:06:59.074,0.060059,0.031250,1.001465,0.365854,1.341463,-0.609756,-3.856250,19.037500,22.137501,27.853,0.59508578,-0.00927103,-0.02958891,-0.80306379
'00:06:59.086,0.061523,0.030762,1.000977,0.365854,1.280488,-0.548781,-3.937500,19.056250,22.118750,27.838,0.59508400,-0.00929026,-0.02960573,-0.80306427
'00:06:59.094,0.060547,0.031738,1.001465,0.365854,1.280488,-0.548781,-3.937500,19.056250,22.118750,27.823,0.59508261,-0.00929426,-0.02961783,-0.80306481
'00:06:59.104,0.061035,0.032227,1.000977,0.365854,1.402439,-0.609756,-3.943750,19.081251,22.131250,27.853,0.59507673,-0.00929119,-0.02963192,-0.80306868
'00:06:59.114,0.060059,0.030273,1.001465,0.304878,1.341463,-0.548781,-3.943750,19.081251,22.131250,27.808,0.59507544,-0.00929879,-0.02962763,-0.80306971
'00:06:59.124,0.060547,0.030762,1.001953,0.304878,1.280488,-0.609756,-4.093750,19.300001,22.368750,27.838,0.59506271,-0.00930403,-0.02962332,-0.80307924
'00:06:59.134,0.060059,0.030273,1.002441,0.365854,1.341463,-0.609756,-4.093750,19.300001,22.368750,27.778,0.59505037,-0.00930099,-0.02961473,-0.80308873
'00:06:59.144,0.059570,0.032227,1.003906,0.426829,1.402439,-0.609756,-4.262500,19.512501,22.462500,27.793,0.59503046,-0.00927035,-0.02960742,-0.80310411
'00:06:59.154,0.062500,0.031250,1.004395,0.365854,1.341463,-0.609756,-4.262500,19.512501,22.462500,27.808,0.59501065,-0.00926960,-0.02960619,-0.80311884
'00:06:59.166,0.061035,0.030273,1.002441,0.365854,1.341463,-0.609756,-3.981250,19.162500,22.156250,27.778,0.59500304,-0.00928055,-0.02961019,-0.80312420
'00:06:59.174,0.061035,0.029785,1.001465,0.426829,1.402439,-0.609756,-3.981250,19.162500,22.156250,27.808,0.59499822,-0.00928377,-0.02961161,-0.80312769
'00:06:59.184,0.061523,0.030762,1.001465,0.365854,1.402439,-0.609756,-3.943750,19.075001,22.143751,27.838,0.59499283,-0.00929087,-0.02961881,-0.80313134
'00:06:59.194,0.061035,0.031250,1.002930,0.365854,1.341463,-0.609756,-3.943750,19.075001,22.143751,27.868,0.59498719,-0.00929652,-0.02962918,-0.80313507
'00:06:59.205,0.061523,0.031250,1.002930,0.304878,1.280488,-0.609756,-3.950000,19.043751,22.131250,27.763,0.59497967,-0.00931320,-0.02964041,-0.80314003
'00:06:59.214,0.061035,0.031738,1.000977,0.365854,1.341463,-0.548781,-3.950000,19.043751,22.131250,27.763,0.59497741,-0.00931570,-0.02965195,-0.80314125
'00:06:59.224,0.060059,0.030762,1.003906,0.426829,1.341463,-0.609756,-3.981250,19.112501,22.243750,27.823,0.59496970,-0.00931194,-0.02965538,-0.80314687
'00:06:59.234,0.060547,0.031250,1.001953,0.426829,1.402439,-0.609756,-3.981250,19.112501,22.243750,27.778,0.59496202,-0.00930515,-0.02966186,-0.80315241
'00:06:59.244,0.059570,0.031250,1.001953,0.365854,1.402439,-0.609756,-4.162500,19.362501,22.262501,27.778,0.59494693,-0.00928686,-0.02965001,-0.80316423
'00:06:59.254,0.060059,0.030762,1.002441,0.304878,1.280488,-0.609756,-4.162500,19.362501,22.262501,27.763,0.59493169,-0.00928574,-0.02963951,-0.80317592
'00:06:59.264,0.059570,0.030273,1.001953,0.426829,1.280488,-0.548781,-4.100000,19.275000,22.231251,27.778,0.59492362,-0.00928088,-0.02963597,-0.80318209
'00:06:59.274,0.060547,0.030762,1.001953,0.365854,1.280488,-0.609756,-4.100000,19.275000,22.231251,27.778,0.59491112,-0.00928281,-0.02963577,-0.80319133
'00:06:59.284,0.061523,0.031738,1.000977,0.365854,1.341463,-0.670732,-3.943750,19.006250,22.131250,27.793,0.59490007,-0.00928904,-0.02965111,-0.80319888
'00:06:59.294,0.060547,0.031250,1.002441,0.426829,1.402439,-0.548781,-3.943750,19.006250,22.131250,27.808,0.59489794,-0.00928401,-0.02965895,-0.80320022
'00:06:59.304,0.061035,0.031250,1.002930,0.426829,1.402439,-0.609756,-3.931250,19.037500,22.125000,27.808,0.59489297,-0.00928298,-0.02967039,-0.80320349
'00:06:59.314,0.060547,0.030273,1.003906,0.426829,1.341463,-0.609756,-3.931250,19.037500,22.125000,27.838,0.59488812,-0.00928758,-0.02967595,-0.80320682
'00:06:59.325,0.060547,0.031738,1.002930,0.426829,1.341463,-0.670732,-3.887500,18.975000,22.125000,27.808,0.59487966,-0.00928756,-0.02969532,-0.80321237
'00:06:59.334,0.060059,0.031738,1.002441,0.365854,1.341463,-0.609756,-3.887500,18.975000,22.125000,27.808,0.59487655,-0.00928791,-0.02970516,-0.80321431
'00:06:59.344,0.060547,0.031250,1.002930,0.426829,1.341463,-0.609756,-4.300000,19.550001,22.431250,27.808,0.59485551,-0.00927076,-0.02969688,-0.80323040
'00:06:59.355,0.060059,0.030762,1.003418,0.365854,1.341463,-0.609756,-4.231250,19.412500,22.381250,27.763,0.59483486,-0.00925772,-0.02968033,-0.80324645
'00:06:59.364,0.061035,0.030762,1.002930,0.304878,1.280488,-0.548781,-4.231250,19.412500,22.381250,27.823,0.59482171,-0.00925956,-0.02967026,-0.80325654
'00:06:59.374,0.060059,0.031738,1.001953,0.304878,1.341463,-0.548781,-4.000000,19.118750,22.162500,27.778,0.59481769,-0.00925831,-0.02967135,-0.80325949
'00:06:59.384,0.061035,0.031250,1.002441,0.365854,1.402439,-0.609756,-4.000000,19.118750,22.162500,27.793,0.59480971,-0.00925764,-0.02967476,-0.80326529
'00:06:59.394,0.061523,0.030762,1.001953,0.365854,1.402439,-0.609756,-3.943750,19.025000,22.093750,27.823,0.59480414,-0.00926493,-0.02968045,-0.80326911
'00:06:59.404,0.061035,0.030762,1.003418,0.365854,1.341463,-0.609756,-3.943750,19.025000,22.093750,27.778,0.59479845,-0.00927306,-0.02968628,-0.80327302
'00:06:59.414,0.061035,0.030762,1.002441,0.426829,1.402439,-0.609756,-3.968750,19.037500,22.093750,27.808,0.59479149,-0.00927229,-0.02969177,-0.80327797
'00:06:59.424,0.061035,0.030762,1.002441,0.426829,1.402439,-0.609756,-3.968750,19.037500,22.093750,27.808,0.59478455,-0.00927155,-0.02969718,-0.80328292
'00:06:59.434,0.060547,0.030762,1.001465,0.365854,1.341463,-0.609756,-4.256250,19.368750,22.362501,27.838,0.59476363,-0.00926117,-0.02968269,-0.80329907
'00:06:59.445,0.060547,0.031250,1.001953,0.365854,1.402439,-0.609756,-4.256250,19.368750,22.362501,27.793,0.59474080,-0.00924280,-0.02966672,-0.80331678
'00:06:59.455,0.060547,0.031250,1.001953,0.365854,1.402439,-0.609756,-4.187500,19.443750,22.406250,27.793,0.59472583,-0.00923182,-0.02965942,-0.80332825
'00:06:59.464,0.060547,0.031738,1.002930,0.365854,1.341463,-0.609756,-4.187500,19.443750,22.406250,27.838,0.59471220,-0.00922381,-0.02965817,-0.80333848
'00:06:59.474,0.060547,0.030762,1.002441,0.304878,1.280488,-0.548781,-3.950000,19.050001,22.125000,27.823,0.59471094,-0.00923778,-0.02966183,-0.80333912
'00:06:59.486,0.061035,0.030762,1.003906,0.426829,1.341463,-0.609756,-3.950000,19.050001,22.125000,27.778,0.59470456,-0.00924453,-0.02967447,-0.80334330
'00:06:59.494,0.061035,0.030762,1.003906,0.426829,1.341463,-0.609756,-3.975000,19.081251,22.181250,27.778,0.59469923,-0.00924797,-0.02968146,-0.80334695
'00:06:59.504,0.059570,0.030273,1.002441,0.365854,1.341463,-0.609756,-3.975000,19.081251,22.181250,27.778,0.59469268,-0.00924901,-0.02967670,-0.80335196
'00:06:59.514,0.060059,0.032227,1.001953,0.365854,1.341463,-0.548781,-3.956250,19.056250,22.150000,27.808,0.59469085,-0.00924509,-0.02968790,-0.80335294
'00:06:59.525,0.060547,0.031738,1.001953,0.365854,1.341463,-0.609756,-3.956250,19.056250,22.150000,27.778,0.59468424,-0.00924649,-0.02969914,-0.80335740
'00:06:59.534,0.060059,0.031250,1.002441,0.365854,1.341463,-0.548781,-4.075000,19.256250,22.225000,27.838,0.59467875,-0.00924215,-0.02969790,-0.80336157
'00:06:59.544,0.061035,0.031738,1.001953,0.365854,1.341463,-0.609756,-4.075000,19.256250,22.225000,27.763,0.59466824,-0.00924106,-0.02970432,-0.80336912
'00:06:59.554,0.060059,0.030762,1.003418,0.365854,1.341463,-0.548781,-4.237500,19.450001,22.325001,27.793,0.59465489,-0.00923045,-0.02969033,-0.80337964
'00:06:59.565,0.060547,0.031738,1.002930,0.365854,1.280488,-0.548781,-4.237500,19.450001,22.325001,27.778,0.59463987,-0.00922222,-0.02968799,-0.80339094
'00:06:59.574,0.061523,0.029785,1.003418,0.365854,1.341463,-0.548781,-4.112500,19.312500,22.231251,27.793,0.59463353,-0.00923062,-0.02968285,-0.80339572
'00:06:59.584,0.060547,0.030273,1.002930,0.365854,1.280488,-0.609756,-4.112500,19.312500,22.231251,27.823,0.59462199,-0.00923595,-0.02967929,-0.80340433
'00:06:59.594,0.061035,0.030273,1.002441,0.365854,1.341463,-0.609756,-3.900000,18.975000,22.125000,27.793,0.59461898,-0.00925026,-0.02968581,-0.80340616
'00:06:59.606,0.060547,0.029785,1.002441,0.365854,1.341463,-0.548781,-3.931250,18.975000,22.093750,27.853,0.59461823,-0.00926378,-0.02968401,-0.80340662
'00:06:59.614,0.060059,0.031250,1.002441,0.365854,1.341463,-0.609756,-3.931250,18.975000,22.093750,27.793,0.59461402,-0.00926459,-0.02968845,-0.80340956
'00:06:59.624,0.061035,0.031250,1.003418,0.426829,1.341463,-0.609756,-3.906250,19.050001,22.125000,27.778,0.59461176,-0.00927084,-0.02970572,-0.80341053
'00:06:59.634,0.061035,0.031250,1.002441,0.365854,1.280488,-0.609756,-3.906250,19.050001,22.125000,27.793,0.59460923,-0.00928461,-0.02972202,-0.80341164
'00:06:59.644,0.060547,0.030762,1.004395,0.304878,1.280488,-0.609756,-4.137500,19.300001,22.356251,27.793,0.59459507,-0.00928809,-0.02971317,-0.80342241
'00:06:59.654,0.061035,0.030273,1.001953,0.304878,1.219512,-0.609756,-4.137500,19.300001,22.356251,27.793,0.59458088,-0.00930162,-0.02970801,-0.80343294
'00:06:59.665,0.061035,0.031250,1.001465,0.304878,1.280488,-0.609756,-4.256250,19.406250,22.406250,27.823,0.59455871,-0.00929991,-0.02969782,-0.80344974
'00:06:59.674,0.060059,0.031250,1.000488,0.426829,1.402439,-0.609756,-4.256250,19.406250,22.406250,27.838,0.59454104,-0.00928015,-0.02968818,-0.80346340
'00:06:59.686,0.060547,0.031250,1.001465,0.426829,1.402439,-0.609756,-3.937500,19.125000,22.143751,27.808,0.59453781,-0.00927797,-0.02970246,-0.80346529
'00:06:59.694,0.060059,0.030762,1.002930,0.426829,1.402439,-0.609756,-3.937500,19.125000,22.143751,27.838,0.59453577,-0.00927570,-0.02970699,-0.80346666
'00:06:59.704,0.060059,0.030762,1.002930,0.365854,1.341463,-0.548781,-4.025000,19.137501,22.168751,27.793,0.59453154,-0.00927483,-0.02970448,-0.80346989
'00:06:59.714,0.060059,0.030273,1.003418,0.365854,1.341463,-0.609756,-4.025000,19.137501,22.168751,27.808,0.59452318,-0.00927599,-0.02969881,-0.80347628
'00:06:59.726,0.060547,0.031250,1.002930,0.426829,1.402439,-0.609756,-4.000000,19.081251,22.162500,27.793,0.59451390,-0.00926796,-0.02970486,-0.80348301
'00:06:59.734,0.060547,0.030762,1.001953,0.365854,1.341463,-0.609756,-4.000000,19.081251,22.162500,27.778,0.59450766,-0.00927068,-0.02970588,-0.80348756
'00:06:59.744,0.061035,0.032227,1.001953,0.426829,1.402439,-0.609756,-4.218750,19.481251,22.437500,27.748,0.59449167,-0.00925377,-0.02970936,-0.80349945
'00:06:59.754,0.060547,0.030762,1.002930,0.365854,1.341463,-0.609756,-4.218750,19.481251,22.437500,27.823,0.59447593,-0.00924817,-0.02970012,-0.80351151
'00:06:59.766,0.060059,0.030762,1.001953,0.365854,1.341463,-0.548781,-4.206250,19.437500,22.400000,27.823,0.59446244,-0.00923883,-0.02968739,-0.80352207
'00:06:59.774,0.062012,0.030762,1.003906,0.365854,1.280488,-0.609756,-4.206250,19.437500,22.400000,27.778,0.59444994,-0.00924511,-0.02968801,-0.80353122
'00:06:59.784,0.062012,0.030273,1.004395,0.304878,1.280488,-0.609756,-3.918750,19.056250,22.162500,27.808,0.59444731,-0.00927250,-0.02969743,-0.80353250
'00:06:59.794,0.061035,0.030273,1.003418,0.365854,1.341463,-0.548781,-3.918750,19.056250,22.162500,27.853,0.59444914,-0.00928638,-0.02970368,-0.80353076
'00:06:59.806,0.060547,0.031250,1.002930,0.304878,1.280488,-0.609756,-3.925000,19.006250,22.118750,27.823,0.59444422,-0.00930119,-0.02971301,-0.80353388
'00:06:59.814,0.060059,0.030762,1.000977,0.426829,1.341463,-0.609756,-3.925000,19.006250,22.118750,27.808,0.59444122,-0.00930216,-0.02971985,-0.80353584
'00:06:59.824,0.059570,0.030762,1.001465,0.487805,1.463415,-0.609756,-3.912500,19.037500,22.081251,27.763,0.59443944,-0.00928966,-0.02972553,-0.80353708
'00:06:59.834,0.060059,0.031250,1.002441,0.426829,1.402439,-0.548781,-3.912500,19.037500,22.081251,27.793,0.59444162,-0.00928546,-0.02973485,-0.80353518
'00:06:59.845,0.061035,0.030273,1.003906,0.426829,1.402439,-0.609756,-3.900000,19.056250,22.131250,27.853,0.59444062,-0.00929327,-0.02974376,-0.80353550
'00:06:59.855,0.061035,0.029785,1.001953,0.365854,1.280488,-0.670732,-3.900000,19.056250,22.131250,27.778,0.59443513,-0.00931451,-0.02975161,-0.80353902
'00:06:59.865,0.061035,0.030273,1.003906,0.304878,1.280488,-0.609756,-4.231250,19.462500,22.387501,27.793,0.59441831,-0.00931924,-0.02973812,-0.80355191
'00:06:59.874,0.061035,0.029297,1.002930,0.365854,1.280488,-0.548781,-4.231250,19.462500,22.387501,27.793,0.59440732,-0.00932498,-0.02972506,-0.80356045
'00:06:59.886,0.062012,0.030762,1.001465,0.304878,1.280488,-0.609756,-4.068750,19.200001,22.262501,27.808,0.59439456,-0.00934442,-0.02972929,-0.80356951
'00:06:59.894,0.060547,0.031250,1.000977,0.426829,1.402439,-0.609756,-3.962500,19.050001,22.125000,27.793,0.59439020,-0.00934043,-0.02973593,-0.80357254
'00:06:59.904,0.061523,0.030273,1.001953,0.304878,1.280488,-0.609756,-3.962500,19.050001,22.125000,27.793,0.59438455,-0.00936070,-0.02973976,-0.80357634
'00:06:59.914,0.060547,0.030273,1.001465,0.365854,1.402439,-0.609756,-3.918750,19.000000,22.050001,27.808,0.59438162,-0.00936529,-0.02974001,-0.80357845
'00:06:59.924,0.060059,0.031250,1.000977,0.365854,1.463415,-0.609756,-3.918750,19.000000,22.050001,27.793,0.59437862,-0.00935808,-0.02974124,-0.80358070
'00:06:59.934,0.060059,0.031738,1.002930,0.426829,1.402439,-0.609756,-3.987500,19.112501,22.125000,27.823,0.59437258,-0.00934625,-0.02974845,-0.80358504
'00:06:59.944,0.061035,0.031738,1.004395,0.365854,1.341463,-0.609756,-3.987500,19.112501,22.125000,27.838,0.59436634,-0.00934769,-0.02975823,-0.80358927
'00:06:59.954,0.060547,0.029785,1.003906,0.365854,1.280488,-0.609756,-4.312500,19.537500,22.431250,27.808,0.59434585,-0.00934405,-0.02973908,-0.80360518
'00:06:59.966,0.060059,0.029785,1.003418,0.365854,1.219512,-0.548781,-4.312500,19.537500,22.431250,27.838,0.59432633,-0.00934184,-0.02971799,-0.80362042
'00:06:59.974,0.060547,0.031250,1.001953,0.365854,1.280488,-0.548781,-4.193750,19.437500,22.400000,27.853,0.59431796,-0.00933934,-0.02971702,-0.80362668
'00:06:59.984,0.061035,0.029785,1.000488,0.426829,1.402439,-0.548781,-4.193750,19.437500,22.400000,27.778,0.59430822,-0.00933456,-0.02970765,-0.80363428
'00:06:59.994,0.060547,0.030273,1.000977,0.487805,1.463415,-0.609756,-3.937500,19.037500,22.156250,27.838,0.59430491,-0.00932887,-0.02971337,-0.80363659
'00:07:00.007,0.061035,0.031738,1.001953,0.426829,1.402439,-0.609756,-3.937500,19.037500,22.156250,27.763,0.59429985,-0.00932594,-0.02973360,-0.80363961
'00:07:00.014,0.061035,0.030762,1.002930,0.365854,1.402439,-0.670732,-3.950000,19.100000,22.093750,27.778,0.59429467,-0.00932932,-0.02973692,-0.80364328
'00:07:00.024,0.059082,0.030273,1.003418,0.365854,1.280488,-0.609756,-3.950000,19.100000,22.093750,27.763,0.59429145,-0.00933302,-0.02973566,-0.80364567
'00:07:00.034,0.060059,0.029297,1.005371,0.304878,1.219512,-0.609756,-3.987500,19.037500,22.081251,27.778,0.59428458,-0.00935090,-0.02972648,-0.80365088
'00:07:00.045,0.061035,0.030273,1.002441,0.365854,1.341463,-0.548781,-3.987500,19.037500,22.081251,27.853,0.59428179,-0.00935988,-0.02972738,-0.80365280
'00:07:00.054,0.060547,0.031250,1.000488,0.365854,1.341463,-0.609756,-4.143750,19.337500,22.306250,27.838,0.59427034,-0.00935489,-0.02972603,-0.80366138
'00:07:00.064,0.061035,0.030762,1.002441,0.365854,1.341463,-0.609756,-4.143750,19.337500,22.306250,27.808,0.59425778,-0.00935423,-0.02972288,-0.80367079
'00:07:00.074,0.061523,0.030762,1.001465,0.365854,1.402439,-0.609756,-4.131250,19.375000,22.356251,27.793,0.59424672,-0.00935387,-0.02972096,-0.80367905
'00:07:00.084,0.060547,0.031738,1.000977,0.304878,1.341463,-0.609756,-4.131250,19.375000,22.356251,27.793,0.59423529,-0.00935070,-0.02971986,-0.80368758
'00:07:00.094,0.060059,0.031250,1.003906,0.365854,1.402439,-0.609756,-3.937500,18.968750,22.100000,27.808,0.59423064,-0.00934638,-0.02972152,-0.80369100
'00:07:00.104,0.061523,0.029297,1.005371,0.365854,1.402439,-0.670732,-3.937500,18.968750,22.100000,27.808,0.59422217,-0.00935976,-0.02971695,-0.80369727
'00:07:00.114,0.060547,0.029297,1.003906,0.365854,1.341463,-0.670732,-3.937500,19.031250,22.075001,27.808,0.59421486,-0.00937223,-0.02971319,-0.80370267
'00:07:00.125,0.060059,0.030762,1.001465,0.365854,1.219512,-0.609756,-3.937500,19.031250,22.075001,27.793,0.59421078,-0.00938512,-0.02972496,-0.80370510
'00:07:00.134,0.059570,0.031738,1.000000,0.365854,1.341463,-0.609756,-3.943750,19.012501,22.137501,27.853,0.59420656,-0.00938075,-0.02973189,-0.80370802
'00:07:00.144,0.061523,0.032227,1.001953,0.365854,1.341463,-0.548781,-3.943750,19.012501,22.137501,27.808,0.59420595,-0.00938545,-0.02975055,-0.80370772
'00:07:00.154,0.060547,0.030273,1.000977,0.426829,1.341463,-0.609756,-4.106250,19.275000,22.231251,27.793,0.59419526,-0.00938246,-0.02974878,-0.80371573
'00:07:00.164,0.059570,0.032227,1.001953,0.426829,1.341463,-0.609756,-4.331250,19.575001,22.475000,27.838,0.59417423,-0.00935432,-0.02974207,-0.80373185
'00:07:00.174,0.059570,0.032227,1.001953,0.426829,1.341463,-0.609756,-4.331250,19.575001,22.475000,27.838,0.59415334,-0.00932674,-0.02973563,-0.80374785
'00:07:00.184,0.060059,0.031738,1.002441,0.426829,1.341463,-0.548781,-3.993750,19.131250,22.225000,27.838,0.59415176,-0.00932078,-0.02974683,-0.80374867
'00:07:00.194,0.061523,0.030762,1.003418,0.426829,1.402439,-0.609756,-3.993750,19.131250,22.225000,27.808,0.59414625,-0.00932377,-0.02975483,-0.80375242
'00:07:00.207,0.061035,0.029785,1.003418,0.426829,1.341463,-0.609756,-3.931250,19.050001,22.125000,27.823,0.59414324,-0.00933920,-0.02976315,-0.80375416
'00:07:00.214,0.061035,0.029785,1.003418,0.426829,1.341463,-0.609756,-3.931250,19.050001,22.125000,27.823,0.59414159,-0.00934732,-0.02976751,-0.80375512
'00:07:00.224,0.060059,0.030762,1.001953,0.365854,1.341463,-0.609756,-3.981250,19.087500,22.093750,27.778,0.59413641,-0.00934870,-0.02976848,-0.80375890
'00:07:00.234,0.061035,0.031738,1.000000,0.304878,1.280488,-0.548781,-3.981250,19.087500,22.093750,27.823,0.59413500,-0.00935953,-0.02977980,-0.80375939
'00:07:00.244,0.061523,0.031250,1.002441,0.304878,1.280488,-0.609756,-3.956250,19.050001,22.156250,27.853,0.59413013,-0.00937611,-0.02979010,-0.80376242
'00:07:00.254,0.060547,0.030273,1.000977,0.426829,1.341463,-0.609756,-3.956250,19.050001,22.156250,27.838,0.59412575,-0.00938071,-0.02979563,-0.80376540
'00:07:00.264,0.061523,0.030762,1.002930,0.304878,1.341463,-0.609756,-4.775000,20.231251,22.925001,27.808,0.59408822,-0.00935941,-0.02975864,-0.80379476
'00:07:00.274,0.061523,0.031250,1.004883,0.365854,1.341463,-0.609756,-4.775000,20.231251,22.925001,27.808,0.59405087,-0.00933294,-0.02972873,-0.80382377
'00:07:00.284,0.061035,0.030273,1.002930,0.365854,1.280488,-0.609756,-4.218750,19.431250,22.375000,27.778,0.59403562,-0.00933619,-0.02972214,-0.80383525
'00:07:00.294,0.061035,0.030273,1.001953,0.365854,1.280488,-0.609756,-4.218750,19.431250,22.375000,27.808,0.59402041,-0.00933967,-0.02971617,-0.80384667
'00:07:00.304,0.060547,0.030762,1.000000,0.304878,1.280488,-0.548781,-3.968750,19.056250,22.162500,27.793,0.59401975,-0.00935338,-0.02972077,-0.80384683
'00:07:00.314,0.060547,0.030762,1.001465,0.426829,1.402439,-0.548781,-3.968750,19.056250,22.162500,27.823,0.59401948,-0.00935164,-0.02972680,-0.80384683
'00:07:00.324,0.060547,0.031250,1.002441,0.426829,1.341463,-0.609756,-3.925000,19.043751,22.100000,27.808,0.59401765,-0.00935422,-0.02974207,-0.80384758
'00:07:00.334,0.059570,0.031250,1.003906,0.365854,1.341463,-0.609756,-3.925000,19.043751,22.100000,27.808,0.59401581,-0.00935355,-0.02974761,-0.80384875
'00:07:00.344,0.060547,0.031738,1.002930,0.365854,1.341463,-0.548781,-3.956250,19.081251,22.087500,27.808,0.59401668,-0.00935528,-0.02975921,-0.80384765
'00:07:00.354,0.061523,0.030762,1.004395,0.304878,1.341463,-0.548781,-3.956250,19.081251,22.087500,27.823,0.59401769,-0.00937027,-0.02976395,-0.80384656
'00:07:00.364,0.061523,0.029785,1.002930,0.365854,1.341463,-0.609756,-4.037500,19.143751,22.162500,27.793,0.59401005,-0.00938195,-0.02976191,-0.80385214
'00:07:00.374,0.061035,0.029785,1.003418,0.365854,1.280488,-0.609756,-4.037500,19.143751,22.162500,27.838,0.59400229,-0.00939465,-0.02976063,-0.80385777
'00:07:00.384,0.061035,0.031738,1.000488,0.426829,1.341463,-0.548781,-4.237500,19.537500,22.475000,27.793,0.59399148,-0.00938379,-0.02976512,-0.80386572
'00:07:00.394,0.061523,0.031738,1.000488,0.304878,1.280488,-0.609756,-4.237500,19.537500,22.475000,27.838,0.59397617,-0.00938651,-0.02976644,-0.80387695
'00:07:00.404,0.060547,0.031250,1.002441,0.365854,1.341463,-0.609756,-3.950000,19.043751,22.118750,27.808,0.59397251,-0.00939005,-0.02977467,-0.80387931
'00:07:00.414,0.061035,0.030762,1.002930,0.304878,1.280488,-0.609756,-3.950000,19.031250,22.181250,27.823,0.59396824,-0.00940612,-0.02978015,-0.80388208
'00:07:00.424,0.059082,0.030762,1.004395,0.060976,1.036585,-0.609756,-3.950000,19.031250,22.181250,27.808,0.59396322,-0.00943927,-0.02977137,-0.80388573
