# FW/GUI: v9.6.1-multi17-dual (PyQt5)
# StartTime: 2026-04-03 16:14:59
# Slot: 13
# DeviceID: 13
# Label: EMG13
# IP: 192.168.137.206
# TCP: 3333
# DeviceFW: EMG_FW_v9.6_MULTI17_DUALCH_RUNTIMECFG_CHEN
# EMG column notes: EMG_t_s=seconds since this Start; sample_idx=device sample index (ADS frame index); fs=sample rate (SPS); gain=gain; flags=0x01(TEST) 0x02(SHORT) 0x04(RLD); emg_valid=1 valid / 0 invalid (spike-guard decision); ch1_raw_uV=raw uV (after spike guard); ch1_filt_uV=filtered uV; ch1_env_uV=envelope (RMS) uV
EMG_t_s,sample_idx,fs,gain,flags,emg_valid,ch1_raw_uV,ch1_filt_uV,ch1_env_uV,ch2_raw_uV,ch2_filt_uV,ch2_env_uV
0.000000,356251,1000.00,12,0,1,44.102,4.020,4.692,877.980,0.951,1.120
0.001000,356252,1000.00,12,0,1,43.381,1.445,4.679,878.124,1.273,1.134
0.002000,356253,1000.00,12,0,1,44.174,-0.211,4.671,877.331,0.190,1.131
0.003000,356254,1000.00,12,0,1,44.847,-0.058,4.656,878.388,0.808,1.128
0.004000,356255,1000.00,12,0,1,42.541,-2.564,4.630,877.427,0.357,1.114
0.005000,356256,1000.00,12,0,1,42.805,-2.446,4.643,876.731,-0.882,1.026
0.006000,356257,1000.00,12,0,1,43.525,-0.389,4.566,877.067,-0.242,0.969
0.007000,356258,1000.00,12,0,1,41.508,-0.885,4.506,876.658,-0.548,0.972
0.008000,356259,1000.00,12,0,1,34.037,-5.287,4.567,877.355,-0.040,0.967
0.009000,356260,1000.00,12,0,1,33.581,-4.956,4.546,876.010,-0.655,0.969
0.010000,356261,1000.00,12,0,1,39.346,3.266,4.555,876.250,-1.025,0.949
0.011000,356262,1000.00,12,0,1,41.892,7.152,4.665,877.379,0.616,0.951
0.012000,356263,1000.00,12,0,1,39.922,5.797,4.719,875.001,-1.250,0.944
0.013000,356264,1000.00,12,0,1,35.334,1.631,4.720,874.593,-2.047,0.985
0.014000,356265,1000.00,12,0,1,36.776,1.614,4.685,877.451,0.912,0.990
0.015000,356266,1000.00,12,0,1,39.538,4.366,4.567,878.700,2.266,1.038
0.016000,356267,1000.00,12,0,1,39.946,2.964,4.507,876.803,0.442,1.023
0.017000,356268,1000.00,12,0,1,38.745,0.390,4.487,874.352,-2.037,1.048
0.018000,356269,1000.00,12,0,1,39.010,-1.648,4.065,875.626,-1.103,1.050
0.019000,356270,1000.00,12,0,1,33.773,-6.642,3.903,874.569,-1.000,1.060
0.020000,356271,1000.00,12,0,1,34.422,-8.759,4.047,875.241,-1.151,1.070
0.021000,356272,1000.00,12,0,1,40.979,-2.423,3.667,877.451,1.520,1.061
0.022000,356273,1000.00,12,0,1,40.499,-2.587,3.627,876.755,0.926,1.057
0.023000,356274,1000.00,12,0,1,36.728,-6.759,3.732,877.475,0.918,1.061
0.024000,356275,1000.00,12,0,1,36.896,-6.077,3.800,875.025,-0.430,1.061
0.025000,356276,1000.00,12,0,1,45.711,2.016,3.806,876.899,-0.188,1.046
0.026000,356277,1000.00,12,0,1,44.390,4.148,3.851,877.451,1.825,1.071
0.027000,356278,1000.00,12,0,1,42.012,0.432,3.847,876.731,0.109,1.071
0.028000,356279,1000.00,12,0,1,41.676,2.585,3.856,876.298,0.190,1.027
0.029000,356280,1000.00,12,0,1,38.145,0.495,3.845,877.379,0.683,1.017
0.030000,356281,1000.00,12,0,1,37.544,0.925,3.814,875.289,-0.429,1.014
0.031000,356282,1000.00,12,0,1,35.503,1.339,3.818,875.241,-1.286,1.030
0.032000,356283,1000.00,12,0,1,34.277,0.412,3.800,878.436,1.925,1.046
0.033000,356284,1000.00,12,0,1,34.974,2.259,3.627,877.427,1.561,1.069
0.034000,356285,1000.00,12,0,1,28.609,-2.474,3.356,875.481,-1.069,1.078
0.035000,356286,1000.00,12,0,1,28.416,-4.143,3.404,875.193,-0.972,1.086
0.036000,356287,1000.00,12,0,1,31.251,-0.409,3.370,874.449,-1.564,1.081
0.037000,356288,1000.00,12,0,1,36.343,2.433,3.330,875.890,-0.310,1.060
0.038000,356289,1000.00,12,0,1,37.736,3.386,3.354,876.634,0.796,1.065
0.039000,356290,1000.00,12,0,1,36.487,-0.267,3.313,877.451,1.095,1.071
0.040000,356291,1000.00,12,0,1,38.505,-0.319,3.290,877.187,1.014,1.074
0.041000,356292,1000.00,12,0,1,42.348,1.878,3.291,876.106,-0.325,1.075
0.042000,356293,1000.00,12,0,1,43.141,1.470,3.283,877.667,0.683,1.064
0.043000,356294,1000.00,12,0,1,44.414,1.169,3.285,877.595,1.102,1.073
0.044000,356295,1000.00,12,0,1,43.670,0.424,3.284,878.100,0.709,1.075
0.045000,356296,1000.00,12,0,1,42.108,-1.224,3.251,876.346,-0.191,1.064
0.046000,356297,1000.00,12,0,1,40.331,-1.917,3.252,876.418,-1.080,1.070
0.047000,356298,1000.00,12,0,1,36.776,-3.507,3.289,876.875,0.138,1.049
0.048000,356299,1000.00,12,0,1,41.051,0.730,3.290,877.379,0.187,1.047
0.049000,356300,1000.00,12,0,1,56.521,15.589,3.943,875.578,-0.817,1.036
0.050000,356301,1000.00,12,0,1,65.745,24.439,5.212,877.811,0.241,1.028
0.051000,356302,1000.00,12,0,1,46.000,7.177,5.306,878.388,1.852,1.046
0.052000,356303,1000.00,12,0,1,28.296,-13.002,5.616,876.610,-0.398,1.047
0.053000,356304,1000.00,12,0,1,26.110,-12.556,5.890,875.626,-1.264,1.056
0.054000,356305,1000.00,12,0,1,31.227,-6.438,5.949,876.706,-0.320,1.056
0.055000,356306,1000.00,12,0,1,36.583,-0.065,5.939,875.505,-0.851,1.055
0.056000,356307,1000.00,12,0,1,32.764,-2.775,5.951,878.412,0.849,1.061
0.057000,356308,1000.00,12,0,1,31.731,-5.978,6.010,878.628,2.080,1.099
0.058000,356309,1000.00,12,0,1,29.882,-6.449,6.032,878.556,0.773,1.104
0.059000,356310,1000.00,12,0,1,15.758,-18.551,6.541,877.932,0.544,1.103
0.060000,356311,1000.00,12,0,1,20.682,-16.492,6.929,877.980,-0.079,1.093
0.061000,356312,1000.00,12,0,1,33.149,-1.308,6.857,877.811,-0.066,1.090
0.062000,356313,1000.00,12,0,1,39.154,3.450,6.825,878.340,0.094,1.076
0.063000,356314,1000.00,12,0,1,37.304,2.083,6.828,875.313,-2.046,1.076
0.064000,356315,1000.00,12,0,1,35.527,-0.936,6.825,874.376,-3.444,1.174
0.065000,356316,1000.00,12,0,1,35.358,-0.282,6.797,875.722,-1.460,1.148
0.066000,356317,1000.00,12,0,1,35.815,0.904,6.786,874.545,-1.778,1.173
0.067000,356318,1000.00,12,0,1,35.791,2.119,6.792,875.409,-1.385,1.154
0.068000,356319,1000.00,12,0,1,31.659,0.461,6.788,875.409,-0.215,1.144
0.069000,356320,1000.00,12,0,1,28.657,-1.340,6.726,875.313,-0.764,1.140
0.070000,356321,1000.00,12,0,1,31.299,3.073,6.625,876.154,0.546,1.131
0.071000,356322,1000.00,12,0,1,32.212,5.884,6.668,874.905,-0.386,1.112
0.072000,356323,1000.00,12,0,1,28.873,3.937,6.681,874.881,-0.641,1.108
0.073000,356324,1000.00,12,0,1,22.964,-0.632,6.613,876.106,0.784,1.106
0.074000,356325,1000.00,12,0,1,23.732,-0.182,6.557,875.890,0.706,1.109
0.075000,356326,1000.00,12,0,1,25.534,2.772,6.563,875.890,0.458,1.110
0.076000,356327,1000.00,12,0,1,26.471,2.713,6.548,875.265,0.089,1.080
0.077000,356328,1000.00,12,0,1,29.449,4.292,6.575,876.106,0.427,1.081
0.078000,356329,1000.00,12,0,1,34.181,6.747,6.634,876.202,0.918,1.089
0.079000,356330,1000.00,12,0,1,33.869,4.955,6.671,875.746,0.137,1.085
0.080000,356331,1000.00,12,0,1,31.371,0.009,6.670,875.770,0.197,1.083
0.081000,356332,1000.00,12,0,1,30.891,-2.107,6.674,876.298,0.583,1.071
0.082000,356333,1000.00,12,0,1,34.350,-0.351,6.673,876.586,0.857,1.043
0.083000,356334,1000.00,12,0,1,38.986,3.116,6.680,877.980,1.776,1.050
0.084000,356335,1000.00,12,0,1,39.130,2.913,6.684,877.763,1.741,1.068
0.085000,356336,1000.00,12,0,1,40.211,2.441,6.667,875.914,-0.252,1.060
0.086000,356337,1000.00,12,0,1,41.123,3.801,6.688,875.457,-0.878,1.044
0.087000,356338,1000.00,12,0,1,32.404,-2.839,6.692,876.226,0.033,1.043
0.088000,356339,1000.00,12,0,1,30.218,-5.432,6.719,875.169,-0.585,1.040
0.089000,356340,1000.00,12,0,1,26.399,-4.590,6.750,876.370,0.029,1.028
0.090000,356341,1000.00,12,0,1,30.795,-1.083,6.751,877.811,1.795,1.049
0.091000,356342,1000.00,12,0,1,30.867,3.619,6.766,877.139,0.975,1.057
0.092000,356343,1000.00,12,0,1,24.933,-1.968,6.768,877.187,0.573,1.056
0.093000,356344,1000.00,12,0,1,25.390,-0.902,6.767,876.971,0.492,1.047
0.094000,356345,1000.00,12,0,1,27.888,2.571,6.777,876.947,0.055,1.042
0.095000,356346,1000.00,12,0,1,26.495,1.211,6.777,876.370,-0.269,1.042
0.096000,356347,1000.00,12,0,1,19.673,-4.674,6.803,875.265,-1.449,1.051
0.097000,356348,1000.00,12,0,1,15.589,-9.648,6.921,876.154,-0.747,1.057
0.098000,356349,1000.00,12,0,1,25.558,-1.408,6.923,877.932,0.999,1.066
0.099000,356350,1000.00,12,0,1,29.137,3.196,6.578,877.211,0.491,1.062
0.100000,356351,1000.00,12,0,1,33.173,3.141,5.615,876.130,-0.898,1.069
0.101000,356352,1000.00,12,0,1,38.313,6.954,5.609,876.298,-0.706,1.041
0.102000,356353,1000.00,12,0,1,43.910,8.806,5.444,875.962,-0.771,1.045
0.103000,356354,1000.00,12,0,1,39.538,4.424,5.184,875.818,-0.943,1.038
0.104000,356355,1000.00,12,0,1,36.055,-1.965,5.111,875.938,-0.570,1.040
0.105000,356356,1000.00,12,0,1,35.815,-1.540,5.115,876.418,-0.124,1.033
0.106000,356357,1000.00,12,0,1,29.834,-5.562,5.161,876.418,0.125,1.027
0.107000,356358,1000.00,12,0,1,25.798,-8.600,5.234,877.067,0.495,0.986
0.108000,356359,1000.00,12,0,1,27.600,-4.153,5.188,875.505,-0.390,0.982
0.109000,356360,1000.00,12,0,1,26.687,-2.121,4.485,876.562,-0.215,0.979
0.110000,356361,1000.00,12,0,1,21.835,-3.961,3.872,874.953,-0.464,0.981
0.111000,356362,1000.00,12,0,1,25.174,-0.285,3.868,875.121,-1.326,0.999
0.112000,356363,1000.00,12,0,1,25.390,3.551,3.870,874.665,-0.568,1.002
0.113000,356364,1000.00,12,0,1,22.916,0.869,3.860,876.466,0.220,0.960
0.114000,356365,1000.00,12,0,1,26.783,4.480,3.910,878.700,2.811,0.918
0.115000,356366,1000.00,12,0,1,24.765,3.577,3.942,876.058,0.467,0.896
0.116000,356367,1000.00,12,0,1,22.531,-0.673,3.941,877.956,0.696,0.866
0.117000,356368,1000.00,12,0,1,22.219,-1.091,3.933,877.043,1.321,0.864
0.118000,356369,1000.00,12,0,1,24.477,-0.890,3.934,873.656,-2.871,0.954
0.119000,356370,1000.00,12,0,1,27.528,1.129,3.933,875.650,-0.988,0.958
0.120000,356371,1000.00,12,0,1,30.170,1.627,3.916,875.217,-0.402,0.957
0.121000,356372,1000.00,12,0,1,33.173,2.673,3.845,875.938,-0.518,0.958
0.122000,356373,1000.00,12,0,1,34.542,2.524,3.821,877.595,1.604,0.980
0.123000,356374,1000.00,12,0,1,32.668,-0.282,3.820,877.908,1.536,0.998
0.124000,356375,1000.00,12,0,1,33.821,-0.429,3.821,875.938,-0.058,0.993
0.125000,356376,1000.00,12,0,1,34.806,1.100,3.804,874.929,-1.433,1.012
0.126000,356377,1000.00,12,0,1,30.578,-1.891,3.794,875.650,-0.465,1.014
0.127000,356378,1000.00,12,0,1,28.080,-3.688,3.781,874.857,-0.737,1.017
0.128000,356379,1000.00,12,0,1,25.774,-3.174,3.686,876.466,0.212,1.009
0.129000,356380,1000.00,12,0,1,25.582,-1.997,3.630,874.953,-0.010,1.009
0.130000,356381,1000.00,12,0,1,27.336,1.967,3.640,874.328,-1.543,1.032
0.131000,356382,1000.00,12,0,1,24.837,1.615,3.635,875.938,0.579,1.032
0.132000,356383,1000.00,12,0,1,23.228,0.588,3.636,875.698,0.454,1.027
0.133000,356384,1000.00,12,0,1,17.871,-2.153,3.622,874.112,-0.982,1.005
0.134000,356385,1000.00,12,0,1,15.661,-4.668,3.659,874.256,-0.976,0.984
0.135000,356386,1000.00,12,0,1,37.857,13.180,4.091,875.169,0.116,0.984
0.136000,356387,1000.00,12,0,1,39.346,18.154,4.800,876.610,1.324,0.994
0.137000,356388,1000.00,12,0,1,35.695,6.578,4.873,876.250,1.136,1.007
0.138000,356389,1000.00,12,0,1,38.889,8.179,4.949,876.875,1.060,1.014
0.139000,356390,1000.00,12,0,1,22.892,-7.115,5.009,877.115,1.429,1.034
0.140000,356391,1000.00,12,0,1,20.033,-15.141,5.445,875.650,-0.110,1.003
0.141000,356392,1000.00,12,0,1,21.306,-9.963,5.601,874.833,-1.079,1.005
0.142000,356393,1000.00,12,0,1,28.104,-6.521,5.670,877.571,1.172,1.015
0.143000,356394,1000.00,12,0,1,40.451,6.448,5.741,874.737,-0.271,1.014
0.144000,356395,1000.00,12,0,1,53.590,15.896,6.155,873.079,-2.898,1.093
0.145000,356396,1000.00,12,0,1,29.834,-1.430,6.156,874.785,-0.529,1.095
0.146000,356397,1000.00,12,0,1,20.898,-17.048,6.578,875.505,0.410,1.077
0.147000,356398,1000.00,12,0,1,26.447,-5.015,6.474,875.529,0.425,1.074
0.148000,356399,1000.00,12,0,1,25.486,-4.258,6.499,874.521,-0.219,1.065
0.149000,356400,1000.00,12,0,1,25.438,-2.212,6.490,876.322,0.763,1.068
0.150000,356401,1000.00,12,0,1,26.591,1.372,6.478,876.827,1.984,1.097
0.151000,356402,1000.00,12,0,1,23.180,-0.269,6.403,875.626,0.210,1.093
0.152000,356403,1000.00,12,0,1,17.919,-3.155,6.297,875.674,0.199,1.088
0.153000,356404,1000.00,12,0,1,17.895,-3.173,6.282,875.938,0.361,1.081
0.154000,356405,1000.00,12,0,1,37.064,13.336,6.553,877.115,1.131,1.090
0.155000,356406,1000.00,12,0,1,26.975,8.678,6.663,876.274,0.625,1.093
0.156000,356407,1000.00,12,0,1,9.512,-13.095,6.871,876.658,0.143,1.093
0.157000,356408,1000.00,12,0,1,15.902,-7.649,6.848,877.499,1.193,1.104
0.158000,356409,1000.00,12,0,1,19.144,-2.070,6.829,874.857,-1.154,1.115
0.159000,356410,1000.00,12,0,1,18.280,-4.941,6.858,876.226,-0.811,1.120
0.160000,356411,1000.00,12,0,1,20.249,-2.860,6.847,876.658,0.659,1.122
0.161000,356412,1000.00,12,0,1,24.213,-0.624,6.848,876.058,-0.571,1.109
0.162000,356413,1000.00,12,0,1,26.447,1.747,6.834,874.929,-1.057,1.116
0.163000,356414,1000.00,12,0,1,30.050,3.273,6.849,878.028,0.901,1.123
0.164000,356415,1000.00,12,0,1,28.849,3.134,6.834,877.379,1.593,1.074
0.165000,356416,1000.00,12,0,1,28.705,1.453,6.818,875.025,-1.532,1.094
0.166000,356417,1000.00,12,0,1,26.134,1.004,6.819,875.457,-0.949,1.098
0.167000,356418,1000.00,12,0,1,24.813,-0.341,6.817,875.073,-0.787,1.088
0.168000,356419,1000.00,12,0,1,23.612,0.831,6.817,875.169,-0.961,1.018
0.169000,356420,1000.00,12,0,1,20.826,-0.255,6.815,874.497,-0.860,1.016
0.170000,356421,1000.00,12,0,1,21.354,1.353,6.814,873.248,-2.149,1.059
0.171000,356422,1000.00,12,0,1,19.673,2.270,6.811,874.352,-0.903,1.064
0.172000,356423,1000.00,12,0,1,18.328,1.121,6.804,874.977,0.079,1.039
0.173000,356424,1000.00,12,0,1,23.492,6.203,6.860,874.352,-0.420,1.018
0.174000,356425,1000.00,12,0,1,33.533,14.259,7.150,875.938,0.652,1.022
0.175000,356426,1000.00,12,0,1,37.328,16.638,7.525,874.184,-0.098,1.002
0.176000,356427,1000.00,12,0,1,30.843,7.706,7.599,874.857,-0.633,1.004
0.177000,356428,1000.00,12,0,1,21.499,-3.573,7.598,877.115,2.103,1.042
0.178000,356429,1000.00,12,0,1,24.621,-3.904,7.605,874.785,0.088,1.042
0.179000,356430,1000.00,12,0,1,27.912,-0.339,7.600,875.313,-0.395,1.043
0.180000,356431,1000.00,12,0,1,30.074,-1.004,7.596,876.346,1.324,1.037
0.181000,356432,1000.00,12,0,1,35.046,2.142,7.599,876.154,0.654,1.038
0.182000,356433,1000.00,12,0,1,28.609,-3.405,7.613,874.136,-0.712,1.041
0.183000,356434,1000.00,12,0,1,16.983,-15.260,7.907,874.425,-1.061,1.042
0.184000,356435,1000.00,12,0,1,14.653,-16.271,8.209,873.776,-0.620,1.037
0.185000,356436,1000.00,12,0,1,20.442,-8.610,8.087,875.289,0.077,1.037
0.186000,356437,1000.00,12,0,1,29.377,1.713,7.672,875.818,1.462,1.040
0.187000,356438,1000.00,12,0,1,33.197,6.958,7.679,875.145,0.379,1.029
0.188000,356439,1000.00,12,0,1,24.213,0.400,7.592,876.082,1.085,1.030
0.189000,356440,1000.00,12,0,1,19.433,-4.640,7.553,875.169,0.640,1.014
0.190000,356441,1000.00,12,0,1,19.697,-1.538,7.246,875.818,0.373,1.015
0.191000,356442,1000.00,12,0,1,18.328,-1.174,7.110,875.962,1.123,1.016
0.192000,356443,1000.00,12,0,1,14.268,-3.010,7.063,876.154,0.509,1.005
0.193000,356444,1000.00,12,0,1,14.316,-2.523,7.013,878.964,2.823,1.081
0.194000,356445,1000.00,12,0,1,17.751,1.724,6.647,877.307,1.611,1.026
0.195000,356446,1000.00,12,0,1,19.457,3.480,6.662,875.962,-0.820,1.030
0.196000,356447,1000.00,12,0,1,22.099,4.495,6.243,874.569,-1.495,1.049
0.197000,356448,1000.00,12,0,1,23.084,4.647,6.238,875.866,-1.068,1.059
0.198000,356449,1000.00,12,0,1,22.555,2.028,6.215,876.370,0.288,1.059
0.199000,356450,1000.00,12,0,1,24.117,1.744,6.212,874.497,-1.636,1.078
0.200000,356451,1000.00,12,0,1,24.933,1.207,6.211,875.722,-0.824,1.048
0.201000,356452,1000.00,12,0,1,28.296,2.239,6.219,876.010,0.247,1.048
0.202000,356453,1000.00,12,0,1,33.461,5.783,6.257,877.211,0.604,1.051
0.203000,356454,1000.00,12,0,1,34.109,5.370,6.287,877.427,1.432,1.069
0.204000,356455,1000.00,12,0,1,28.248,-0.677,5.998,875.505,-0.712,1.062
0.205000,356456,1000.00,12,0,1,28.464,-1.918,5.877,875.842,-0.614,1.062
0.206000,356457,1000.00,12,0,1,26.591,-1.274,5.581,874.713,-0.962,1.070
0.207000,356458,1000.00,12,0,1,25.366,-2.592,5.487,873.223,-2.508,1.115
0.208000,356459,1000.00,12,0,1,25.510,-0.303,5.480,875.938,-0.037,1.103
0.209000,356460,1000.00,12,0,1,24.645,0.070,5.435,877.019,1.665,1.122
0.210000,356461,1000.00,12,0,1,25.846,2.035,5.428,876.827,0.911,1.125
0.211000,356462,1000.00,12,0,1,23.853,1.946,5.434,873.728,-1.388,1.140
0.212000,356463,1000.00,12,0,1,21.378,-0.520,5.429,875.818,-0.742,1.135
0.213000,356464,1000.00,12,0,1,24.261,2.301,5.419,873.536,-0.861,1.134
0.214000,356465,1000.00,12,0,1,30.290,7.220,5.496,872.767,-3.047,1.192
0.215000,356466,1000.00,12,0,1,30.891,7.274,5.588,874.905,0.014,1.172
0.216000,356467,1000.00,12,0,1,27.408,1.743,5.592,875.145,0.314,1.165
0.217000,356468,1000.00,12,0,1,26.014,-1.421,5.595,875.914,0.696,1.164
0.218000,356469,1000.00,12,0,1,29.858,0.116,5.594,877.379,2.133,1.195
0.219000,356470,1000.00,12,0,1,34.374,2.948,5.609,875.626,0.522,1.191
0.220000,356471,1000.00,12,0,1,35.046,1.814,5.612,874.136,-1.171,1.163
0.221000,356472,1000.00,12,0,1,30.722,-3.492,5.624,875.553,-0.020,1.156
0.222000,356473,1000.00,12,0,1,27.936,-7.375,5.718,875.025,0.270,1.157
0.223000,356474,1000.00,12,0,1,25.054,-9.088,5.795,876.322,0.582,1.158
0.224000,356475,1000.00,12,0,1,21.426,-11.340,5.664,876.466,1.583,1.176
0.225000,356476,1000.00,12,0,1,14.629,-14.671,5.555,874.160,-0.941,1.184
0.226000,356477,1000.00,12,0,1,7.182,-18.440,6.039,873.896,-1.211,1.192
0.227000,356478,1000.00,12,0,1,22.099,-4.150,6.046,876.058,0.857,1.161
0.228000,356479,1000.00,12,0,1,33.701,12.388,6.270,874.785,0.351,1.162
0.229000,356480,1000.00,12,0,1,31.611,9.716,6.419,874.905,-0.348,1.162
0.230000,356481,1000.00,12,0,1,20.970,1.234,6.420,873.656,-0.597,1.150
0.231000,356482,1000.00,12,0,1,18.112,-2.795,6.425,874.737,-0.462,1.148
0.232000,356483,1000.00,12,0,1,15.373,-2.137,6.414,874.617,0.396,1.145
0.233000,356484,1000.00,12,0,1,14.893,-2.920,6.054,874.929,-0.059,1.135
0.234000,356485,1000.00,12,0,1,20.297,2.760,5.613,872.815,-1.160,1.143
0.235000,356486,1000.00,12,0,1,25.126,7.184,5.573,875.578,0.120,1.143
0.236000,356487,1000.00,12,0,1,18.112,0.770,5.569,874.256,0.595,1.128
0.237000,356488,1000.00,12,0,1,22.195,0.532,5.482,876.322,0.565,1.129
0.238000,356489,1000.00,12,0,1,27.984,6.738,5.564,876.899,2.445,1.171
0.239000,356490,1000.00,12,0,1,29.017,5.066,5.571,874.809,-0.367,1.169
0.240000,356491,1000.00,12,0,1,29.425,3.610,5.590,873.103,-1.797,1.195
0.241000,356492,1000.00,12,0,1,33.365,4.991,5.632,875.385,0.015,1.184
0.242000,356493,1000.00,12,0,1,36.920,6.845,5.699,874.064,-0.159,1.182
0.243000,356494,1000.00,12,0,1,32.284,2.204,5.696,872.239,-2.243,1.157
0.244000,356495,1000.00,12,0,1,27.936,-3.676,5.715,874.665,-0.042,1.135
0.245000,356496,1000.00,12,0,1,28.416,-2.343,5.703,876.058,2.060,1.166
0.246000,356497,1000.00,12,0,1,31.683,0.930,5.669,873.248,-0.621,1.150
0.247000,356498,1000.00,12,0,1,32.140,2.938,5.646,873.656,-0.700,1.144
0.248000,356499,1000.00,12,0,1,30.963,1.835,5.645,875.866,1.648,1.167
0.249000,356500,1000.00,12,0,1,31.515,2.943,5.655,876.130,1.961,1.177
0.250000,356501,1000.00,12,0,1,30.770,2.931,5.667,875.962,1.265,1.185
0.251000,356502,1000.00,12,0,1,28.296,0.875,5.660,874.088,-0.204,1.184
0.252000,356503,1000.00,12,0,1,19.168,-5.985,5.664,874.737,-0.478,1.183
0.253000,356504,1000.00,12,0,1,10.353,-13.803,5.943,874.569,0.188,1.166
0.254000,356505,1000.00,12,0,1,8.263,-13.809,6.255,874.929,-0.250,1.162
0.255000,356506,1000.00,12,0,1,9.536,-10.620,6.427,874.809,0.166,1.159
0.256000,356507,1000.00,12,0,1,12.707,-6.494,6.489,875.505,0.204,1.152
0.257000,356508,1000.00,12,0,1,19.433,-0.270,6.479,876.298,1.130,1.107
0.258000,356509,1000.00,12,0,1,23.660,3.617,6.499,876.010,0.645,1.111
0.259000,356510,1000.00,12,0,1,24.333,2.731,6.511,875.505,-0.041,1.086
0.260000,356511,1000.00,12,0,1,26.543,2.912,6.517,875.169,-0.319,1.079
0.261000,356512,1000.00,12,0,1,26.159,1.980,6.518,874.328,-1.045,1.071
0.262000,356513,1000.00,12,0,1,27.528,1.294,6.520,875.794,0.088,1.066
0.263000,356514,1000.00,12,0,1,38.289,9.539,6.650,876.779,1.356,1.076
0.264000,356515,1000.00,12,0,1,37.448,9.974,6.721,875.553,0.172,0.987
0.265000,356516,1000.00,12,0,1,42.445,9.720,6.782,875.265,-0.436,0.989
0.266000,356517,1000.00,12,0,1,36.463,7.449,6.859,873.031,-1.755,1.018
0.267000,356518,1000.00,12,0,1,28.657,-3.106,6.870,876.250,0.033,1.014
0.268000,356519,1000.00,12,0,1,22.147,-5.882,6.920,875.169,0.955,0.977
0.269000,356520,1000.00,12,0,1,22.748,-5.351,6.949,874.400,-1.363,0.993
0.270000,356521,1000.00,12,0,1,39.058,10.215,7.093,876.178,1.008,0.989
0.271000,356522,1000.00,12,0,1,33.845,10.028,7.217,877.475,1.789,1.021
0.272000,356523,1000.00,12,0,1,7.831,-15.336,7.463,875.674,0.332,1.022
0.273000,356524,1000.00,12,0,1,8.191,-16.350,7.706,874.881,-1.070,1.030
0.274000,356525,1000.00,12,0,1,9.488,-8.879,7.642,873.223,-2.038,1.045
0.275000,356526,1000.00,12,0,1,7.494,-10.940,7.516,875.746,-0.459,1.039
0.276000,356527,1000.00,12,0,1,22.435,2.266,7.056,875.001,0.154,1.025
0.277000,356528,1000.00,12,0,1,26.110,8.254,7.128,873.800,-1.788,1.049
0.278000,356529,1000.00,12,0,1,29.714,6.015,6.961,874.352,-0.842,1.054
0.279000,356530,1000.00,12,0,1,32.692,8.657,6.933,874.184,-0.687,1.058
0.280000,356531,1000.00,12,0,1,25.198,-0.920,6.932,875.097,-0.110,1.054
0.281000,356532,1000.00,12,0,1,24.021,-4.678,6.953,875.505,0.824,1.059
0.282000,356533,1000.00,12,0,1,27.191,-1.485,6.949,873.896,-0.780,1.063
0.283000,356534,1000.00,12,0,1,28.032,-1.047,6.938,871.710,-2.387,1.115
0.284000,356535,1000.00,12,0,1,24.573,-3.318,6.943,872.287,-1.979,1.138
0.285000,356536,1000.00,12,0,1,22.916,-4.827,6.902,874.569,0.785,1.143
0.286000,356537,1000.00,12,0,1,22.003,-3.321,6.918,874.232,0.822,1.146
0.287000,356538,1000.00,12,0,1,22.844,-1.392,6.920,875.794,1.593,1.165
0.288000,356539,1000.00,12,0,1,20.442,-0.634,6.855,876.658,2.788,1.181
0.289000,356540,1000.00,12,0,1,21.691,0.915,6.818,874.449,0.435,1.181
0.290000,356541,1000.00,12,0,1,23.804,5.243,6.839,872.551,-1.540,1.174
0.291000,356542,1000.00,12,0,1,17.199,0.848,6.804,873.007,-1.108,1.184
0.292000,356543,1000.00,12,0,1,12.995,-3.303,6.751,874.449,0.436,1.186
0.293000,356544,1000.00,12,0,1,14.364,-0.555,6.744,874.617,0.770,1.148
0.294000,356545,1000.00,12,0,1,19.889,4.168,6.750,876.154,1.591,1.169
0.295000,356546,1000.00,12,0,1,21.523,6.177,6.798,874.905,1.008,1.142
0.296000,356547,1000.00,12,0,1,22.315,4.377,6.825,875.025,0.023,1.138
0.297000,356548,1000.00,12,0,1,18.640,0.626,6.813,874.905,0.568,1.137
0.298000,356549,1000.00,12,0,1,19.697,-1.655,6.812,875.193,0.172,1.113
0.299000,356550,1000.00,12,0,1,19.841,-1.165,6.801,876.827,1.714,1.105
0.300000,356551,1000.00,12,0,1,18.040,-4.562,6.819,875.313,0.585,1.093
0.301000,356552,1000.00,12,0,1,24.309,-0.345,6.818,875.674,-0.044,1.093
0.302000,356553,1000.00,12,0,1,30.722,5.734,6.814,875.818,0.790,1.096
0.303000,356554,1000.00,12,0,1,31.611,5.164,6.569,875.409,-0.166,1.096
0.304000,356555,1000.00,12,0,1,28.513,1.907,6.278,876.827,1.119,1.107
0.305000,356556,1000.00,12,0,1,22.651,-3.544,6.116,876.106,0.688,1.111
0.306000,356557,1000.00,12,0,1,24.165,-2.165,6.055,875.313,-0.542,1.113
0.307000,356558,1000.00,12,0,1,26.110,2.004,6.061,874.449,-0.989,1.111
0.308000,356559,1000.00,12,0,1,17.367,-3.700,6.062,876.562,0.316,1.108
0.309000,356560,1000.00,12,0,1,9.032,-10.273,6.222,875.842,0.627,1.111
0.310000,356561,1000.00,12,0,1,18.688,-0.493,6.208,875.409,-0.789,1.116
0.311000,356562,1000.00,12,0,1,22.603,7.526,6.293,875.553,-0.134,1.106
0.312000,356563,1000.00,12,0,1,19.072,3.271,6.307,876.130,-0.036,1.106
0.313000,356564,1000.00,12,0,1,17.271,1.850,6.167,873.584,-1.684,1.115
0.314000,356565,1000.00,12,0,1,15.830,0.324,6.003,874.425,-1.832,1.145
0.315000,356566,1000.00,12,0,1,16.790,0.330,5.844,875.121,-0.138,1.143
0.316000,356567,1000.00,12,0,1,20.586,2.976,5.764,875.986,0.086,1.116
0.317000,356568,1000.00,12,0,1,21.402,2.603,5.759,874.713,-0.445,1.118
0.318000,356569,1000.00,12,0,1,19.601,-0.736,5.699,876.034,-0.090,1.110
0.319000,356570,1000.00,12,0,1,19.361,-2.751,5.662,875.433,0.284,1.094
0.320000,356571,1000.00,12,0,1,25.678,1.253,5.478,874.184,-1.385,1.102
0.321000,356572,1000.00,12,0,1,31.107,5.491,5.348,875.145,-0.407,1.074
0.322000,356573,1000.00,12,0,1,31.203,4.011,4.921,875.818,0.605,1.076
0.323000,356574,1000.00,12,0,1,29.329,0.868,4.346,875.626,0.225,1.066
0.324000,356575,1000.00,12,0,1,30.242,0.794,4.162,875.481,0.262,1.027
0.325000,356576,1000.00,12,0,1,27.648,-0.598,3.864,874.953,-0.310,1.026
0.326000,356577,1000.00,12,0,1,24.213,-3.591,3.884,874.833,-0.290,1.027
0.327000,356578,1000.00,12,0,1,21.883,-3.959,3.747,876.034,0.626,0.999
0.328000,356579,1000.00,12,0,1,21.114,-3.040,3.674,875.049,0.279,0.993
0.329000,356580,1000.00,12,0,1,22.603,0.054,3.464,876.514,0.661,0.992
0.330000,356581,1000.00,12,0,1,18.208,-1.292,3.467,878.532,2.966,1.077
0.331000,356582,1000.00,12,0,1,14.917,-4.066,3.451,876.298,0.733,1.076
0.332000,356583,1000.00,12,0,1,15.133,-1.916,3.455,875.265,-0.970,1.079
0.333000,356584,1000.00,12,0,1,14.340,-1.684,3.461,877.259,0.845,1.032
0.334000,356585,1000.00,12,0,1,15.517,-0.563,3.429,878.820,2.175,1.039
0.335000,356586,1000.00,12,0,1,15.710,-0.030,3.361,877.163,0.654,1.038
0.336000,356587,1000.00,12,0,1,16.070,-0.852,3.330,876.586,-0.689,1.036
0.337000,356588,1000.00,12,0,1,19.168,0.927,3.327,877.883,0.593,1.014
0.338000,356589,1000.00,12,0,1,15.469,-2.513,3.345,878.940,1.339,0.954
0.339000,356590,1000.00,12,0,1,18.328,-3.068,3.370,878.172,0.602,0.955
0.340000,356591,1000.00,12,0,1,29.089,6.242,3.404,876.779,-0.993,0.941
0.341000,356592,1000.00,12,0,1,27.576,4.775,3.468,877.451,-0.618,0.932
0.342000,356593,1000.00,12,0,1,26.159,-0.009,3.437,876.298,-1.036,0.941
0.343000,356594,1000.00,12,0,1,28.801,2.469,3.453,876.490,-1.440,0.957
0.344000,356595,1000.00,12,0,1,30.362,3.165,3.432,874.833,-1.866,0.967
0.345000,356596,1000.00,12,0,1,39.946,10.303,3.625,875.073,-2.297,1.010
0.346000,356597,1000.00,12,0,1,36.511,9.470,3.814,875.337,-0.959,1.019
0.347000,356598,1000.00,12,0,1,12.707,-11.948,4.171,875.626,-0.954,1.025
0.348000,356599,1000.00,12,0,1,16.190,-11.335,4.462,874.425,-1.331,1.041
0.349000,356600,1000.00,12,0,1,19.553,-0.225,4.459,876.947,0.219,1.013
0.350000,356601,1000.00,12,0,1,14.148,-5.331,4.476,876.034,0.660,1.014
0.351000,356602,1000.00,12,0,1,16.166,-1.481,4.481,876.466,-0.222,1.015
0.352000,356603,1000.00,12,0,1,23.324,5.931,4.486,874.232,-1.010,1.019
0.353000,356604,1000.00,12,0,1,16.070,1.623,4.432,874.112,-2.153,1.063
0.354000,356605,1000.00,12,0,1,15.181,-2.480,4.438,875.097,-0.306,1.052
0.355000,356606,1000.00,12,0,1,9.608,-4.552,4.456,875.986,0.329,1.048
0.356000,356607,1000.00,12,0,1,11.722,-5.979,4.525,876.370,0.800,1.052
0.357000,356608,1000.00,12,0,1,21.619,3.853,4.549,876.178,0.639,1.046
0.358000,356609,1000.00,12,0,1,26.014,6.578,4.614,875.169,-0.390,1.047
0.359000,356610,1000.00,12,0,1,25.678,3.568,4.408,874.280,-0.976,1.052
0.360000,356611,1000.00,12,0,1,29.377,4.279,4.449,874.545,-0.806,1.052
0.361000,356612,1000.00,12,0,1,37.496,8.900,4.499,874.040,-0.557,1.055
0.362000,356613,1000.00,12,0,1,35.503,6.810,4.578,873.392,-1.242,1.070
0.363000,356614,1000.00,12,0,1,25.174,-5.120,4.627,873.151,-0.890,1.050
0.364000,356615,1000.00,12,0,1,22.291,-8.139,4.768,874.569,0.296,1.019
0.365000,356616,1000.00,12,0,1,22.676,-5.893,4.840,873.968,0.557,1.022
0.366000,356617,1000.00,12,0,1,23.420,-3.483,4.847,874.328,0.259,1.022
0.367000,356618,1000.00,12,0,1,23.420,-1.350,4.837,873.776,0.479,1.023
0.368000,356619,1000.00,12,0,1,24.765,1.260,4.839,874.376,0.402,1.024
0.369000,356620,1000.00,12,0,1,20.634,0.168,4.823,875.289,1.611,1.048
0.370000,356621,1000.00,12,0,1,16.022,-3.369,4.844,875.770,1.679,1.057
0.371000,356622,1000.00,12,0,1,14.364,-2.896,4.798,876.010,1.685,1.082
0.372000,356623,1000.00,12,0,1,11.890,-3.395,4.789,874.977,0.660,1.083
0.373000,356624,1000.00,12,0,1,13.452,-1.687,4.793,874.376,-0.346,1.083
0.374000,356625,1000.00,12,0,1,14.725,0.769,4.793,876.706,1.544,1.104
0.375000,356626,1000.00,12,0,1,17.415,1.856,4.800,875.073,0.661,1.107
0.376000,356627,1000.00,12,0,1,21.643,4.947,4.824,871.926,-2.743,1.173
0.377000,356628,1000.00,12,0,1,25.366,6.076,4.868,874.977,-0.336,1.170
0.378000,356629,1000.00,12,0,1,27.456,5.720,4.916,876.178,1.916,1.201
0.379000,356630,1000.00,12,0,1,31.563,6.138,4.992,875.265,0.365,1.198
0.380000,356631,1000.00,12,0,1,22.411,-2.171,4.998,872.479,-1.549,1.143
0.381000,356632,1000.00,12,0,1,14.412,-12.838,5.286,873.151,-1.679,1.163
0.382000,356633,1000.00,12,0,1,20.105,-7.206,5.377,874.737,0.768,1.160
0.383000,356634,1000.00,12,0,1,26.279,0.093,5.371,875.121,0.898,1.161
0.384000,356635,1000.00,12,0,1,23.396,-1.425,5.375,875.217,1.003,1.129
0.385000,356636,1000.00,12,0,1,22.507,-2.318,5.384,875.025,0.730,1.129
0.386000,356637,1000.00,12,0,1,21.210,-1.188,5.386,876.370,1.471,1.144
0.387000,356638,1000.00,12,0,1,17.175,-3.129,5.402,874.929,0.708,1.146
0.388000,356639,1000.00,12,0,1,20.201,0.522,5.391,874.713,-0.544,1.132
0.389000,356640,1000.00,12,0,1,26.110,8.252,5.499,876.418,1.358,1.145
0.390000,356641,1000.00,12,0,1,32.956,13.978,5.776,874.929,0.057,1.137
0.391000,356642,1000.00,12,0,1,30.722,12.833,6.017,873.392,-1.759,1.160
0.392000,356643,1000.00,12,0,1,35.647,12.776,6.282,872.575,-2.137,1.190
0.393000,356644,1000.00,12,0,1,23.492,4.722,6.308,874.857,-0.384,1.174
0.394000,356645,1000.00,12,0,1,-1.489,-20.885,6.951,874.905,0.621,1.147
0.395000,356646,1000.00,12,0,1,3.819,-17.808,7.248,874.881,-0.184,1.101
0.396000,356647,1000.00,12,0,1,20.850,1.652,7.127,876.250,1.293,1.107
0.397000,356648,1000.00,12,0,1,29.930,8.507,7.028,874.833,0.180,1.099
0.398000,356649,1000.00,12,0,1,38.889,13.651,7.110,875.025,-0.338,1.084
0.399000,356650,1000.00,12,0,1,24.621,0.704,7.110,875.217,0.442,1.086
0.400000,356651,1000.00,12,0,1,20.297,-10.134,7.214,876.106,0.659,1.086
0.401000,356652,1000.00,12,0,1,18.880,-7.924,7.297,875.001,0.308,1.086
0.402000,356653,1000.00,12,0,1,16.911,-11.315,7.424,873.656,-1.459,1.096
0.403000,356654,1000.00,12,0,1,18.472,-7.718,7.500,873.536,-1.171,1.066
0.404000,356655,1000.00,12,0,1,22.027,-3.414,7.507,874.881,0.005,1.065
0.405000,356656,1000.00,12,0,1,25.822,1.388,7.482,874.785,0.394,1.066
0.406000,356657,1000.00,12,0,1,26.855,3.884,7.455,873.944,-0.574,1.063
0.407000,356658,1000.00,12,0,1,22.868,1.110,7.436,874.400,-0.218,1.059
0.408000,356659,1000.00,12,0,1,19.313,-0.882,7.379,873.776,-0.374,1.059
0.409000,356660,1000.00,12,0,1,18.592,-0.337,7.362,873.536,-0.921,1.058
0.410000,356661,1000.00,12,0,1,21.691,3.905,7.358,875.818,1.161,1.065
0.411000,356662,1000.00,12,0,1,16.959,1.710,7.253,875.698,1.376,1.079
0.412000,356663,1000.00,12,0,1,13.452,-2.156,7.195,875.938,0.822,1.071
0.413000,356664,1000.00,12,0,1,16.406,1.230,7.161,875.890,0.974,1.073
0.414000,356665,1000.00,12,0,1,19.841,4.492,7.096,873.896,-0.998,1.081
0.415000,356666,1000.00,12,0,1,17.079,1.702,7.051,873.007,-1.977,1.114
0.416000,356667,1000.00,12,0,1,17.463,-0.217,7.034,872.623,-1.817,1.143
0.417000,356668,1000.00,12,0,1,22.411,3.219,7.046,874.857,-0.039,1.141
0.418000,356669,1000.00,12,0,1,25.558,4.613,7.074,873.608,-0.003,1.139
0.419000,356670,1000.00,12,0,1,24.549,1.771,7.079,874.184,-0.564,1.119
0.420000,356671,1000.00,12,0,1,25.054,0.002,7.063,875.986,1.872,1.125
0.421000,356672,1000.00,12,0,1,29.882,2.714,7.061,875.025,0.850,1.106
0.422000,356673,1000.00,12,0,1,34.181,5.720,7.091,876.466,1.463,1.122
0.423000,356674,1000.00,12,0,1,30.506,1.794,7.092,877.091,2.473,1.174
0.424000,356675,1000.00,12,0,1,25.006,-4.189,7.115,875.361,0.344,1.154
0.425000,356676,1000.00,12,0,1,27.816,-1.828,7.115,874.881,-0.323,1.151
0.426000,356677,1000.00,12,0,1,27.840,0.690,7.082,876.346,0.789,1.090
0.427000,356678,1000.00,12,0,1,25.486,-1.252,7.031,875.650,0.547,1.092
0.428000,356679,1000.00,12,0,1,23.444,-1.261,6.987,874.184,-1.250,1.072
0.429000,356680,1000.00,12,0,1,22.123,-1.343,6.935,874.665,-0.807,1.077
0.430000,356681,1000.00,12,0,1,20.033,-1.416,6.932,875.289,-0.039,1.054
0.431000,356682,1000.00,12,0,1,19.072,-1.442,6.693,872.383,-2.204,1.074
0.432000,356683,1000.00,12,0,1,16.646,-2.151,6.622,876.322,0.089,1.068
0.433000,356684,1000.00,12,0,1,12.515,-5.224,6.663,876.899,2.398,1.113
0.434000,356685,1000.00,12,0,1,6.558,-9.484,6.793,877.163,0.886,1.112
0.435000,356686,1000.00,12,0,1,13.091,-4.661,6.817,875.457,0.305,1.108
0.436000,356687,1000.00,12,0,1,30.098,10.862,6.986,875.121,-1.165,1.100
0.437000,356688,1000.00,12,0,1,48.426,24.492,7.785,875.169,-0.402,1.097
0.438000,356689,1000.00,12,0,1,46.792,20.637,8.314,876.466,0.305,1.095
0.439000,356690,1000.00,12,0,1,23.396,-4.974,8.262,876.490,0.727,1.083
0.440000,356691,1000.00,12,0,1,22.315,-12.215,8.206,875.241,-0.572,1.086
0.441000,356692,1000.00,12,0,1,27.287,-4.041,8.023,874.400,-1.439,1.077
0.442000,356693,1000.00,12,0,1,26.183,-6.444,7.870,875.890,-0.009,1.033
0.443000,356694,1000.00,12,0,1,25.990,-5.505,7.880,875.361,-0.035,1.032
0.444000,356695,1000.00,12,0,1,24.381,-5.911,7.353,876.346,0.331,1.029
0.445000,356696,1000.00,12,0,1,26.279,-3.415,6.925,875.313,0.055,1.029
0.446000,356697,1000.00,12,0,1,33.269,4.373,6.949,875.145,-0.755,1.018
0.447000,356698,1000.00,12,0,1,38.169,9.740,6.981,875.938,0.322,1.019
0.448000,356699,1000.00,12,0,1,35.382,7.871,6.800,876.394,0.624,1.022
0.449000,356700,1000.00,12,0,1,34.013,5.224,6.840,875.722,0.018,1.020
0.450000,356701,1000.00,12,0,1,23.925,-1.427,6.691,874.208,-1.324,1.033
0.451000,356702,1000.00,12,0,1,15.950,-9.964,6.745,873.512,-2.042,1.071
0.452000,356703,1000.00,12,0,1,15.037,-8.194,6.654,872.046,-2.651,1.116
0.453000,356704,1000.00,12,0,1,21.715,-1.915,6.570,873.944,-1.369,1.121
0.454000,356705,1000.00,12,0,1,22.171,0.803,6.553,874.593,0.442,1.122
0.455000,356706,1000.00,12,0,1,23.564,-0.302,6.550,873.944,-0.639,1.125
0.456000,356707,1000.00,12,0,1,26.207,1.991,6.533,875.794,1.050,1.131
0.457000,356708,1000.00,12,0,1,28.296,1.915,6.537,875.217,1.004,1.140
0.458000,356709,1000.00,12,0,1,26.711,-0.658,6.536,875.938,0.779,1.144
0.459000,356710,1000.00,12,0,1,26.279,-3.078,6.551,875.073,0.759,1.142
0.460000,356711,1000.00,12,0,1,29.642,-1.271,6.530,875.265,0.001,1.130
0.461000,356712,1000.00,12,0,1,29.666,-1.121,6.527,875.457,0.821,1.119
0.462000,356713,1000.00,12,0,1,37.881,3.387,6.538,874.929,-0.023,1.113
0.463000,356714,1000.00,12,0,1,38.289,6.046,6.591,874.425,-0.293,1.105
0.464000,356715,1000.00,12,0,1,28.008,-4.928,6.597,875.818,0.705,1.101
0.465000,356716,1000.00,12,0,1,28.489,-4.873,6.629,874.809,0.392,1.066
0.466000,356717,1000.00,12,0,1,29.017,-1.213,6.631,873.896,-0.939,1.043
0.467000,356718,1000.00,12,0,1,25.534,-3.325,6.632,875.385,0.490,1.045
0.468000,356719,1000.00,12,0,1,22.916,-3.536,6.619,874.352,0.132,1.045
0.469000,356720,1000.00,12,0,1,25.990,0.305,6.614,874.977,-0.135,1.042
0.470000,356721,1000.00,12,0,1,25.198,2.497,6.624,874.328,0.192,1.009
0.471000,356722,1000.00,12,0,1,27.263,3.462,6.631,874.665,-0.383,1.003
0.472000,356723,1000.00,12,0,1,17.151,-2.226,6.589,875.746,1.125,0.994
0.473000,356724,1000.00,12,0,1,13.596,-8.351,6.689,876.178,1.107,0.944
0.474000,356725,1000.00,12,0,1,17.799,-1.903,6.668,875.217,0.314,0.944
0.475000,356726,1000.00,12,0,1,18.928,-0.957,6.664,876.010,0.404,0.944
0.476000,356727,1000.00,12,0,1,20.730,-0.267,6.664,876.586,1.173,0.952
0.477000,356728,1000.00,12,0,1,26.159,3.506,6.680,875.121,-0.292,0.950
0.478000,356729,1000.00,12,0,1,26.735,3.005,6.691,874.641,-1.084,0.946
0.479000,356730,1000.00,12,0,1,24.213,-1.115,6.690,874.040,-1.140,0.953
0.480000,356731,1000.00,12,0,1,37.881,7.187,6.764,875.025,-0.606,0.956
0.481000,356732,1000.00,12,0,1,42.421,13.128,7.011,875.313,0.351,0.906
0.482000,356733,1000.00,12,0,1,36.704,3.470,7.022,875.265,-0.082,0.906
0.483000,356734,1000.00,12,0,1,25.630,-5.953,7.033,874.184,-0.585,0.844
0.484000,356735,1000.00,12,0,1,22.796,-10.182,7.053,874.761,-0.511,0.837
0.485000,356736,1000.00,12,0,1,37.881,4.573,7.052,875.145,0.426,0.838
0.486000,356737,1000.00,12,0,1,47.609,15.880,7.239,875.289,0.274,0.823
0.487000,356738,1000.00,12,0,1,25.366,-2.128,6.364,875.938,0.879,0.830
0.488000,356739,1000.00,12,0,1,23.444,-8.924,5.795,875.313,0.411,0.831
0.489000,356740,1000.00,12,0,1,24.117,-0.931,5.753,874.425,-0.679,0.831
0.490000,356741,1000.00,12,0,1,20.394,-5.095,5.535,875.385,0.126,0.827
0.491000,356742,1000.00,12,0,1,15.830,-5.808,5.566,876.250,0.987,0.813
0.492000,356743,1000.00,12,0,1,15.998,-5.370,5.543,874.184,-0.667,0.819
0.493000,356744,1000.00,12,0,1,24.117,2.775,5.502,873.896,-1.549,0.848
0.494000,356745,1000.00,12,0,1,24.933,5.128,5.487,873.920,-0.821,0.854
0.495000,356746,1000.00,12,0,1,20.922,-1.053,5.467,874.905,-0.301,0.855
0.496000,356747,1000.00,12,0,1,19.265,-2.911,5.448,875.481,0.702,0.854
0.497000,356748,1000.00,12,0,1,22.603,-2.007,5.279,873.344,-1.160,0.869
0.498000,356749,1000.00,12,0,1,24.693,0.119,5.160,873.848,-1.167,0.880
0.499000,356750,1000.00,12,0,1,26.615,-0.558,5.107,875.121,0.658,0.885
0.500000,356751,1000.00,12,0,1,29.281,1.189,5.106,874.785,0.259,0.866
0.501000,356752,1000.00,12,0,1,31.131,1.402,4.912,875.890,1.021,0.829
0.502000,356753,1000.00,12,0,1,33.605,2.662,4.788,876.562,1.781,0.781
0.503000,356754,1000.00,12,0,1,32.932,1.963,4.788,874.809,0.127,0.757
0.504000,356755,1000.00,12,0,1,32.740,0.972,4.789,875.337,0.012,0.754
0.505000,356756,1000.00,12,0,1,30.290,0.128,4.789,875.289,0.550,0.753
0.506000,356757,1000.00,12,0,1,29.449,-0.601,4.781,875.025,-0.139,0.738
0.507000,356758,1000.00,12,0,1,33.653,4.504,4.816,876.562,1.217,0.744
0.508000,356759,1000.00,12,0,1,34.302,6.658,4.906,877.595,2.127,0.795
0.509000,356760,1000.00,12,0,1,29.257,2.676,4.902,877.691,1.793,0.828
0.510000,356761,1000.00,12,0,1,27.864,1.285,4.902,876.226,0.368,0.829
0.511000,356762,1000.00,12,0,1,26.447,1.441,4.903,874.953,-1.231,0.840
0.512000,356763,1000.00,12,0,1,27.336,1.685,4.886,872.455,-2.940,0.937
0.513000,356764,1000.00,12,0,1,25.294,0.808,4.812,874.497,-1.765,0.969
0.514000,356765,1000.00,12,0,1,16.838,-7.066,4.865,874.761,-0.063,0.964
0.515000,356766,1000.00,12,0,1,15.806,-9.260,4.991,873.368,-1.885,0.998
0.516000,356767,1000.00,12,0,1,24.813,-0.954,4.989,874.857,-0.395,0.991
0.517000,356768,1000.00,12,0,1,28.561,2.577,4.981,876.731,1.543,1.012
0.518000,356769,1000.00,12,0,1,31.371,2.294,4.966,875.578,0.577,1.015
0.519000,356770,1000.00,12,0,1,31.419,1.336,4.969,875.553,-0.014,1.015
0.520000,356771,1000.00,12,0,1,29.569,-2.569,4.970,875.025,-0.132,1.015
0.521000,356772,1000.00,12,0,1,34.157,-0.203,4.946,872.767,-2.105,1.056
0.522000,356773,1000.00,12,0,1,38.913,4.013,4.969,876.250,0.302,1.045
0.523000,356774,1000.00,12,0,1,40.739,4.351,4.865,875.481,1.269,1.049
0.524000,356775,1000.00,12,0,1,39.994,3.362,4.881,875.842,-0.093,1.048
0.525000,356776,1000.00,12,0,1,44.150,5.592,4.943,876.106,1.279,1.062
0.526000,356777,1000.00,12,0,1,39.586,3.717,4.971,876.634,0.764,1.055
0.527000,356778,1000.00,12,0,1,31.059,-4.894,4.994,878.172,2.336,1.104
0.528000,356779,1000.00,12,0,1,29.810,-4.490,5.016,877.259,1.399,1.111
0.529000,356780,1000.00,12,0,1,33.845,0.942,5.015,876.490,0.029,1.100
0.530000,356781,1000.00,12,0,1,34.998,3.828,4.941,877.043,0.593,1.100
0.531000,356782,1000.00,12,0,1,34.181,3.272,4.602,875.529,-0.709,1.103
0.532000,356783,1000.00,12,0,1,29.521,-0.311,4.576,874.881,-1.541,1.124
0.533000,356784,1000.00,12,0,1,24.717,-4.971,4.553,876.706,0.104,1.121
0.534000,356785,1000.00,12,0,1,23.396,-6.062,4.403,874.689,-0.874,1.126
0.535000,356786,1000.00,12,0,1,25.294,-4.240,4.397,874.088,-2.291,1.170
0.536000,356787,1000.00,12,0,1,26.687,-3.180,3.807,875.457,-0.288,1.170
0.537000,356788,1000.00,12,0,1,28.489,-2.597,3.812,876.658,0.621,1.167
0.538000,356789,1000.00,12,0,1,34.614,1.110,3.601,874.376,-0.851,1.171
0.539000,356790,1000.00,12,0,1,43.982,7.727,3.761,876.274,-0.295,1.168
0.540000,356791,1000.00,12,0,1,38.409,2.304,3.705,876.706,1.306,1.183
0.541000,356792,1000.00,12,0,1,35.911,-4.510,3.669,877.331,0.748,1.179
0.542000,356793,1000.00,12,0,1,33.725,-4.962,3.658,876.418,0.548,1.178
0.543000,356794,1000.00,12,0,1,33.893,-6.167,3.740,876.178,-0.456,1.159
0.544000,356795,1000.00,12,0,1,33.749,-4.030,3.713,875.986,-0.241,1.154
0.545000,356796,1000.00,12,0,1,33.149,-3.841,3.749,874.569,-1.448,1.171
0.546000,356797,1000.00,12,0,1,32.332,-2.514,3.743,875.025,-1.272,1.181
0.547000,356798,1000.00,12,0,1,33.269,-0.078,3.733,876.562,0.646,1.173
0.548000,356799,1000.00,12,0,1,32.692,1.518,3.739,875.914,0.129,1.161
0.549000,356800,1000.00,12,0,1,31.875,2.137,3.750,873.656,-1.703,1.182
0.550000,356801,1000.00,12,0,1,30.170,1.965,3.757,875.097,-0.893,1.188
0.551000,356802,1000.00,12,0,1,25.462,-0.783,3.753,876.971,1.635,1.202
0.552000,356803,1000.00,12,0,1,24.285,-1.877,3.744,877.355,1.581,1.196
0.553000,356804,1000.00,12,0,1,24.333,-0.263,3.733,875.289,-0.020,1.196
0.554000,356805,1000.00,12,0,1,25.150,-0.082,3.731,876.370,0.015,1.196
0.555000,356806,1000.00,12,0,1,30.338,3.925,3.772,876.731,1.148,1.205
0.556000,356807,1000.00,12,0,1,44.630,13.953,4.256,875.337,-0.591,1.207
0.557000,356808,1000.00,12,0,1,41.628,11.522,4.513,875.746,-0.373,1.196
0.558000,356809,1000.00,12,0,1,27.648,-6.159,4.498,875.385,-0.289,1.159
0.559000,356810,1000.00,12,0,1,32.884,-4.938,4.537,875.385,-0.672,1.135
0.560000,356811,1000.00,12,0,1,31.947,-3.087,4.554,873.992,-1.258,1.147
0.561000,356812,1000.00,12,0,1,32.020,-6.647,4.645,874.425,-1.434,1.152
0.562000,356813,1000.00,12,0,1,34.734,-2.207,4.650,877.187,1.518,1.095
0.563000,356814,1000.00,12,0,1,37.064,-1.069,4.651,876.827,1.414,1.085
0.564000,356815,1000.00,12,0,1,36.223,-0.290,4.542,876.370,0.367,1.086
0.565000,356816,1000.00,12,0,1,36.752,-0.104,4.349,875.457,-0.148,1.053
0.566000,356817,1000.00,12,0,1,39.802,3.867,4.382,875.505,-0.536,1.055
0.567000,356818,1000.00,12,0,1,43.718,7.999,4.511,876.418,0.592,1.035
0.568000,356819,1000.00,12,0,1,36.608,3.447,4.525,875.938,0.216,1.032
0.569000,356820,1000.00,12,0,1,26.303,-5.925,4.598,874.184,-1.299,1.049
0.570000,356821,1000.00,12,0,1,22.411,-7.821,4.715,875.337,-0.564,1.052
0.571000,356822,1000.00,12,0,1,26.735,-2.087,4.725,876.899,1.362,1.027
0.572000,356823,1000.00,12,0,1,30.867,3.478,4.716,874.545,-0.513,1.028
0.573000,356824,1000.00,12,0,1,32.668,5.037,4.730,873.896,-1.694,1.041
0.574000,356825,1000.00,12,0,1,27.840,0.635,4.707,875.626,0.342,1.042
0.575000,356826,1000.00,12,0,1,20.442,-7.088,4.747,876.442,1.143,1.038
0.576000,356827,1000.00,12,0,1,21.402,-7.378,4.832,874.545,-0.361,1.034
0.577000,356828,1000.00,12,0,1,26.110,-2.492,4.795,875.986,0.098,0.980
0.578000,356829,1000.00,12,0,1,25.918,-3.065,4.772,874.857,0.191,0.960
0.579000,356830,1000.00,12,0,1,24.621,-5.228,4.827,875.866,-0.155,0.960
0.580000,356831,1000.00,12,0,1,30.194,-1.542,4.802,876.899,1.646,0.985
0.581000,356832,1000.00,12,0,1,40.979,7.569,4.898,875.457,-0.086,0.980
0.582000,356833,1000.00,12,0,1,46.816,11.886,5.178,875.073,-0.674,0.960
0.583000,356834,1000.00,12,0,1,40.883,5.411,5.187,875.770,0.124,0.960
0.584000,356835,1000.00,12,0,1,40.163,1.804,5.122,878.148,1.849,0.987
0.585000,356836,1000.00,12,0,1,33.509,-1.515,5.091,874.857,-0.093,0.932
0.586000,356837,1000.00,12,0,1,26.759,-8.333,5.207,874.809,-1.806,0.966
0.587000,356838,1000.00,12,0,1,27.696,-4.770,5.237,876.178,0.774,0.968
0.588000,356839,1000.00,12,0,1,37.016,4.990,5.282,878.148,1.665,0.989
0.589000,356840,1000.00,12,0,1,30.530,3.579,5.193,876.827,1.289,1.005
0.590000,356841,1000.00,12,0,1,20.201,-6.858,5.272,876.466,-0.198,0.988
0.591000,356842,1000.00,12,0,1,29.161,1.605,5.239,876.322,0.240,0.983
0.592000,356843,1000.00,12,0,1,41.988,15.281,5.623,877.715,0.871,0.988
0.593000,356844,1000.00,12,0,1,17.727,-3.494,5.577,877.787,1.310,1.003
0.594000,356845,1000.00,12,0,1,10.017,-17.275,6.062,875.938,-0.637,1.006
0.595000,356846,1000.00,12,0,1,16.262,-6.226,6.101,873.800,-2.619,1.053
0.596000,356847,1000.00,12,0,1,22.531,-1.818,6.097,875.914,-0.910,1.045
0.597000,356848,1000.00,12,0,1,25.438,1.583,6.101,876.755,0.624,1.045
0.598000,356849,1000.00,12,0,1,27.720,1.509,6.101,877.019,0.389,1.046
0.599000,356850,1000.00,12,0,1,29.762,1.879,6.099,875.217,-0.848,1.025
0.600000,356851,1000.00,12,0,1,26.855,-1.311,6.095,874.713,-1.793,1.048
0.601000,356852,1000.00,12,0,1,27.936,-2.978,6.109,875.409,-0.742,1.028
0.602000,356853,1000.00,12,0,1,32.020,1.596,6.107,876.322,0.125,1.004
0.603000,356854,1000.00,12,0,1,37.376,4.902,6.146,876.466,0.338,1.005
0.604000,356855,1000.00,12,0,1,34.878,4.249,6.176,876.418,0.212,1.005
0.605000,356856,1000.00,12,0,1,32.500,0.254,6.151,877.187,0.665,0.996
0.606000,356857,1000.00,12,0,1,33.125,2.560,5.837,876.106,0.075,0.993
0.607000,356858,1000.00,12,0,1,29.762,0.791,5.606,874.208,-1.946,1.029
0.608000,356859,1000.00,12,0,1,27.600,-0.260,5.538,875.217,-0.971,1.037
0.609000,356860,1000.00,12,0,1,24.885,-0.330,5.494,874.304,-0.980,1.042
0.610000,356861,1000.00,12,0,1,22.411,-1.448,5.480,874.641,-1.100,1.039
0.611000,356862,1000.00,12,0,1,26.687,3.371,5.420,875.794,0.580,1.022
0.612000,356863,1000.00,12,0,1,30.554,8.006,5.528,876.106,0.783,1.005
0.613000,356864,1000.00,12,0,1,28.969,6.149,5.594,876.947,1.395,1.005
0.614000,356865,1000.00,12,0,1,25.942,2.030,5.602,877.523,1.871,1.038
0.615000,356866,1000.00,12,0,1,29.521,3.212,5.620,876.490,0.761,1.043
0.616000,356867,1000.00,12,0,1,32.788,5.327,5.644,877.331,0.940,1.049
0.617000,356868,1000.00,12,0,1,30.674,1.257,5.532,878.148,1.804,1.076
0.618000,356869,1000.00,12,0,1,25.126,-5.557,5.566,876.827,0.393,1.077
0.619000,356870,1000.00,12,0,1,26.639,-6.508,5.579,875.337,-1.242,1.076
0.620000,356871,1000.00,12,0,1,33.173,-0.909,5.470,877.835,0.586,1.076
0.621000,356872,1000.00,12,0,1,34.181,-0.277,5.462,878.868,2.071,1.098
0.622000,356873,1000.00,12,0,1,41.532,3.471,5.462,878.652,1.139,1.108
0.623000,356874,1000.00,12,0,1,43.045,6.156,5.485,874.497,-2.058,1.120
0.624000,356875,1000.00,12,0,1,37.136,-1.116,5.487,873.680,-3.749,1.238
0.625000,356876,1000.00,12,0,1,30.218,-6.492,5.472,875.698,-0.907,1.234
0.626000,356877,1000.00,12,0,1,28.609,-7.291,5.470,876.899,0.324,1.234
0.627000,356878,1000.00,12,0,1,31.611,-2.074,5.466,874.352,-1.415,1.250
0.628000,356879,1000.00,12,0,1,32.716,1.252,5.452,873.368,-2.723,1.308
0.629000,356880,1000.00,12,0,1,28.272,-0.927,5.403,877.019,0.747,1.312
0.630000,356881,1000.00,12,0,1,24.813,-2.985,5.415,874.497,-0.120,1.291
0.631000,356882,1000.00,12,0,1,27.960,0.803,5.309,874.785,-1.500,1.308
0.632000,356883,1000.00,12,0,1,31.707,5.602,5.098,878.436,2.830,1.365
0.633000,356884,1000.00,12,0,1,29.233,3.386,5.063,876.779,1.346,1.378
0.634000,356885,1000.00,12,0,1,27.528,0.472,5.057,874.569,-1.264,1.365
0.635000,356886,1000.00,12,0,1,26.855,-0.618,5.053,875.025,-0.805,1.369
0.636000,356887,1000.00,12,0,1,31.419,1.464,4.918,876.010,0.262,1.346
0.637000,356888,1000.00,12,0,1,44.606,11.030,5.115,878.124,1.958,1.370
0.638000,356889,1000.00,12,0,1,49.170,13.699,5.424,876.899,1.230,1.361
0.639000,356890,1000.00,12,0,1,42.949,3.858,5.428,877.883,0.948,1.355
0.640000,356891,1000.00,12,0,1,24.885,-13.349,5.665,876.394,0.526,1.357
0.641000,356892,1000.00,12,0,1,19.577,-21.188,6.404,875.722,-1.149,1.366
0.642000,356893,1000.00,12,0,1,25.630,-12.192,6.270,876.899,0.417,1.362
0.643000,356894,1000.00,12,0,1,33.845,-3.597,6.272,878.268,1.434,1.364
0.644000,356895,1000.00,12,0,1,38.817,2.799,5.790,876.851,0.423,1.362
0.645000,356896,1000.00,12,0,1,39.466,3.786,5.747,874.881,-1.692,1.333
0.646000,356897,1000.00,12,0,1,38.313,3.098,5.758,875.650,-1.087,1.336
0.647000,356898,1000.00,12,0,1,36.367,2.312,5.763,875.890,-0.187,1.333
0.648000,356899,1000.00,12,0,1,31.659,-0.763,5.760,876.130,-0.317,1.332
0.649000,356900,1000.00,12,0,1,30.290,-1.106,5.756,876.130,0.122,1.327
0.650000,356901,1000.00,12,0,1,22.651,-4.881,5.795,876.803,0.308,1.303
0.651000,356902,1000.00,12,0,1,20.201,-7.130,5.866,876.827,0.678,1.303
0.652000,356903,1000.00,12,0,1,20.514,-3.638,5.885,878.172,1.210,1.314
0.653000,356904,1000.00,12,0,1,25.462,0.687,5.845,875.818,-0.157,1.313
0.654000,356905,1000.00,12,0,1,25.534,2.611,5.825,876.658,-0.774,1.317
0.655000,356906,1000.00,12,0,1,23.084,-1.173,5.827,879.205,2.261,1.352
0.656000,356907,1000.00,12,0,1,26.711,0.879,5.818,879.181,1.831,1.377
0.657000,356908,1000.00,12,0,1,28.248,2.183,5.825,877.835,0.263,1.350
0.658000,356909,1000.00,12,0,1,30.867,1.753,5.830,875.842,-1.575,1.361
0.659000,356910,1000.00,12,0,1,35.575,4.961,5.872,876.706,-1.268,1.366
0.660000,356911,1000.00,12,0,1,35.214,2.941,5.883,877.667,0.338,1.358
0.661000,356912,1000.00,12,0,1,38.193,3.052,5.879,877.355,-0.236,1.356
0.662000,356913,1000.00,12,0,1,40.331,4.562,5.805,877.980,0.337,1.352
0.663000,356914,1000.00,12,0,1,39.370,2.393,5.750,878.172,0.547,1.340
0.664000,356915,1000.00,12,0,1,40.307,2.502,5.754,877.691,0.031,1.313
0.665000,356916,1000.00,12,0,1,41.123,3.592,5.758,876.586,-0.908,1.315
0.666000,356917,1000.00,12,0,1,41.628,4.010,5.737,877.259,-0.544,1.311
0.667000,356918,1000.00,12,0,1,40.499,3.836,5.759,877.523,0.158,1.286
0.668000,356919,1000.00,12,0,1,39.802,3.292,5.725,878.220,0.392,1.286
0.669000,356920,1000.00,12,0,1,30.410,-2.720,5.663,877.475,0.113,1.274
0.670000,356921,1000.00,12,0,1,22.796,-9.794,5.829,876.538,-1.137,1.281
0.671000,356922,1000.00,12,0,1,23.804,-6.459,5.900,874.352,-2.550,1.298
0.672000,356923,1000.00,12,0,1,26.663,-1.941,5.886,876.034,-1.593,1.308
0.673000,356924,1000.00,12,0,1,24.957,-2.085,5.828,876.346,-0.088,1.275
0.674000,356925,1000.00,12,0,1,25.774,-2.037,5.833,876.947,-0.250,1.160
0.675000,356926,1000.00,12,0,1,26.495,-0.954,5.762,876.490,0.009,1.153
0.676000,356927,1000.00,12,0,1,27.624,-1.242,5.672,878.412,0.912,1.159
0.677000,356928,1000.00,12,0,1,29.425,-0.560,5.665,877.763,1.148,1.153
0.678000,356929,1000.00,12,0,1,30.939,-0.573,5.663,877.835,0.192,1.088
0.679000,356930,1000.00,12,0,1,33.797,0.217,5.661,875.914,-0.756,1.088
0.680000,356931,1000.00,12,0,1,36.223,1.329,5.649,875.626,-1.709,1.114
0.681000,356932,1000.00,12,0,1,36.343,0.050,5.647,877.331,0.338,1.095
0.682000,356933,1000.00,12,0,1,40.643,2.301,5.601,876.779,0.258,1.020
0.683000,356934,1000.00,12,0,1,43.285,4.773,5.621,876.947,-0.121,1.002
0.684000,356935,1000.00,12,0,1,48.738,7.769,5.727,878.772,1.830,1.019
0.685000,356936,1000.00,12,0,1,40.787,2.835,5.741,877.043,0.454,1.015
0.686000,356937,1000.00,12,0,1,28.969,-9.307,5.886,875.025,-1.694,1.042
0.687000,356938,1000.00,12,0,1,39.106,-0.058,5.675,875.626,-1.090,1.016
0.688000,356939,1000.00,12,0,1,36.896,4.074,5.366,875.938,-0.232,1.002
0.689000,356940,1000.00,12,0,1,16.238,-14.162,5.701,878.412,1.468,1.014
0.690000,356941,1000.00,12,0,1,21.354,-10.052,5.564,877.427,1.472,1.033
0.691000,356942,1000.00,12,0,1,24.285,-0.154,4.688,874.304,-2.097,1.062
0.692000,356943,1000.00,12,0,1,25.870,-0.288,4.360,875.529,-1.112,1.072
0.693000,356944,1000.00,12,0,1,31.731,6.830,4.437,876.298,0.299,1.054
0.694000,356945,1000.00,12,0,1,38.385,10.960,4.683,876.418,0.050,1.052
0.695000,356946,1000.00,12,0,1,40.066,11.154,4.912,876.226,0.147,1.025
0.696000,356947,1000.00,12,0,1,34.085,3.133,4.913,878.508,1.519,1.036
0.697000,356948,1000.00,12,0,1,27.432,-5.735,4.969,877.019,1.051,1.046
0.698000,356949,1000.00,12,0,1,26.062,-8.159,5.100,876.923,-0.373,1.046
0.699000,356950,1000.00,12,0,1,28.705,-6.584,5.182,877.571,0.920,1.054
0.700000,356951,1000.00,12,0,1,35.695,-0.845,5.137,877.908,0.703,1.058
0.701000,356952,1000.00,12,0,1,38.121,1.321,5.040,878.076,0.940,1.062
0.702000,356953,1000.00,12,0,1,37.328,-0.569,5.015,876.250,-0.597,1.051
0.703000,356954,1000.00,12,0,1,38.385,-0.163,5.014,875.025,-1.988,1.088
0.704000,356955,1000.00,12,0,1,41.171,2.562,5.013,874.569,-1.780,1.112
0.705000,356956,1000.00,12,0,1,45.423,6.321,5.090,877.043,0.150,1.065
0.706000,356957,1000.00,12,0,1,40.667,3.766,5.116,876.370,0.739,1.038
0.707000,356958,1000.00,12,0,1,29.930,-5.785,5.172,877.932,0.841,1.044
0.708000,356959,1000.00,12,0,1,33.845,-2.113,5.175,877.835,1.865,1.054
0.709000,356960,1000.00,12,0,1,30.410,-0.026,5.127,878.940,1.479,1.059
0.710000,356961,1000.00,12,0,1,24.813,-5.648,5.172,876.178,0.078,1.058
0.711000,356962,1000.00,12,0,1,22.171,-4.881,5.200,873.968,-3.072,1.143
0.712000,356963,1000.00,12,0,1,24.309,-2.456,5.171,875.746,-1.009,1.151
0.713000,356964,1000.00,12,0,1,22.916,-1.229,5.163,877.667,1.047,1.158
0.714000,356965,1000.00,12,0,1,22.772,-2.297,5.161,877.811,1.035,1.167
0.715000,356966,1000.00,12,0,1,23.540,-1.067,5.138,876.923,0.184,1.161
0.716000,356967,1000.00,12,0,1,23.997,-1.506,5.111,878.460,0.811,1.164
0.717000,356968,1000.00,12,0,1,32.428,3.760,5.110,875.914,-0.419,1.165
0.718000,356969,1000.00,12,0,1,40.331,10.229,5.291,878.172,-0.231,1.164
0.719000,356970,1000.00,12,0,1,42.348,8.616,5.416,877.091,0.804,1.170
0.720000,356971,1000.00,12,0,1,42.901,6.289,5.310,878.508,0.020,1.159
0.721000,356972,1000.00,12,0,1,42.517,3.329,5.252,877.859,1.111,1.112
0.722000,356973,1000.00,12,0,1,45.375,3.725,5.272,878.748,0.312,1.090
0.723000,356974,1000.00,12,0,1,40.979,0.185,5.263,877.667,0.512,1.092
0.724000,356975,1000.00,12,0,1,25.342,-13.441,5.589,876.466,-1.398,1.109
0.725000,356976,1000.00,12,0,1,37.208,-5.293,5.637,877.667,-0.118,1.110
0.726000,356977,1000.00,12,0,1,35.406,1.957,5.641,876.106,-0.753,1.107
0.727000,356978,1000.00,12,0,1,31.539,-5.049,5.686,875.890,-1.745,1.123
0.728000,356979,1000.00,12,0,1,23.684,-5.661,5.741,876.370,-0.280,1.123
0.729000,356980,1000.00,12,0,1,19.505,-9.861,5.908,878.412,0.802,1.124
0.730000,356981,1000.00,12,0,1,18.568,-5.772,5.961,878.604,1.822,1.127
0.731000,356982,1000.00,12,0,1,17.535,-4.675,5.998,877.571,-0.006,1.126
0.732000,356983,1000.00,12,0,1,12.058,-6.806,6.066,876.082,-1.010,1.135
0.733000,356984,1000.00,12,0,1,22.676,1.654,6.033,877.595,-0.351,1.136
0.734000,356985,1000.00,12,0,1,30.867,11.592,6.154,876.755,-0.142,1.106
0.735000,356986,1000.00,12,0,1,30.722,8.888,6.268,877.547,-0.455,1.106
0.736000,356987,1000.00,12,0,1,31.443,6.459,6.196,878.412,0.986,1.089
0.737000,356988,1000.00,12,0,1,30.266,3.757,6.219,878.196,0.356,1.079
0.738000,356989,1000.00,12,0,1,18.520,-8.365,6.304,876.058,-1.325,1.095
0.739000,356990,1000.00,12,0,1,25.006,-6.484,6.048,876.130,-1.666,1.100
0.740000,356991,1000.00,12,0,1,30.218,1.135,5.880,876.995,-0.334,1.081
0.741000,356992,1000.00,12,0,1,30.554,-0.915,5.882,875.529,-1.236,1.054
0.742000,356993,1000.00,12,0,1,29.473,-1.363,5.885,876.706,-0.679,1.047
0.743000,356994,1000.00,12,0,1,32.740,0.711,5.806,878.628,1.820,1.077
0.744000,356995,1000.00,12,0,1,45.447,11.690,5.834,878.172,1.184,1.090
0.745000,356996,1000.00,12,0,1,37.833,8.410,5.741,877.667,0.577,1.093
0.746000,356997,1000.00,12,0,1,18.832,-10.776,5.924,875.698,-0.990,1.081
0.747000,356998,1000.00,12,0,1,25.270,-4.688,5.905,877.259,-0.196,1.071
0.748000,356999,1000.00,12,0,1,26.879,3.078,5.808,877.091,0.691,1.074
0.749000,357000,1000.00,12,0,1,25.198,0.900,5.734,877.883,0.442,1.068
0.750000,357001,1000.00,12,0,1,27.287,5.090,5.778,879.493,2.287,1.112
0.751000,357002,1000.00,12,0,1,22.796,2.269,5.784,877.499,0.402,1.105
0.752000,357003,1000.00,12,0,1,23.780,1.794,5.789,877.163,-0.711,1.106
0.753000,357004,1000.00,12,0,1,27.408,6.057,5.852,877.475,0.057,1.070
0.754000,357005,1000.00,12,0,1,25.510,3.119,5.857,876.658,-0.917,1.048
0.755000,357006,1000.00,12,0,1,22.051,-1.393,5.792,877.499,-0.253,1.049
0.756000,357007,1000.00,12,0,1,21.138,-3.889,5.793,876.827,-0.450,1.045
0.757000,357008,1000.00,12,0,1,23.396,-2.930,5.750,876.658,-0.985,1.048
0.758000,357009,1000.00,12,0,1,21.859,-4.712,5.781,876.178,-0.910,1.022
0.759000,357010,1000.00,12,0,1,25.318,-3.946,5.808,876.899,-0.553,1.004
0.760000,357011,1000.00,12,0,1,29.882,0.445,5.753,877.883,0.745,1.009
0.761000,357012,1000.00,12,0,1,30.698,0.024,5.712,876.010,-0.706,0.916
0.762000,357013,1000.00,12,0,1,29.834,-1.212,5.704,877.115,-0.374,0.907
0.763000,357014,1000.00,12,0,1,29.353,-1.740,5.706,878.532,1.660,0.925
0.764000,357015,1000.00,12,0,1,29.377,-1.008,5.699,878.052,0.872,0.921
0.765000,357016,1000.00,12,0,1,30.602,1.092,5.699,876.298,-0.550,0.924
0.766000,357017,1000.00,12,0,1,27.528,0.332,5.695,876.947,-0.454,0.919
0.767000,357018,1000.00,12,0,1,25.126,-0.961,5.672,877.980,0.988,0.928
0.768000,357019,1000.00,12,0,1,21.691,-1.372,5.488,876.178,-0.532,0.930
0.769000,357020,1000.00,12,0,1,19.769,-1.733,5.356,878.220,0.485,0.926
0.770000,357021,1000.00,12,0,1,18.448,-0.529,5.282,877.787,1.210,0.942
0.771000,357022,1000.00,12,0,1,20.033,1.712,5.267,876.851,-0.701,0.934
0.772000,357023,1000.00,12,0,1,21.595,4.279,5.275,874.977,-1.567,0.959
0.773000,357024,1000.00,12,0,1,21.571,3.924,5.305,876.586,-0.989,0.966
0.774000,357025,1000.00,12,0,1,23.877,4.623,4.995,877.859,1.192,0.961
0.775000,357026,1000.00,12,0,1,24.885,4.666,4.983,877.571,0.424,0.962
0.776000,357027,1000.00,12,0,1,24.045,1.589,4.980,876.298,-0.559,0.960
0.777000,357028,1000.00,12,0,1,26.519,1.555,4.934,876.947,-0.365,0.929
0.778000,357029,1000.00,12,0,1,29.762,2.650,4.883,876.490,-0.248,0.929
0.779000,357030,1000.00,12,0,1,28.513,-0.044,4.679,875.746,-1.107,0.935
0.780000,357031,1000.00,12,0,1,28.657,-2.312,4.619,876.827,-0.137,0.899
0.781000,357032,1000.00,12,0,1,31.083,-0.775,4.573,876.298,-0.003,0.899
0.782000,357033,1000.00,12,0,1,32.260,-0.250,4.470,874.977,-1.471,0.912
0.783000,357034,1000.00,12,0,1,31.107,-1.252,4.468,877.067,0.417,0.912
0.784000,357035,1000.00,12,0,1,29.569,-2.319,4.169,877.235,1.193,0.927
0.785000,357036,1000.00,12,0,1,30.122,-0.944,3.977,876.731,0.269,0.926
0.786000,357037,1000.00,12,0,1,25.966,-2.247,3.884,876.106,-0.047,0.915
0.787000,357038,1000.00,12,0,1,22.651,-4.362,3.897,878.220,1.304,0.932
0.788000,357039,1000.00,12,0,1,31.227,4.513,3.767,878.964,2.490,0.979
0.789000,357040,1000.00,12,0,1,31.011,7.908,3.821,875.794,-0.607,0.954
0.790000,357041,1000.00,12,0,1,23.156,0.041,3.818,878.988,1.004,0.963
0.791000,357042,1000.00,12,0,1,22.796,-0.208,3.816,878.100,1.839,0.982
0.792000,357043,1000.00,12,0,1,18.472,-2.005,3.821,878.292,0.042,0.978
0.793000,357044,1000.00,12,0,1,14.989,-6.067,3.915,878.868,1.568,0.969
0.794000,357045,1000.00,12,0,1,18.376,-2.472,3.566,877.763,-0.209,0.955
0.795000,357046,1000.00,12,0,1,21.883,0.596,3.363,876.034,-1.531,0.976
0.796000,357047,1000.00,12,0,1,24.285,1.511,3.006,875.145,-2.415,1.024
0.797000,357048,1000.00,12,0,1,20.370,-2.646,2.955,876.034,-1.422,1.043
0.798000,357049,1000.00,12,0,1,18.472,-6.791,3.077,876.586,-0.366,1.040
0.799000,357050,1000.00,12,0,1,24.165,-2.358,3.092,878.892,1.190,1.052
0.800000,357051,1000.00,12,0,1,27.504,0.627,3.009,878.148,1.360,1.019
0.801000,357052,1000.00,12,0,1,27.600,-0.436,2.992,878.124,0.122,1.018
0.802000,357053,1000.00,12,0,1,27.648,-0.802,2.983,879.541,1.801,1.044
0.803000,357054,1000.00,12,0,1,30.963,1.676,2.868,878.628,0.746,1.050
0.804000,357055,1000.00,12,0,1,28.296,0.981,2.837,877.619,-0.507,1.044
0.805000,357056,1000.00,12,0,1,23.156,-3.664,2.877,878.892,0.423,1.045
0.806000,357057,1000.00,12,0,1,23.204,-2.053,2.839,878.244,0.230,1.044
0.807000,357058,1000.00,12,0,1,24.045,1.077,2.813,878.388,-0.247,1.035
0.808000,357059,1000.00,12,0,1,22.555,1.552,2.741,878.508,0.209,1.027
0.809000,357060,1000.00,12,0,1,20.682,1.385,2.691,876.490,-1.550,1.048
0.810000,357061,1000.00,12,0,1,19.265,1.396,2.698,876.731,-1.685,1.069
0.811000,357062,1000.00,12,0,1,18.640,1.844,2.710,876.755,-0.860,1.071
0.812000,357063,1000.00,12,0,1,17.823,1.695,2.715,878.148,-0.103,1.070
0.813000,357064,1000.00,12,0,1,15.229,-0.324,2.705,876.538,-0.523,1.047
0.814000,357065,1000.00,12,0,1,17.751,0.695,2.703,876.851,-1.266,1.055
0.815000,357066,1000.00,12,0,1,22.147,4.467,2.771,875.938,-0.864,1.059
0.816000,357067,1000.00,12,0,1,26.038,5.815,2.890,877.163,-0.668,1.061
0.817000,357068,1000.00,12,0,1,37.760,12.723,3.402,876.731,0.093,1.052
0.818000,357069,1000.00,12,0,1,29.305,5.650,3.489,875.025,-1.901,1.083
0.819000,357070,1000.00,12,0,1,18.040,-10.531,3.786,876.250,-0.744,1.086
0.820000,357071,1000.00,12,0,1,24.045,-5.790,3.872,874.545,-1.227,1.087
0.821000,357072,1000.00,12,0,1,29.497,0.078,3.865,876.130,-0.857,1.089
0.822000,357073,1000.00,12,0,1,34.614,3.099,3.842,877.259,1.559,1.089
0.823000,357074,1000.00,12,0,1,37.496,6.067,3.898,877.595,0.950,1.088
0.824000,357075,1000.00,12,0,1,50.564,14.263,4.340,878.580,2.125,1.116
0.825000,357076,1000.00,12,0,1,29.329,1.194,4.293,876.779,0.440,1.116
0.826000,357077,1000.00,12,0,1,16.526,-17.687,4.963,876.875,-0.127,1.113
0.827000,357078,1000.00,12,0,1,32.932,1.902,4.965,876.466,0.184,1.113
0.828000,357079,1000.00,12,0,1,17.415,-4.998,5.001,878.388,1.064,1.122
0.829000,357080,1000.00,12,0,1,7.350,-17.887,5.605,877.163,1.062,1.121
0.830000,357081,1000.00,12,0,1,18.232,-2.348,5.605,877.379,-0.061,1.121
0.831000,357082,1000.00,12,0,1,19.817,1.797,5.610,878.340,1.554,1.142
0.832000,357083,1000.00,12,0,1,14.364,-2.274,5.619,877.835,0.674,1.127
0.833000,357084,1000.00,12,0,1,14.316,-2.863,5.631,877.019,-0.100,1.126
0.834000,357085,1000.00,12,0,1,13.163,-2.496,5.632,875.794,-1.113,1.124
0.835000,357086,1000.00,12,0,1,12.995,-3.801,5.656,876.346,-0.878,1.130
0.836000,357087,1000.00,12,0,1,17.151,-0.525,5.648,877.451,0.588,1.134
0.837000,357088,1000.00,12,0,1,22.411,3.112,5.631,877.932,0.765,1.124
0.838000,357089,1000.00,12,0,1,24.405,3.418,5.616,877.787,0.702,1.072
0.839000,357090,1000.00,12,0,1,23.348,0.639,5.504,875.746,-1.172,1.081
0.840000,357091,1000.00,12,0,1,24.285,-0.522,5.505,876.082,-1.265,1.086
0.841000,357092,1000.00,12,0,1,25.894,0.500,5.505,876.442,-0.325,1.056
0.842000,357093,1000.00,12,0,1,26.903,0.650,5.498,877.811,0.475,1.058
0.843000,357094,1000.00,12,0,1,30.602,3.619,5.455,877.571,0.781,1.040
0.844000,357095,1000.00,12,0,1,34.614,7.382,5.543,876.971,-0.306,1.041
0.845000,357096,1000.00,12,0,1,31.755,5.536,5.597,875.626,-1.125,1.030
0.846000,357097,1000.00,12,0,1,26.399,0.580,5.594,876.370,-0.852,0.980
0.847000,357098,1000.00,12,0,1,23.588,-0.707,5.582,876.514,-0.023,0.959
0.848000,357099,1000.00,12,0,1,21.474,-0.743,5.500,875.986,-0.668,0.962
0.849000,357100,1000.00,12,0,1,18.280,-1.686,5.495,875.866,-0.585,0.951
0.850000,357101,1000.00,12,0,1,15.661,-2.440,5.505,875.626,-0.562,0.935
0.851000,357102,1000.00,12,0,1,10.977,-4.557,5.542,875.650,-0.511,0.937
0.852000,357103,1000.00,12,0,1,13.019,-2.676,5.554,876.346,0.328,0.903
0.853000,357104,1000.00,12,0,1,18.208,3.440,5.570,876.250,0.359,0.898
0.854000,357105,1000.00,12,0,1,11.458,-1.800,5.575,877.139,0.937,0.905
0.855000,357106,1000.00,12,0,1,13.235,-3.645,5.574,876.682,0.807,0.910
0.856000,357107,1000.00,12,0,1,24.357,6.528,5.643,878.724,1.809,0.945
0.857000,357108,1000.00,12,0,1,31.972,11.042,5.853,879.661,3.071,1.040
0.858000,357109,1000.00,12,0,1,29.882,6.810,5.928,878.220,1.087,1.050
0.859000,357110,1000.00,12,0,1,20.874,-4.307,5.956,877.715,0.186,1.028
0.860000,357111,1000.00,12,0,1,28.176,-1.814,5.958,877.283,-0.151,1.000
0.861000,357112,1000.00,12,0,1,31.972,3.837,5.977,876.298,-1.163,1.006
0.862000,357113,1000.00,12,0,1,25.102,-4.358,6.004,876.610,-0.891,1.014
0.863000,357114,1000.00,12,0,1,20.057,-8.583,6.125,878.388,0.691,1.016
0.864000,357115,1000.00,12,0,1,20.682,-6.873,6.201,876.346,-0.488,1.002
0.865000,357116,1000.00,12,0,1,17.487,-6.316,6.233,876.058,-1.652,1.022
0.866000,357117,1000.00,12,0,1,19.241,-3.750,6.201,879.012,1.455,1.038
0.867000,357118,1000.00,12,0,1,19.841,0.767,5.935,879.133,1.766,1.068
0.868000,357119,1000.00,12,0,1,15.301,-1.442,5.885,879.325,1.188,1.047
0.869000,357120,1000.00,12,0,1,6.221,-6.827,5.775,878.580,0.747,1.047
0.870000,357121,1000.00,12,0,1,5.717,-6.159,5.782,879.493,0.695,1.037
0.871000,357122,1000.00,12,0,1,6.245,-1.893,5.788,878.100,0.148,1.030
0.872000,357123,1000.00,12,0,1,-4.108,-8.607,5.899,877.619,-1.238,1.021
0.873000,357124,1000.00,12,0,1,-10.617,-14.190,6.171,876.346,-1.532,1.035
0.874000,357125,1000.00,12,0,1,-6.173,-7.864,5.938,877.139,-1.452,1.012
0.875000,357126,1000.00,12,0,1,-5.837,-5.160,5.980,879.421,1.139,1.023
0.876000,357127,1000.00,12,0,1,1.153,-0.367,5.432,878.700,0.639,1.026
0.877000,357128,1000.00,12,0,1,17.535,13.666,5.759,879.565,0.557,1.029
0.878000,357129,1000.00,12,0,1,24.669,18.700,6.298,877.691,-0.258,1.019
0.879000,357130,1000.00,12,0,1,21.595,11.669,5.999,878.028,-1.232,1.023
0.880000,357131,1000.00,12,0,1,22.651,8.440,6.107,879.277,0.811,1.029
0.881000,357132,1000.00,12,0,1,26.519,9.786,6.257,877.091,-1.297,1.022
0.882000,357133,1000.00,12,0,1,33.653,13.347,6.528,876.538,-2.072,1.059
0.883000,357134,1000.00,12,0,1,33.173,12.381,6.746,877.355,-0.854,1.065
0.884000,357135,1000.00,12,0,1,34.710,10.222,6.890,878.844,0.391,1.055
0.885000,357136,1000.00,12,0,1,36.463,12.005,7.076,878.292,0.396,1.049
0.886000,357137,1000.00,12,0,1,34.518,9.129,7.192,877.115,-1.089,1.057
0.887000,357138,1000.00,12,0,1,28.200,3.775,7.199,878.868,0.413,1.053
0.888000,357139,1000.00,12,0,1,24.357,0.100,7.183,876.634,-0.718,1.054
0.889000,357140,1000.00,12,0,1,18.208,-3.258,7.197,876.610,-1.747,1.069
0.890000,357141,1000.00,12,0,1,15.373,-5.389,7.237,878.028,0.477,1.057
0.891000,357142,1000.00,12,0,1,16.406,-2.679,7.246,878.676,0.769,1.061
0.892000,357143,1000.00,12,0,1,20.922,1.569,7.249,877.811,0.274,1.060
0.893000,357144,1000.00,12,0,1,20.009,1.320,7.233,876.995,-0.758,1.059
0.894000,357145,1000.00,12,0,1,19.313,-1.577,7.161,879.781,1.412,1.077
0.895000,357146,1000.00,12,0,1,21.667,-0.871,7.119,878.196,0.973,1.074
0.896000,357147,1000.00,12,0,1,20.129,-3.499,7.136,877.163,-1.231,1.082
0.897000,357148,1000.00,12,0,1,24.261,-3.419,7.152,876.298,-1.031,1.091
0.898000,357149,1000.00,12,0,1,27.840,-0.681,7.152,877.307,-0.800,1.093
0.899000,357150,1000.00,12,0,1,26.855,-4.338,7.174,877.883,0.578,1.093
0.900000,357151,1000.00,12,0,1,29.017,-4.267,7.191,875.698,-1.433,1.109
0.901000,357152,1000.00,12,0,1,32.404,-2.086,7.168,877.379,-0.447,1.108
0.902000,357153,1000.00,12,0,1,46.360,7.748,7.241,878.604,1.578,1.130
0.903000,357154,1000.00,12,0,1,44.462,8.491,7.324,877.379,0.036,1.128
0.904000,357155,1000.00,12,0,1,9.921,-21.968,7.952,876.899,-0.386,1.122
0.905000,357156,1000.00,12,0,1,8.527,-26.799,8.794,876.274,-0.819,1.122
0.906000,357157,1000.00,12,0,1,11.842,-11.996,8.908,876.130,-0.886,1.100
0.907000,357158,1000.00,12,0,1,6.245,-15.076,9.026,878.100,0.836,1.017
0.908000,357159,1000.00,12,0,1,10.905,-6.072,9.015,878.796,1.824,1.038
0.909000,357160,1000.00,12,0,1,21.667,6.977,9.048,878.436,1.063,1.049
0.910000,357161,1000.00,12,0,1,19.241,8.234,9.119,876.538,-0.475,1.050
0.911000,357162,1000.00,12,0,1,15.637,3.752,9.119,876.971,-0.662,1.042
0.912000,357163,1000.00,12,0,1,17.487,5.624,9.133,879.445,1.851,1.067
0.913000,357164,1000.00,12,0,1,26.279,12.057,9.211,878.268,1.082,1.073
0.914000,357165,1000.00,12,0,1,23.901,9.779,9.263,878.700,0.472,1.073
0.915000,357166,1000.00,12,0,1,30.386,9.414,9.316,878.196,0.708,1.052
0.916000,357167,1000.00,12,0,1,17.607,0.127,9.300,877.571,-0.579,1.035
0.917000,357168,1000.00,12,0,1,15.253,-10.180,9.411,877.067,-0.585,1.008
0.918000,357169,1000.00,12,0,1,24.693,0.155,9.408,877.115,-0.785,1.000
0.919000,357170,1000.00,12,0,1,27.239,0.750,9.359,877.811,0.070,0.994
0.920000,357171,1000.00,12,0,1,24.693,-3.092,9.329,877.787,0.151,0.990
0.921000,357172,1000.00,12,0,1,19.265,-7.944,9.393,876.706,-0.811,0.996
0.922000,357173,1000.00,12,0,1,18.016,-9.810,9.416,877.547,-0.268,0.981
0.923000,357174,1000.00,12,0,1,20.201,-5.013,9.227,876.490,-0.593,0.961
0.924000,357175,1000.00,12,0,1,21.354,-2.726,9.168,876.731,-0.923,0.948
0.925000,357176,1000.00,12,0,1,20.033,-0.963,9.140,875.938,-0.832,0.941
0.926000,357177,1000.00,12,0,1,18.328,-1.108,9.141,876.178,-1.065,0.949
0.927000,357178,1000.00,12,0,1,13.067,-2.292,8.940,876.346,-0.275,0.946
0.928000,357179,1000.00,12,0,1,15.878,0.640,8.541,876.418,-0.350,0.947
0.929000,357180,1000.00,12,0,1,22.459,9.779,8.493,874.689,-1.393,0.951
0.930000,357181,1000.00,12,0,1,11.746,2.566,8.417,875.457,-1.103,0.957
0.931000,357182,1000.00,12,0,1,6.558,-4.318,8.324,876.082,0.244,0.940
0.932000,357183,1000.00,12,0,1,9.320,0.630,8.108,876.899,0.684,0.899
0.933000,357184,1000.00,12,0,1,14.581,4.489,7.942,878.028,1.797,0.926
0.934000,357185,1000.00,12,0,1,19.217,8.324,7.898,879.421,2.735,1.002
0.935000,357186,1000.00,12,0,1,19.120,6.073,7.761,876.971,0.741,1.006
0.936000,357187,1000.00,12,0,1,18.184,2.391,7.660,875.385,-1.449,1.015
0.937000,357188,1000.00,12,0,1,16.838,-0.766,7.642,875.578,-0.887,1.021
0.938000,357189,1000.00,12,0,1,12.755,-6.039,7.690,877.691,0.903,1.024
0.939000,357190,1000.00,12,0,1,15.517,-5.514,7.716,878.172,1.743,1.024
0.940000,357191,1000.00,12,0,1,18.616,-2.093,7.683,877.643,0.851,1.029
0.941000,357192,1000.00,12,0,1,15.758,-4.729,7.703,877.091,0.266,1.024
0.942000,357193,1000.00,12,0,1,12.419,-7.515,7.773,878.868,1.446,1.043
0.943000,357194,1000.00,12,0,1,10.521,-7.450,7.842,878.364,1.401,1.056
0.944000,357195,1000.00,12,0,1,13.476,-3.305,7.853,878.892,0.949,1.046
0.945000,357196,1000.00,12,0,1,13.428,0.172,7.852,879.277,1.540,1.059
0.946000,357197,1000.00,12,0,1,3.651,-5.942,7.881,879.349,1.029,1.055
0.947000,357198,1000.00,12,0,1,11.674,0.832,7.867,878.388,0.160,1.045
0.948000,357199,1000.00,12,0,1,25.534,17.588,8.250,878.676,-0.097,1.039
0.949000,357200,1000.00,12,0,1,27.047,18.807,8.647,878.868,0.232,1.036
0.950000,357201,1000.00,12,0,1,35.959,22.906,9.214,878.268,-0.454,1.019
0.951000,357202,1000.00,12,0,1,44.150,28.960,10.079,877.547,-1.188,1.030
0.952000,357203,1000.00,12,0,1,12.827,0.938,10.020,876.322,-2.017,1.046
0.953000,357204,1000.00,12,0,1,11.986,-10.724,10.063,877.547,-1.225,1.060
0.954000,357205,1000.00,12,0,1,13.235,-1.753,9.574,877.187,-0.610,1.062
0.955000,357206,1000.00,12,0,1,11.962,-8.594,8.876,879.541,0.523,1.058
0.956000,357207,1000.00,12,0,1,17.703,-2.000,8.717,880.141,2.051,1.090
0.957000,357208,1000.00,12,0,1,25.582,2.657,8.460,878.652,-0.148,1.084
0.958000,357209,1000.00,12,0,1,33.605,7.708,8.487,879.277,0.222,1.053
0.959000,357210,1000.00,12,0,1,34.974,7.134,8.490,877.980,-0.530,1.045
0.960000,357211,1000.00,12,0,1,24.693,-4.765,8.436,879.133,-0.368,1.044
0.961000,357212,1000.00,12,0,1,21.306,-9.930,8.536,877.739,-0.439,1.042
0.962000,357213,1000.00,12,0,1,21.715,-8.509,8.584,876.130,-2.733,1.080
0.963000,357214,1000.00,12,0,1,27.888,-2.633,8.421,878.268,-0.387,1.070
0.964000,357215,1000.00,12,0,1,34.830,4.847,8.335,878.868,0.626,1.072
0.965000,357216,1000.00,12,0,1,31.899,3.631,8.244,876.274,-1.617,1.092
0.966000,357217,1000.00,12,0,1,16.286,-9.408,8.350,876.466,-1.804,1.118
0.967000,357218,1000.00,12,0,1,5.357,-17.940,8.608,876.610,-0.841,1.121
0.968000,357219,1000.00,12,0,1,3.699,-15.433,8.880,878.388,0.350,1.117
0.969000,357220,1000.00,12,0,1,4.300,-10.309,8.998,878.772,1.352,1.133
0.970000,357221,1000.00,12,0,1,4.035,-7.238,9.046,878.508,0.554,1.136
0.971000,357222,1000.00,12,0,1,16.238,4.282,8.996,876.562,-0.822,1.136
0.972000,357223,1000.00,12,0,1,31.707,19.424,9.303,876.851,-1.121,1.146
0.973000,357224,1000.00,12,0,1,19.841,9.540,9.374,877.499,0.099,1.143
0.974000,357225,1000.00,12,0,1,9.152,-6.093,9.405,879.877,1.728,1.162
0.975000,357226,1000.00,12,0,1,23.877,5.451,9.436,879.349,1.823,1.184
0.976000,357227,1000.00,12,0,1,26.110,9.066,9.521,877.307,-0.676,1.178
0.977000,357228,1000.00,12,0,1,22.651,0.693,9.516,876.250,-1.558,1.198
0.978000,357229,1000.00,12,0,1,22.676,-0.283,9.516,877.932,-0.118,1.197
0.979000,357230,1000.00,12,0,1,22.988,-2.028,9.419,877.427,0.110,1.181
0.980000,357231,1000.00,12,0,1,25.678,-0.584,9.413,876.106,-1.336,1.186
0.981000,357232,1000.00,12,0,1,24.165,-1.669,9.396,877.523,-0.118,1.185
0.982000,357233,1000.00,12,0,1,21.595,-4.677,9.419,876.851,0.081,1.182
0.983000,357234,1000.00,12,0,1,17.631,-6.424,9.441,877.235,-0.305,1.155
0.984000,357235,1000.00,12,0,1,16.959,-6.310,9.410,877.739,0.856,1.095
0.985000,357236,1000.00,12,0,1,21.162,-0.054,9.371,878.652,1.082,1.100
0.986000,357237,1000.00,12,0,1,32.932,10.937,9.491,876.370,-0.230,1.082
0.987000,357238,1000.00,12,0,1,39.394,18.457,9.843,877.139,-0.690,1.079
0.988000,357239,1000.00,12,0,1,18.448,1.085,9.807,876.755,0.178,1.071
0.989000,357240,1000.00,12,0,1,0.264,-17.872,10.098,878.748,0.821,1.049
0.990000,357241,1000.00,12,0,1,-0.024,-14.635,10.303,876.875,0.455,1.044
0.991000,357242,1000.00,12,0,1,4.828,-6.995,10.329,878.820,0.445,1.045
0.992000,357243,1000.00,12,0,1,9.632,-0.664,10.275,880.189,2.855,1.102
0.993000,357244,1000.00,12,0,1,9.969,0.649,10.221,877.956,0.151,1.084
0.994000,357245,1000.00,12,0,1,7.422,-2.281,10.215,875.650,-2.089,1.116
0.995000,357246,1000.00,12,0,1,25.294,10.030,10.313,877.571,-0.558,1.097
0.996000,357247,1000.00,12,0,1,39.706,23.558,10.805,876.418,-0.625,1.091
0.997000,357248,1000.00,12,0,1,20.153,3.708,10.818,877.739,-0.298,1.091
0.998000,357249,1000.00,12,0,1,14.869,-9.179,10.607,877.763,0.696,1.096
0.999000,357250,1000.00,12,0,1,19.985,-1.947,10.272,879.109,1.035,1.105
1.000000,357251,1000.00,12,0,1,26.615,1.290,9.750,879.493,1.864,1.134
1.001000,357252,1000.00,12,0,1,27.576,3.586,8.862,879.973,1.578,1.144
1.002000,357253,1000.00,12,0,1,18.064,-5.654,8.897,879.733,1.341,1.124
1.003000,357254,1000.00,12,0,1,13.980,-9.573,8.871,879.085,0.411,1.112
1.004000,357255,1000.00,12,0,1,16.887,-4.289,8.888,874.905,-2.965,1.185
1.005000,357256,1000.00,12,0,1,14.196,-3.735,8.821,878.052,-1.311,1.197
1.006000,357257,1000.00,12,0,1,21.090,2.592,8.824,877.980,0.622,1.165
1.007000,357258,1000.00,12,0,1,16.959,3.876,8.833,876.130,-2.120,1.203
1.008000,357259,1000.00,12,0,1,14.460,-0.287,8.765,877.427,-0.605,1.205
1.009000,357260,1000.00,12,0,1,13.187,1.937,8.711,877.691,0.096,1.203
1.010000,357261,1000.00,12,0,1,10.689,-0.319,8.685,877.307,-0.560,1.205
1.011000,357262,1000.00,12,0,1,12.659,1.870,8.575,877.595,-0.035,1.203
1.012000,357263,1000.00,12,0,1,10.641,1.314,8.492,878.052,0.152,1.139
1.013000,357264,1000.00,12,0,1,13.283,1.211,8.486,876.995,-0.365,1.139
1.014000,357265,1000.00,12,0,1,17.511,5.514,8.494,878.100,-0.094,1.136
1.015000,357266,1000.00,12,0,1,19.072,4.212,8.499,878.076,0.709,1.117
1.016000,357267,1000.00,12,0,1,24.717,6.792,8.449,879.109,0.730,1.092
1.017000,357268,1000.00,12,0,1,22.964,3.921,8.079,878.028,0.551,1.089
1.018000,357269,1000.00,12,0,1,12.923,-7.408,7.848,877.956,-0.461,1.090
1.019000,357270,1000.00,12,0,1,17.679,-6.157,7.761,877.091,-0.457,1.075
1.020000,357271,1000.00,12,0,1,22.075,0.174,7.693,877.547,-0.629,1.075
1.021000,357272,1000.00,12,0,1,22.531,-1.011,7.671,877.571,0.046,1.069
1.022000,357273,1000.00,12,0,1,21.763,-0.843,7.163,878.196,0.250,1.058
1.023000,357274,1000.00,12,0,1,15.229,-5.705,7.081,877.571,0.111,1.058
1.024000,357275,1000.00,12,0,1,14.941,-5.780,7.075,878.148,0.189,1.030
1.025000,357276,1000.00,12,0,1,23.516,4.164,7.058,876.827,-0.409,0.999
1.026000,357277,1000.00,12,0,1,16.766,1.777,6.945,877.595,-0.376,0.995
1.027000,357278,1000.00,12,0,1,15.445,-1.310,6.947,877.980,0.626,0.975
1.028000,357279,1000.00,12,0,1,13.764,1.367,6.949,877.211,-0.306,0.976
1.029000,357280,1000.00,12,0,1,18.904,4.326,6.970,875.722,-1.474,0.997
1.030000,357281,1000.00,12,0,1,19.313,7.763,7.056,876.418,-0.995,0.989
1.031000,357282,1000.00,12,0,1,14.557,1.640,7.056,877.379,0.279,0.990
1.032000,357283,1000.00,12,0,1,12.251,-0.810,7.026,877.932,0.729,0.995
1.033000,357284,1000.00,12,0,1,18.808,3.537,6.985,878.532,1.092,1.006
1.034000,357285,1000.00,12,0,1,19.577,4.485,6.956,877.115,0.054,0.999
1.035000,357286,1000.00,12,0,1,21.162,2.474,6.965,879.613,1.207,1.002
1.036000,357287,1000.00,12,0,1,21.042,1.368,6.794,879.349,2.088,1.044
1.037000,357288,1000.00,12,0,1,17.679,-3.690,6.294,876.394,-1.525,1.062
1.038000,357289,1000.00,12,0,1,20.514,-3.470,6.311,877.403,-0.741,1.066
1.039000,357290,1000.00,12,0,1,21.571,-1.799,5.789,877.211,-0.192,1.060
1.040000,357291,1000.00,12,0,1,13.668,-9.381,5.567,877.980,-0.088,1.059
1.041000,357292,1000.00,12,0,1,15.565,-8.606,5.612,878.652,1.111,1.068
1.042000,357293,1000.00,12,0,1,18.880,-2.801,5.625,877.139,-0.430,0.991
1.043000,357294,1000.00,12,0,1,17.967,-2.717,5.637,879.061,0.777,0.997
1.044000,357295,1000.00,12,0,1,14.581,-3.944,5.655,878.172,0.880,0.960
1.045000,357296,1000.00,12,0,1,14.893,-2.510,5.486,877.667,-0.577,0.960
1.046000,357297,1000.00,12,0,1,16.046,1.019,4.361,877.811,0.145,0.956
1.047000,357298,1000.00,12,0,1,15.565,2.148,4.340,877.403,-0.480,0.958
1.048000,357299,1000.00,12,0,1,13.331,1.506,4.147,876.538,-1.015,0.964
1.049000,357300,1000.00,12,0,1,12.371,1.455,4.143,877.691,-0.255,0.953
1.050000,357301,1000.00,12,0,1,11.242,1.418,4.144,878.052,0.534,0.919
1.051000,357302,1000.00,12,0,1,10.833,1.237,4.116,878.748,0.700,0.897
1.052000,357303,1000.00,12,0,1,12.034,2.136,4.049,876.851,-0.532,0.880
1.053000,357304,1000.00,12,0,1,13.908,3.283,3.844,877.667,-0.693,0.884
1.054000,357305,1000.00,12,0,1,11.626,0.609,3.797,878.508,0.804,0.786
1.055000,357306,1000.00,12,0,1,11.722,-1.345,3.765,877.691,-0.231,0.764
1.056000,357307,1000.00,12,0,1,18.496,3.293,3.776,877.691,-0.377,0.761
1.057000,357308,1000.00,12,0,1,22.676,6.161,3.836,877.883,0.005,0.700
1.058000,357309,1000.00,12,0,1,22.291,3.454,3.867,877.187,-0.646,0.700
1.059000,357310,1000.00,12,0,1,22.435,1.617,3.864,878.676,0.491,0.704
1.060000,357311,1000.00,12,0,1,23.132,1.049,3.866,878.868,1.075,0.716
1.061000,357312,1000.00,12,0,1,24.861,1.679,3.865,877.499,-0.381,0.718
1.062000,357313,1000.00,12,0,1,22.363,-0.128,3.860,877.691,-0.410,0.720
1.063000,357314,1000.00,12,0,1,15.397,-6.045,3.950,878.220,0.380,0.720
1.064000,357315,1000.00,12,0,1,13.043,-7.352,4.010,878.028,0.127,0.720
1.065000,357316,1000.00,12,0,1,18.736,-0.418,3.965,878.580,0.537,0.717
1.066000,357317,1000.00,12,0,1,24.501,6.817,3.966,878.580,0.618,0.715
1.067000,357318,1000.00,12,0,1,19.889,4.280,3.974,877.307,-0.548,0.715
1.068000,357319,1000.00,12,0,1,17.895,1.286,3.837,878.820,0.306,0.713
1.069000,357320,1000.00,12,0,1,7.591,-4.601,3.794,877.091,-0.298,0.711
1.070000,357321,1000.00,12,0,1,-7.302,-17.802,4.553,877.908,-0.792,0.715
1.071000,357322,1000.00,12,0,1,-0.120,-10.835,4.802,879.733,1.696,0.754
1.072000,357323,1000.00,12,0,1,14.989,6.335,4.883,877.619,-0.346,0.755
1.073000,357324,1000.00,12,0,1,24.213,13.584,5.185,876.466,-1.845,0.798
1.074000,357325,1000.00,12,0,1,24.405,12.129,5.400,879.301,0.691,0.804
1.075000,357326,1000.00,12,0,1,16.574,1.924,5.374,878.772,0.874,0.811
1.076000,357327,1000.00,12,0,1,20.682,1.334,5.372,880.189,1.020,0.822
1.077000,357328,1000.00,12,0,1,21.643,2.876,5.384,878.676,0.607,0.822
1.078000,357329,1000.00,12,0,1,19.481,-2.414,5.391,877.043,-1.851,0.861
1.079000,357330,1000.00,12,0,1,16.887,-4.705,5.398,878.172,-0.497,0.839
1.080000,357331,1000.00,12,0,1,15.998,-6.464,5.363,877.499,-0.598,0.831
1.081000,357332,1000.00,12,0,1,9.993,-9.721,5.532,877.067,-1.310,0.851
1.082000,357333,1000.00,12,0,1,7.879,-11.433,5.762,876.827,-0.891,0.854
1.083000,357334,1000.00,12,0,1,14.821,-2.851,5.755,877.547,-0.495,0.843
1.084000,357335,1000.00,12,0,1,18.448,3.352,5.739,876.538,-0.568,0.846
1.085000,357336,1000.00,12,0,1,16.718,2.592,5.740,876.947,-0.805,0.837
1.086000,357337,1000.00,12,0,1,14.436,1.845,5.743,879.349,1.795,0.823
1.087000,357338,1000.00,12,0,1,11.242,0.147,5.719,878.388,1.147,0.811
1.088000,357339,1000.00,12,0,1,8.119,-1.198,5.701,878.916,0.734,0.811
1.089000,357340,1000.00,12,0,1,12.755,3.023,5.711,877.883,0.482,0.813
1.090000,357341,1000.00,12,0,1,32.476,19.760,6.218,878.988,0.351,0.814
1.091000,357342,1000.00,12,0,1,42.012,28.357,7.298,878.628,0.925,0.810
1.092000,357343,1000.00,12,0,1,21.090,7.002,7.355,877.739,-0.717,0.814
1.093000,357344,1000.00,12,0,1,3.195,-14.706,7.633,877.787,-0.379,0.808
1.094000,357345,1000.00,12,0,1,3.555,-14.006,7.866,877.547,-0.596,0.803
1.095000,357346,1000.00,12,0,1,10.281,-7.018,7.921,877.331,-0.762,0.806
1.096000,357347,1000.00,12,0,1,14.244,-2.771,7.929,876.106,-1.455,0.832
1.097000,357348,1000.00,12,0,1,18.088,-0.504,7.924,878.268,-0.078,0.829
1.098000,357349,1000.00,12,0,1,23.516,3.345,7.935,879.061,1.651,0.849
1.099000,357350,1000.00,12,0,1,28.416,6.364,7.983,878.820,0.650,0.853
1.100000,357351,1000.00,12,0,1,27.984,4.811,8.010,878.508,0.658,0.855
1.101000,357352,1000.00,12,0,1,27.312,2.278,8.014,878.172,0.018,0.849
1.102000,357353,1000.00,12,0,1,21.715,-2.195,8.014,878.700,0.492,0.849
1.103000,357354,1000.00,12,0,1,12.203,-10.449,8.136,875.722,-1.591,0.873
1.104000,357355,1000.00,12,0,1,8.936,-12.023,8.312,876.130,-2.100,0.915
1.105000,357356,1000.00,12,0,1,10.665,-7.239,8.372,876.586,-0.364,0.916
1.106000,357357,1000.00,12,0,1,11.842,-3.454,8.374,876.634,-0.784,0.921
1.107000,357358,1000.00,12,0,1,4.708,-6.412,8.377,879.949,2.215,0.973
1.108000,357359,1000.00,12,0,1,1.778,-8.422,8.448,878.892,1.894,1.005
1.109000,357360,1000.00,12,0,1,6.389,-1.359,8.447,877.019,-0.839,1.009
1.110000,357361,1000.00,12,0,1,8.503,2.373,8.452,876.851,-0.671,1.002
1.111000,357362,1000.00,12,0,1,9.800,3.493,8.463,879.229,0.994,1.011
1.112000,357363,1000.00,12,0,1,10.881,4.391,8.486,877.283,0.236,1.009
1.113000,357364,1000.00,12,0,1,16.358,7.311,8.506,877.691,-0.785,1.014
1.114000,357365,1000.00,12,0,1,21.162,10.683,8.576,876.827,-0.285,1.015
1.115000,357366,1000.00,12,0,1,20.514,7.481,8.641,877.451,-0.730,1.017
1.116000,357367,1000.00,12,0,1,18.688,3.161,8.599,877.427,0.204,1.014
1.117000,357368,1000.00,12,0,1,20.249,2.176,8.583,878.676,0.612,1.015
1.118000,357369,1000.00,12,0,1,21.042,1.820,8.585,879.373,1.691,1.041
1.119000,357370,1000.00,12,0,1,21.691,0.767,8.561,878.652,0.739,1.046
1.120000,357371,1000.00,12,0,1,24.885,2.618,8.190,877.235,-0.652,1.044
1.121000,357372,1000.00,12,0,1,27.984,4.924,8.076,877.187,-0.733,1.021
1.122000,357373,1000.00,12,0,1,27.480,4.051,8.046,877.980,0.049,1.020
1.123000,357374,1000.00,12,0,1,24.405,1.032,7.815,878.268,0.567,0.989
1.124000,357375,1000.00,12,0,1,20.490,-2.079,7.630,877.763,-0.057,0.985
1.125000,357376,1000.00,12,0,1,13.692,-6.498,7.681,878.748,0.683,0.982
1.126000,357377,1000.00,12,0,1,11.146,-7.804,7.757,878.028,0.318,0.972
1.127000,357378,1000.00,12,0,1,8.744,-6.594,7.802,878.364,0.054,0.968
1.128000,357379,1000.00,12,0,1,10.425,-4.168,7.817,878.244,0.319,0.933
1.129000,357380,1000.00,12,0,1,13.620,1.074,7.790,878.964,0.436,0.933
1.130000,357381,1000.00,12,0,1,12.851,1.007,7.738,876.851,-0.831,0.936
1.131000,357382,1000.00,12,0,1,18.400,4.534,7.642,877.139,-1.474,0.941
1.132000,357383,1000.00,12,0,1,13.043,1.658,7.472,877.547,-0.216,0.933
1.133000,357384,1000.00,12,0,1,11.626,-3.846,7.481,876.827,-1.082,0.943
1.134000,357385,1000.00,12,0,1,14.100,-0.396,7.466,877.259,-0.645,0.944
1.135000,357386,1000.00,12,0,1,18.040,0.703,7.458,877.980,0.256,0.938
1.136000,357387,1000.00,12,0,1,22.603,4.056,7.476,877.115,-0.436,0.905
1.137000,357388,1000.00,12,0,1,25.534,4.615,7.504,877.715,-0.114,0.890
1.138000,357389,1000.00,12,0,1,25.366,2.783,7.512,877.619,0.184,0.885
1.139000,357390,1000.00,12,0,1,24.645,0.538,7.501,876.995,-0.497,0.885
1.140000,357391,1000.00,12,0,1,25.918,0.475,6.961,877.187,-0.289,0.884
1.141000,357392,1000.00,12,0,1,22.531,-1.676,5.694,877.283,0.042,0.875
1.142000,357393,1000.00,12,0,1,20.682,-4.223,5.639,877.787,0.350,0.870
1.143000,357394,1000.00,12,0,1,18.736,-3.589,5.266,877.595,0.469,0.871
1.144000,357395,1000.00,12,0,1,18.904,-2.962,4.898,877.859,0.355,0.868
1.145000,357396,1000.00,12,0,1,18.952,-0.315,4.796,879.133,1.544,0.889
1.146000,357397,1000.00,12,0,1,17.871,-0.250,4.780,878.796,1.241,0.882
1.147000,357398,1000.00,12,0,1,15.013,-1.025,4.782,877.667,-0.087,0.882
1.148000,357399,1000.00,12,0,1,12.587,-2.299,4.770,877.763,-0.175,0.851
1.149000,357400,1000.00,12,0,1,16.430,1.516,4.689,876.106,-1.228,0.864
1.150000,357401,1000.00,12,0,1,16.142,3.010,4.659,878.124,-0.192,0.859
1.151000,357402,1000.00,12,0,1,16.766,1.681,4.654,877.643,0.596,0.864
1.152000,357403,1000.00,12,0,1,21.523,5.553,4.709,876.106,-1.601,0.890
1.153000,357404,1000.00,12,0,1,20.490,3.645,4.501,878.316,0.448,0.863
1.154000,357405,1000.00,12,0,1,17.271,-1.535,4.173,880.141,2.367,0.877
1.155000,357406,1000.00,12,0,1,17.487,-2.854,4.066,879.349,1.360,0.897
1.156000,357407,1000.00,12,0,1,30.170,5.706,4.116,878.796,0.439,0.892
1.157000,357408,1000.00,12,0,1,32.092,8.482,4.190,878.508,0.063,0.835
1.158000,357409,1000.00,12,0,1,23.060,-3.252,4.044,879.421,0.634,0.796
1.159000,357410,1000.00,12,0,1,30.338,0.211,4.039,879.277,0.663,0.793
1.160000,357411,1000.00,12,0,1,31.467,3.779,4.061,878.700,-0.166,0.787
1.161000,357412,1000.00,12,0,1,28.176,-1.926,4.040,879.301,0.225,0.775
1.162000,357413,1000.00,12,0,1,24.213,-3.730,4.026,878.028,-0.538,0.778
1.163000,357414,1000.00,12,0,1,19.721,-7.438,4.031,879.253,-0.200,0.771
1.164000,357415,1000.00,12,0,1,19.841,-5.437,3.816,877.643,-0.508,0.773
1.165000,357416,1000.00,12,0,1,23.324,-0.295,3.666,877.980,-1.345,0.790
1.166000,357417,1000.00,12,0,1,27.552,4.815,3.702,878.172,-0.067,0.789
1.167000,357418,1000.00,12,0,1,24.309,3.678,3.726,877.475,-1.137,0.801
1.168000,357419,1000.00,12,0,1,16.646,-3.466,3.749,877.067,-1.152,0.781
1.169000,357420,1000.00,12,0,1,8.888,-8.980,3.957,878.556,0.008,0.774
1.170000,357421,1000.00,12,0,1,9.608,-8.191,4.106,877.187,-0.525,0.772
1.171000,357422,1000.00,12,0,1,15.373,-1.037,4.049,877.067,-1.275,0.786
1.172000,357423,1000.00,12,0,1,19.889,2.889,4.029,877.187,-0.541,0.790
1.173000,357424,1000.00,12,0,1,21.306,3.421,4.056,879.637,1.131,0.802
1.174000,357425,1000.00,12,0,1,19.721,0.480,4.046,877.427,0.158,0.802
1.175000,357426,1000.00,12,0,1,21.499,-0.144,3.940,876.899,-1.543,0.826
1.176000,357427,1000.00,12,0,1,23.949,1.298,3.787,877.739,0.031,0.825
1.177000,357428,1000.00,12,0,1,22.988,-0.926,3.672,878.580,0.533,0.828
1.178000,357429,1000.00,12,0,1,29.209,2.355,3.640,878.484,0.640,0.832
1.179000,357430,1000.00,12,0,1,37.064,9.118,3.859,879.061,0.863,0.838
1.180000,357431,1000.00,12,0,1,27.432,0.836,3.858,877.619,-0.131,0.830
1.181000,357432,1000.00,12,0,1,21.835,-7.289,3.941,877.211,-0.885,0.813
1.182000,357433,1000.00,12,0,1,21.090,-5.077,3.999,877.187,-0.503,0.816
1.183000,357434,1000.00,12,0,1,20.249,-4.842,4.021,878.100,0.251,0.802
1.184000,357435,1000.00,12,0,1,16.911,-4.857,4.079,878.580,0.908,0.807
1.185000,357436,1000.00,12,0,1,13.596,-6.079,4.167,878.340,0.633,0.811
1.186000,357437,1000.00,12,0,1,13.283,-3.901,4.164,876.827,-0.676,0.815
1.187000,357438,1000.00,12,0,1,11.674,-2.527,4.128,877.451,-0.406,0.817
1.188000,357439,1000.00,12,0,1,13.355,-0.248,4.110,878.340,0.763,0.823
1.189000,357440,1000.00,12,0,1,18.352,5.725,4.188,878.652,0.877,0.830
1.190000,357441,1000.00,12,0,1,19.409,6.758,4.295,879.205,1.158,0.845
1.191000,357442,1000.00,12,0,1,14.196,1.651,4.295,880.382,1.948,0.888
1.192000,357443,1000.00,12,0,1,19.697,3.403,4.280,877.667,-0.235,0.888
1.193000,357444,1000.00,12,0,1,34.326,15.558,4.786,876.779,-1.931,0.926
1.194000,357445,1000.00,12,0,1,32.908,13.038,5.112,878.868,0.316,0.926
1.195000,357446,1000.00,12,0,1,19.409,-3.222,5.132,878.772,0.535,0.903
1.196000,357447,1000.00,12,0,1,28.296,-0.303,5.132,877.691,-0.775,0.893
1.197000,357448,1000.00,12,0,1,33.893,7.050,5.226,875.313,-2.433,0.956
1.198000,357449,1000.00,12,0,1,18.472,-8.464,5.351,876.899,-1.595,0.982
1.199000,357450,1000.00,12,0,1,11.434,-16.861,5.854,877.667,0.374,0.968
1.200000,357451,1000.00,12,0,1,24.741,-3.646,5.862,877.980,0.047,0.968
1.201000,357452,1000.00,12,0,1,18.472,-3.692,5.880,876.851,-0.270,0.965
1.202000,357453,1000.00,12,0,1,19.937,-5.939,5.888,877.499,-0.330,0.939
1.203000,357454,1000.00,12,0,1,25.894,4.413,5.898,879.012,1.522,0.962
1.204000,357455,1000.00,12,0,1,25.870,4.274,5.925,878.076,0.713,0.907
1.205000,357456,1000.00,12,0,1,24.453,4.040,5.939,876.899,-0.687,0.892
1.206000,357457,1000.00,12,0,1,18.040,-0.305,5.884,878.292,0.499,0.892
1.207000,357458,1000.00,12,0,1,18.328,-0.976,5.762,878.772,1.178,0.908
1.208000,357459,1000.00,12,0,1,18.208,1.906,5.750,877.908,0.229,0.904
1.209000,357460,1000.00,12,0,1,17.703,0.245,5.750,877.932,-0.037,0.899
1.210000,357461,1000.00,12,0,1,32.500,12.158,5.978,877.427,-0.204,0.899
1.211000,357462,1000.00,12,0,1,34.686,15.257,6.349,876.923,-0.894,0.907
1.212000,357463,1000.00,12,0,1,-2.931,-18.168,6.829,878.940,0.824,0.912
1.213000,357464,1000.00,12,0,1,-2.690,-26.313,7.706,878.628,1.011,0.922
1.214000,357465,1000.00,12,0,1,7.711,-7.161,7.734,877.667,-0.430,0.922
1.215000,357466,1000.00,12,0,1,16.911,-2.487,7.742,877.163,-0.670,0.907
1.216000,357467,1000.00,12,0,1,34.950,14.443,7.978,877.859,-0.244,0.907
1.217000,357468,1000.00,12,0,1,18.424,1.972,7.966,878.652,0.715,0.899
1.218000,357469,1000.00,12,0,1,14.340,-10.231,8.081,877.980,0.129,0.884
1.219000,357470,1000.00,12,0,1,20.201,0.468,7.981,878.412,0.149,0.884
1.220000,357471,1000.00,12,0,1,22.700,0.403,7.897,878.700,0.703,0.887
1.221000,357472,1000.00,12,0,1,25.630,4.878,7.925,877.980,-0.142,0.868
1.222000,357473,1000.00,12,0,1,25.870,4.617,7.942,878.028,-0.171,0.865
1.223000,357474,1000.00,12,0,1,22.627,2.543,7.935,878.652,0.405,0.852
1.224000,357475,1000.00,12,0,1,20.057,0.549,7.935,877.019,-0.729,0.858
1.225000,357476,1000.00,12,0,1,20.081,1.498,7.938,875.698,-2.182,0.886
1.226000,357477,1000.00,12,0,1,16.718,0.563,7.936,877.379,-0.516,0.889
1.227000,357478,1000.00,12,0,1,14.893,-1.133,7.937,878.220,0.756,0.892
1.228000,357479,1000.00,12,0,1,11.866,-1.462,7.932,877.283,-0.194,0.888
1.229000,357480,1000.00,12,0,1,10.329,-3.032,7.839,877.283,-0.341,0.881
1.230000,357481,1000.00,12,0,1,13.355,0.720,7.838,877.139,-0.235,0.881
1.231000,357482,1000.00,12,0,1,13.428,1.242,7.772,878.580,0.707,0.878
1.232000,357483,1000.00,12,0,1,15.637,1.771,7.743,878.172,0.847,0.883
1.233000,357484,1000.00,12,0,1,18.088,3.568,7.729,878.700,0.520,0.885
1.234000,357485,1000.00,12,0,1,22.483,5.040,7.732,876.658,-0.540,0.879
1.235000,357486,1000.00,12,0,1,27.432,7.875,7.764,875.457,-2.356,0.936
1.236000,357487,1000.00,12,0,1,32.716,9.489,7.860,875.602,-1.494,0.955
1.237000,357488,1000.00,12,0,1,27.840,4.031,7.872,875.529,-1.348,0.972
1.238000,357489,1000.00,12,0,1,20.970,-5.391,7.909,877.259,0.222,0.967
1.239000,357490,1000.00,12,0,1,22.147,-4.959,7.899,876.755,0.527,0.961
1.240000,357491,1000.00,12,0,1,23.925,-2.362,7.848,876.971,-0.001,0.947
1.241000,357492,1000.00,12,0,1,19.481,-5.327,7.880,877.091,0.765,0.913
1.242000,357493,1000.00,12,0,1,12.419,-10.293,7.999,878.604,1.411,0.934
1.243000,357494,1000.00,12,0,1,18.352,-4.573,7.718,877.307,1.031,0.905
1.244000,357495,1000.00,12,0,1,20.201,1.846,7.499,875.073,-1.684,0.935
1.245000,357496,1000.00,12,0,1,21.018,1.864,7.490,875.169,-1.330,0.950
1.246000,357497,1000.00,12,0,1,21.210,4.416,7.516,876.514,0.109,0.944
1.247000,357498,1000.00,12,0,1,18.016,1.619,7.453,877.571,1.189,0.895
1.248000,357499,1000.00,12,0,1,13.476,-1.644,7.360,879.109,2.341,0.927
1.249000,357500,1000.00,12,0,1,10.473,-3.880,6.984,876.178,0.117,0.926
1.250000,357501,1000.00,12,0,1,17.439,1.705,6.969,876.106,-1.091,0.939
1.251000,357502,1000.00,12,0,1,24.957,9.352,7.074,878.628,1.741,0.970
1.252000,357503,1000.00,12,0,1,28.032,9.637,7.155,878.868,1.893,1.005
1.253000,357504,1000.00,12,0,1,29.617,8.667,7.233,878.292,0.895,0.990
1.254000,357505,1000.00,12,0,1,23.396,1.125,7.209,876.466,-0.603,0.988
1.255000,357506,1000.00,12,0,1,17.127,-7.275,7.260,876.899,-0.863,0.991
1.256000,357507,1000.00,12,0,1,20.898,-5.242,7.297,876.466,-0.391,0.990
1.257000,357508,1000.00,12,0,1,23.156,-2.332,7.304,877.859,0.066,0.976
1.258000,357509,1000.00,12,0,1,20.946,-5.012,7.333,877.259,0.512,0.978
1.259000,357510,1000.00,12,0,1,18.760,-6.678,7.393,876.274,-1.115,0.991
1.260000,357511,1000.00,12,0,1,17.847,-6.672,7.252,876.947,-0.184,0.991
1.261000,357512,1000.00,12,0,1,20.514,-3.236,6.939,878.676,1.243,0.998
1.262000,357513,1000.00,12,0,1,24.717,2.067,6.452,878.460,1.263,1.007
1.263000,357514,1000.00,12,0,1,26.375,4.580,5.311,879.949,1.793,1.029
1.264000,357515,1000.00,12,0,1,22.291,2.001,5.221,878.556,1.061,1.038
1.265000,357516,1000.00,12,0,1,15.998,-3.086,5.228,879.205,0.401,1.035
1.266000,357517,1000.00,12,0,1,18.280,-0.670,4.813,879.469,1.227,1.049
1.267000,357518,1000.00,12,0,1,16.430,0.699,4.806,878.460,-0.241,1.045
1.268000,357519,1000.00,12,0,1,14.581,-1.635,4.589,879.229,0.151,1.045
1.269000,357520,1000.00,12,0,1,15.854,0.760,4.590,877.643,-0.714,1.049
1.270000,357521,1000.00,12,0,1,25.414,7.826,4.721,879.253,-0.399,1.046
1.271000,357522,1000.00,12,0,1,24.021,8.093,4.808,879.181,0.757,1.052
1.272000,357523,1000.00,12,0,1,12.827,-4.754,4.811,879.565,-0.125,1.051
1.273000,357524,1000.00,12,0,1,15.950,-4.477,4.839,878.796,0.031,1.050
1.274000,357525,1000.00,12,0,1,21.450,1.830,4.845,878.748,-0.869,1.052
1.275000,357526,1000.00,12,0,1,15.661,-4.179,4.877,877.643,-1.120,1.018
1.276000,357527,1000.00,12,0,1,17.199,-5.056,4.928,877.691,-1.576,1.040
1.277000,357528,1000.00,12,0,1,22.844,0.753,4.927,879.349,0.258,1.035
1.278000,357529,1000.00,12,0,1,25.438,2.446,4.935,878.484,-0.129,1.035
1.279000,357530,1000.00,12,0,1,26.375,2.601,4.930,877.547,-1.447,1.053
1.280000,357531,1000.00,12,0,1,24.597,0.913,4.930,878.748,-0.133,1.053
1.281000,357532,1000.00,12,0,1,22.411,-1.322,4.931,877.451,-0.890,1.056
1.282000,357533,1000.00,12,0,1,23.660,0.315,4.925,877.499,-1.262,1.064
1.283000,357534,1000.00,12,0,1,28.296,4.985,4.949,876.250,-1.559,1.084
1.284000,357535,1000.00,12,0,1,25.054,3.908,4.929,877.787,-0.813,1.088
1.285000,357536,1000.00,12,0,1,16.118,-4.168,4.837,878.748,0.998,1.045
1.286000,357537,1000.00,12,0,1,10.185,-8.151,4.788,878.532,0.344,1.025
1.287000,357538,1000.00,12,0,1,8.599,-7.578,4.873,878.340,0.256,1.007
1.288000,357539,1000.00,12,0,1,15.685,-0.128,4.813,878.508,0.276,1.008
1.289000,357540,1000.00,12,0,1,14.917,2.261,4.773,877.475,-0.482,1.007
1.290000,357541,1000.00,12,0,1,17.583,2.087,4.770,877.980,-0.316,1.008
1.291000,357542,1000.00,12,0,1,20.009,5.613,4.777,877.259,-0.417,1.004
1.292000,357543,1000.00,12,0,1,10.953,-3.342,4.574,877.859,-0.303,0.985
1.293000,357544,1000.00,12,0,1,14.316,-3.592,4.557,878.652,0.844,0.981
1.294000,357545,1000.00,12,0,1,22.171,4.867,4.601,879.109,1.035,0.963
1.295000,357546,1000.00,12,0,1,27.263,6.811,4.693,879.061,0.963,0.954
1.296000,357547,1000.00,12,0,1,28.585,6.845,4.751,877.787,-0.163,0.955
1.297000,357548,1000.00,12,0,1,25.846,1.928,4.753,878.700,0.131,0.940
1.298000,357549,1000.00,12,0,1,23.997,-1.196,4.751,879.469,1.325,0.899
1.299000,357550,1000.00,12,0,1,22.171,-3.021,4.738,876.971,-0.979,0.910
1.300000,357551,1000.00,12,0,1,19.553,-5.126,4.787,877.403,-1.111,0.910
1.301000,357552,1000.00,12,0,1,13.956,-8.412,4.752,877.427,-0.271,0.877
1.302000,357553,1000.00,12,0,1,11.530,-9.507,4.747,877.619,-0.507,0.838
1.303000,357554,1000.00,12,0,1,7.494,-9.246,4.769,875.626,-1.494,0.855
1.304000,357555,1000.00,12,0,1,5.116,-9.461,4.950,876.995,-1.073,0.865
1.305000,357556,1000.00,12,0,1,16.454,2.474,4.855,876.418,-0.223,0.856
1.306000,357557,1000.00,12,0,1,16.358,6.993,4.899,876.298,-1.125,0.869
1.307000,357558,1000.00,12,0,1,7.086,-2.343,4.899,876.706,-0.040,0.869
1.308000,357559,1000.00,12,0,1,8.359,-0.992,4.849,877.211,0.217,0.867
1.309000,357560,1000.00,12,0,1,11.338,3.397,4.781,876.514,-0.093,0.852
1.310000,357561,1000.00,12,0,1,12.227,3.691,4.716,875.602,-0.965,0.863
1.311000,357562,1000.00,12,0,1,15.710,5.872,4.766,876.586,-0.178,0.845
1.312000,357563,1000.00,12,0,1,8.263,-0.233,4.758,876.899,0.671,0.832
1.313000,357564,1000.00,12,0,1,3.171,-7.647,4.836,876.586,0.069,0.792
1.314000,357565,1000.00,12,0,1,3.867,-6.011,4.902,876.851,0.508,0.781
1.315000,357566,1000.00,12,0,1,6.558,-3.823,4.912,879.469,2.354,0.847
1.316000,357567,1000.00,12,0,1,13.668,2.232,4.921,879.517,2.922,0.926
1.317000,357568,1000.00,12,0,1,19.697,7.554,5.035,877.163,0.079,0.926
1.318000,357569,1000.00,12,0,1,16.238,3.918,5.060,876.731,-0.530,0.929
1.319000,357570,1000.00,12,0,1,5.549,-6.053,5.131,876.130,-0.705,0.928
1.320000,357571,1000.00,12,0,1,6.438,-6.349,5.090,877.523,0.166,0.927
1.321000,357572,1000.00,12,0,1,15.469,4.312,4.997,878.364,1.498,0.945
1.322000,357573,1000.00,12,0,1,26.375,13.931,5.329,876.658,-0.236,0.945
1.323000,357574,1000.00,12,0,1,14.244,6.261,5.365,876.514,-0.659,0.950
1.324000,357575,1000.00,12,0,1,11.410,-1.348,5.362,876.971,0.065,0.942
1.325000,357576,1000.00,12,0,1,12.683,4.301,5.364,877.139,0.129,0.929
1.326000,357577,1000.00,12,0,1,17.799,6.750,5.401,878.412,1.122,0.915
1.327000,357578,1000.00,12,0,1,13.043,5.612,5.458,879.085,1.729,0.947
1.328000,357579,1000.00,12,0,1,-1.345,-8.370,5.574,877.307,0.024,0.947
1.329000,357580,1000.00,12,0,1,-7.807,-13.877,5.898,876.899,-0.891,0.933
1.330000,357581,1000.00,12,0,1,-12.779,-14.557,6.246,875.698,-1.392,0.953
1.331000,357582,1000.00,12,0,1,-0.144,-4.756,6.279,876.875,-0.910,0.954
1.332000,357583,1000.00,12,0,1,19.985,16.329,6.690,877.595,0.543,0.940
1.333000,357584,1000.00,12,0,1,13.043,9.876,6.798,878.772,0.968,0.924
1.334000,357585,1000.00,12,0,1,14.533,4.335,6.803,875.842,-0.802,0.924
1.335000,357586,1000.00,12,0,1,21.234,10.726,6.945,875.457,-2.248,0.967
1.336000,357587,1000.00,12,0,1,22.267,8.065,6.943,876.731,-0.118,0.965
1.337000,357588,1000.00,12,0,1,15.229,0.674,6.861,878.004,0.801,0.971
1.338000,357589,1000.00,12,0,1,7.687,-8.239,6.959,877.067,0.378,0.972
1.339000,357590,1000.00,12,0,1,12.683,-4.488,6.980,876.538,-0.515,0.972
1.340000,357591,1000.00,12,0,1,22.051,5.495,7.017,878.268,0.981,0.981
1.341000,357592,1000.00,12,0,1,22.195,5.984,7.023,878.340,1.454,1.001
1.342000,357593,1000.00,12,0,1,22.147,4.721,7.039,876.130,-0.870,1.007
1.343000,357594,1000.00,12,0,1,35.382,14.722,7.323,877.139,-0.292,1.001
1.344000,357595,1000.00,12,0,1,30.915,13.577,7.539,877.667,0.697,0.995
1.345000,357596,1000.00,12,0,1,16.718,-3.026,7.490,877.043,-0.093,0.986
1.346000,357597,1000.00,12,0,1,12.563,-6.284,7.480,877.691,0.303,0.987
1.347000,357598,1000.00,12,0,1,4.156,-10.996,7.635,877.355,0.292,0.987
1.348000,357599,1000.00,12,0,1,-4.660,-17.822,8.038,878.412,0.616,0.973
1.349000,357600,1000.00,12,0,1,-3.267,-14.112,8.271,878.052,0.828,0.971
1.350000,357601,1000.00,12,0,1,1.081,-7.393,8.306,876.851,-0.823,0.965
1.351000,357602,1000.00,12,0,1,1.994,-4.923,8.249,878.508,0.507,0.967
1.352000,357603,1000.00,12,0,1,4.828,-2.762,8.149,878.340,0.802,0.971
1.353000,357604,1000.00,12,0,1,8.383,0.660,8.043,877.499,-0.497,0.950
1.354000,357605,1000.00,12,0,1,9.560,0.684,7.932,877.379,-0.432,0.940
1.355000,357606,1000.00,12,0,1,10.041,-0.091,7.924,877.019,-0.753,0.945
1.356000,357607,1000.00,12,0,1,19.000,5.427,7.900,877.091,-0.628,0.936
1.357000,357608,1000.00,12,0,1,24.093,9.970,8.018,878.172,0.347,0.937
1.358000,357609,1000.00,12,0,1,30.578,11.653,8.184,877.811,0.310,0.938
1.359000,357610,1000.00,12,0,1,29.978,10.814,8.312,878.964,0.777,0.944
1.360000,357611,1000.00,12,0,1,19.913,-0.594,8.296,879.349,1.503,0.958
1.361000,357612,1000.00,12,0,1,14.148,-6.673,8.308,879.661,1.138,0.971
1.362000,357613,1000.00,12,0,1,13.644,-5.435,8.343,879.229,0.852,0.974
1.363000,357614,1000.00,12,0,1,11.242,-5.358,8.308,876.658,-1.548,0.998
1.364000,357615,1000.00,12,0,1,6.606,-7.041,8.324,878.412,-0.693,1.001
1.365000,357616,1000.00,12,0,1,5.309,-6.312,8.354,878.844,0.776,0.950
1.366000,357617,1000.00,12,0,1,5.885,-2.720,8.357,877.235,-1.271,0.874
1.367000,357618,1000.00,12,0,1,7.639,0.300,8.289,877.283,-1.095,0.888
1.368000,357619,1000.00,12,0,1,8.960,3.038,8.281,879.397,0.681,0.890
1.369000,357620,1000.00,12,0,1,6.774,1.505,8.240,879.781,1.379,0.905
1.370000,357621,1000.00,12,0,1,4.108,-1.180,8.192,879.349,0.469,0.907
1.371000,357622,1000.00,12,0,1,3.915,-1.716,8.173,878.196,-0.496,0.885
1.372000,357623,1000.00,12,0,1,8.095,1.144,7.934,878.100,-0.905,0.894
1.373000,357624,1000.00,12,0,1,13.524,5.086,7.917,876.899,-1.481,0.913
1.374000,357625,1000.00,12,0,1,14.460,4.383,7.939,878.964,-0.238,0.914
1.375000,357626,1000.00,12,0,1,22.195,7.442,7.985,877.787,-0.089,0.914
1.376000,357627,1000.00,12,0,1,21.234,6.652,7.983,877.067,-1.674,0.930
1.377000,357628,1000.00,12,0,1,18.760,-0.034,7.944,878.652,0.268,0.898
1.378000,357629,1000.00,12,0,1,24.957,4.235,7.878,877.283,-0.524,0.901
1.379000,357630,1000.00,12,0,1,23.300,3.113,7.642,878.532,-0.215,0.893
1.380000,357631,1000.00,12,0,1,15.397,-5.291,7.398,879.493,1.542,0.898
1.381000,357632,1000.00,12,0,1,12.203,-7.518,7.444,878.460,0.055,0.889
1.382000,357633,1000.00,12,0,1,7.639,-8.939,7.188,877.523,-0.631,0.890
1.383000,357634,1000.00,12,0,1,9.921,-5.696,7.097,876.755,-1.364,0.900
1.384000,357635,1000.00,12,0,1,6.726,-3.806,7.091,877.643,-0.509,0.896
1.385000,357636,1000.00,12,0,1,6.990,-3.430,6.944,877.307,-0.291,0.839
1.386000,357637,1000.00,12,0,1,8.023,1.176,6.852,876.971,-0.839,0.847
1.387000,357638,1000.00,12,0,1,8.912,2.322,6.859,878.244,0.453,0.842
1.388000,357639,1000.00,12,0,1,7.999,2.883,6.771,877.499,0.145,0.840
1.389000,357640,1000.00,12,0,1,6.750,1.413,6.745,877.139,-0.582,0.841
1.390000,357641,1000.00,12,0,1,9.440,3.015,6.713,878.628,0.867,0.839
1.391000,357642,1000.00,12,0,1,10.041,3.545,6.678,877.379,0.144,0.813
1.392000,357643,1000.00,12,0,1,9.752,1.006,6.647,877.932,-0.115,0.804
1.393000,357644,1000.00,12,0,1,5.164,-3.276,6.329,877.523,0.298,0.804
1.394000,357645,1000.00,12,0,1,13.716,0.201,6.031,876.971,-0.745,0.805
1.395000,357646,1000.00,12,0,1,26.567,12.196,6.258,878.388,0.693,0.811
1.396000,357647,1000.00,12,0,1,28.489,11.034,6.388,877.859,0.545,0.813
1.397000,357648,1000.00,12,0,1,23.228,3.441,6.215,878.868,0.753,0.819
1.398000,357649,1000.00,12,0,1,18.760,-2.840,5.695,878.316,0.935,0.825
1.399000,357650,1000.00,12,0,1,18.280,-3.917,5.363,877.643,-0.410,0.819
1.400000,357651,1000.00,12,0,1,12.587,-7.117,5.355,879.253,1.142,0.827
1.401000,357652,1000.00,12,0,1,9.416,-9.892,5.491,879.829,1.702,0.858
1.402000,357653,1000.00,12,0,1,15.637,-1.964,5.484,880.141,1.509,0.877
1.403000,357654,1000.00,12,0,1,18.160,3.133,5.501,877.547,-0.489,0.877
1.404000,357655,1000.00,12,0,1,9.416,-2.676,5.513,877.091,-1.769,0.910
1.405000,357656,1000.00,12,0,1,8.311,-3.987,5.542,879.421,0.816,0.911
1.406000,357657,1000.00,12,0,1,10.881,1.588,5.493,877.908,-0.126,0.907
1.407000,357658,1000.00,12,0,1,18.448,7.752,5.421,878.364,-0.578,0.909
1.408000,357659,1000.00,12,0,1,15.301,7.311,5.267,879.661,1.185,0.923
1.409000,357660,1000.00,12,0,1,11.842,0.871,5.042,877.259,-0.957,0.927
1.410000,357661,1000.00,12,0,1,17.127,4.995,5.090,876.346,-2.198,0.954
1.411000,357662,1000.00,12,0,1,13.476,1.898,5.009,878.748,0.173,0.941
1.412000,357663,1000.00,12,0,1,9.248,-5.186,5.004,878.580,0.579,0.936
1.413000,357664,1000.00,12,0,1,12.395,-2.984,4.964,878.556,-0.062,0.911
1.414000,357665,1000.00,12,0,1,18.280,0.780,4.865,877.283,-0.665,0.910
1.415000,357666,1000.00,12,0,1,18.184,0.380,4.782,878.196,-0.544,0.907
1.416000,357667,1000.00,12,0,1,9.368,-8.763,4.925,878.220,0.291,0.890
1.417000,357668,1000.00,12,0,1,6.942,-12.158,5.217,878.100,-0.347,0.877
1.418000,357669,1000.00,12,0,1,10.377,-7.358,5.302,877.043,-0.796,0.879
1.419000,357670,1000.00,12,0,1,7.831,-7.451,5.401,879.829,0.924,0.867
1.420000,357671,1000.00,12,0,1,4.348,-9.437,5.561,879.517,1.717,0.898
1.421000,357672,1000.00,12,0,1,6.317,-5.463,5.610,877.331,-1.087,0.909
1.422000,357673,1000.00,12,0,1,9.368,0.009,5.607,876.803,-1.400,0.921
1.423000,357674,1000.00,12,0,1,10.785,3.188,5.579,876.755,-1.130,0.911
1.424000,357675,1000.00,12,0,1,11.530,5.209,5.593,877.163,-0.708,0.916
1.425000,357676,1000.00,12,0,1,15.661,9.215,5.646,876.875,-0.445,0.918
1.426000,357677,1000.00,12,0,1,14.845,9.785,5.736,876.803,-0.716,0.893
1.427000,357678,1000.00,12,0,1,10.425,4.822,5.777,878.868,1.258,0.910
1.428000,357679,1000.00,12,0,1,11.025,4.579,5.782,876.466,-0.225,0.907
1.429000,357680,1000.00,12,0,1,12.827,6.066,5.829,876.394,-1.295,0.925
1.430000,357681,1000.00,12,0,1,15.085,6.465,5.852,878.652,1.398,0.920
1.431000,357682,1000.00,12,0,1,16.286,6.238,5.822,877.523,0.556,0.924
1.432000,357683,1000.00,12,0,1,17.151,4.515,5.719,877.283,-0.278,0.920
1.433000,357684,1000.00,12,0,1,18.616,3.757,5.687,877.811,0.568,0.903
1.434000,357685,1000.00,12,0,1,16.022,-0.173,5.661,877.427,0.050,0.900
1.435000,357686,1000.00,12,0,1,14.917,-3.554,5.663,878.652,0.934,0.909
1.436000,357687,1000.00,12,0,1,16.959,-2.450,5.671,877.403,0.267,0.902
1.437000,357688,1000.00,12,0,1,18.832,-1.439,5.665,877.379,-0.490,0.903
1.438000,357689,1000.00,12,0,1,19.193,-1.432,5.654,878.340,0.817,0.910
1.439000,357690,1000.00,12,0,1,18.640,-2.093,5.658,880.334,2.116,0.954
1.440000,357691,1000.00,12,0,1,13.355,-5.707,5.700,878.940,1.349,0.965
1.441000,357692,1000.00,12,0,1,10.785,-7.720,5.782,879.277,0.474,0.967
1.442000,357693,1000.00,12,0,1,11.386,-4.743,5.819,879.733,1.408,0.987
1.443000,357694,1000.00,12,0,1,11.482,-2.696,5.813,877.859,-0.543,0.990
1.444000,357695,1000.00,12,0,1,10.065,-2.003,5.820,877.859,-0.930,0.993
1.445000,357696,1000.00,12,0,1,10.401,-0.486,5.559,877.091,-0.930,0.997
1.446000,357697,1000.00,12,0,1,13.764,3.569,5.359,878.868,-0.081,0.994
1.447000,357698,1000.00,12,0,1,17.007,7.057,5.429,876.346,-0.876,0.996
1.448000,357699,1000.00,12,0,1,6.486,-1.028,5.416,876.779,-2.002,1.027
1.449000,357700,1000.00,12,0,1,-0.072,-9.139,5.541,878.316,0.751,1.030
1.450000,357701,1000.00,12,0,1,1.393,-6.059,5.515,878.028,0.016,1.018
1.451000,357702,1000.00,12,0,1,3.075,-3.991,5.365,879.469,1.114,1.001
1.452000,357703,1000.00,12,0,1,5.092,-2.183,5.367,877.667,0.055,0.978
1.453000,357704,1000.00,12,0,1,7.542,-0.275,5.348,877.619,-1.090,0.988
1.454000,357705,1000.00,12,0,1,6.798,-1.387,5.339,878.580,0.559,0.959
1.455000,357706,1000.00,12,0,1,12.371,1.647,5.314,876.538,-1.382,0.972
1.456000,357707,1000.00,12,0,1,17.775,6.551,5.389,874.665,-2.983,1.059
1.457000,357708,1000.00,12,0,1,21.234,7.591,5.385,875.025,-2.419,1.110
1.458000,357709,1000.00,12,0,1,23.877,8.552,5.421,876.322,-0.695,1.102
1.459000,357710,1000.00,12,0,1,25.030,8.081,5.539,876.731,0.032,1.094
1.460000,357711,1000.00,12,0,1,26.038,7.522,5.596,875.986,-0.463,1.051
1.461000,357712,1000.00,12,0,1,18.040,1.132,5.592,877.451,0.609,1.054
1.462000,357713,1000.00,12,0,1,8.119,-8.524,5.673,877.715,1.414,1.069
1.463000,357714,1000.00,12,0,1,6.462,-8.215,5.775,877.667,0.875,1.077
1.464000,357715,1000.00,12,0,1,7.663,-4.364,5.807,878.340,1.515,1.094
1.465000,357716,1000.00,12,0,1,9.440,-0.819,5.808,876.682,0.195,1.091
1.466000,357717,1000.00,12,0,1,9.680,1.175,5.677,877.571,0.232,1.091
1.467000,357718,1000.00,12,0,1,7.663,0.157,5.410,876.706,0.396,1.091
1.468000,357719,1000.00,12,0,1,9.056,1.293,5.312,878.604,0.892,1.093
1.469000,357720,1000.00,12,0,1,7.951,1.216,5.209,877.163,0.933,1.093
1.470000,357721,1000.00,12,0,1,8.960,0.540,5.036,875.505,-1.751,1.094
1.471000,357722,1000.00,12,0,1,9.824,1.398,4.981,876.971,0.014,1.083
1.472000,357723,1000.00,12,0,1,10.593,0.304,4.981,878.700,1.596,1.089
1.473000,357724,1000.00,12,0,1,10.425,-0.649,4.961,876.827,0.172,1.077
1.474000,357725,1000.00,12,0,1,14.749,0.946,4.908,877.211,-0.285,1.073
1.475000,357726,1000.00,12,0,1,20.850,5.436,4.794,878.484,1.249,1.086
1.476000,357727,1000.00,12,0,1,22.075,4.999,4.644,877.355,0.242,1.082
1.477000,357728,1000.00,12,0,1,18.112,-0.211,4.594,877.835,0.027,1.067
1.478000,357729,1000.00,12,0,1,13.644,-5.088,4.604,876.442,-0.437,1.068
1.479000,357730,1000.00,12,0,1,15.517,-3.872,4.557,876.995,-0.895,1.060
1.480000,357731,1000.00,12,0,1,15.277,-1.904,4.472,876.562,-0.183,1.042
1.481000,357732,1000.00,12,0,1,13.067,-3.563,4.413,877.139,-0.486,1.041
1.482000,357733,1000.00,12,0,1,12.875,-2.032,4.376,876.827,0.098,1.040
1.483000,357734,1000.00,12,0,1,12.058,-1.042,4.346,876.706,-0.545,1.040
1.484000,357735,1000.00,12,0,1,11.314,-0.300,4.346,877.883,0.742,1.045
1.485000,357736,1000.00,12,0,1,11.602,1.319,4.321,880.093,2.477,1.095
1.486000,357737,1000.00,12,0,1,13.524,3.732,4.340,878.988,1.686,1.120
1.487000,357738,1000.00,12,0,1,16.574,6.737,4.438,878.268,0.184,1.118
1.488000,357739,1000.00,12,0,1,13.884,4.536,4.480,877.571,-0.219,1.112
1.489000,357740,1000.00,12,0,1,15.421,3.540,4.498,877.331,-0.694,1.076
1.490000,357741,1000.00,12,0,1,9.608,-0.417,4.425,876.827,-0.903,1.066
1.491000,357742,1000.00,12,0,1,3.675,-8.421,4.451,876.322,-1.297,1.080
1.492000,357743,1000.00,12,0,1,4.948,-6.966,4.509,877.715,-0.166,1.062
1.493000,357744,1000.00,12,0,1,8.503,-3.868,4.526,877.691,0.402,1.060
1.494000,357745,1000.00,12,0,1,11.362,-1.679,4.523,877.283,-0.452,1.054
1.495000,357746,1000.00,12,0,1,13.908,-0.154,4.523,877.691,0.132,1.046
1.496000,357747,1000.00,12,0,1,18.856,2.776,4.512,877.595,-0.016,1.046
1.497000,357748,1000.00,12,0,1,28.657,10.052,4.624,877.067,-0.444,1.040
1.498000,357749,1000.00,12,0,1,44.462,21.229,5.511,878.268,0.347,1.002
1.499000,357750,1000.00,12,0,1,41.316,18.290,5.949,877.211,-0.025,0.997
1.500000,357751,1000.00,12,0,1,30.458,3.082,5.903,878.940,0.536,1.000
1.501000,357752,1000.00,12,0,1,19.673,-6.124,5.940,877.835,0.650,0.991
1.502000,357753,1000.00,12,0,1,21.715,-5.904,5.990,877.139,-1.080,1.003
1.503000,357754,1000.00,12,0,1,17.967,-4.328,6.021,877.547,-0.095,0.991
1.504000,357755,1000.00,12,0,1,10.905,-10.712,6.206,877.787,-0.059,0.988
1.505000,357756,1000.00,12,0,1,13.067,-6.547,6.270,876.731,-0.717,0.974
1.506000,357757,1000.00,12,0,1,10.833,-4.799,6.238,877.643,-0.240,0.878
1.507000,357758,1000.00,12,0,1,10.545,-5.233,6.190,875.409,-1.338,0.831
1.508000,357759,1000.00,12,0,1,17.727,2.837,6.084,875.938,-1.674,0.858
1.509000,357760,1000.00,12,0,1,31.539,13.603,6.277,878.868,1.650,0.890
1.510000,357761,1000.00,12,0,1,16.670,3.318,6.204,879.757,2.455,0.953
1.511000,357762,1000.00,12,0,1,-3.675,-20.633,6.854,878.820,1.219,0.964
1.512000,357763,1000.00,12,0,1,3.435,-14.126,7.037,877.932,0.189,0.944
1.513000,357764,1000.00,12,0,1,11.650,-3.495,6.958,875.433,-1.938,0.975
1.514000,357765,1000.00,12,0,1,15.445,-1.496,6.934,878.148,-0.214,0.952
1.515000,357766,1000.00,12,0,1,14.460,-1.797,6.938,878.628,1.430,0.972
1.516000,357767,1000.00,12,0,1,14.268,-4.065,6.959,877.187,-0.640,0.976
1.517000,357768,1000.00,12,0,1,18.664,0.097,6.959,877.187,-0.538,0.977
1.518000,357769,1000.00,12,0,1,16.838,-0.868,6.958,877.787,0.062,0.969
1.519000,357770,1000.00,12,0,1,15.349,-2.913,6.968,875.169,-1.807,0.994
1.520000,357771,1000.00,12,0,1,17.823,0.423,6.968,876.154,-1.581,0.988
1.521000,357772,1000.00,12,0,1,27.167,8.626,7.071,876.538,-0.103,0.988
1.522000,357773,1000.00,12,0,1,24.309,8.901,7.182,876.490,-0.534,0.965
1.523000,357774,1000.00,12,0,1,19.577,2.417,7.190,876.731,0.036,0.965
1.524000,357775,1000.00,12,0,1,15.349,0.899,7.190,879.277,1.921,1.001
1.525000,357776,1000.00,12,0,1,8.167,-4.599,7.178,877.667,1.196,1.000
1.526000,357777,1000.00,12,0,1,5.621,-5.548,7.186,876.106,-1.151,1.013
1.527000,357778,1000.00,12,0,1,8.119,-1.215,7.188,877.283,0.105,1.013
1.528000,357779,1000.00,12,0,1,17.127,6.906,7.218,878.700,1.488,1.032
1.529000,357780,1000.00,12,0,1,25.054,14.473,7.483,877.547,0.508,1.027
1.530000,357781,1000.00,12,0,1,22.291,10.171,7.615,876.971,-0.397,1.028
1.531000,357782,1000.00,12,0,1,21.763,5.855,7.643,878.148,0.591,1.030
1.532000,357783,1000.00,12,0,1,20.658,3.506,7.654,879.565,1.908,1.064
1.533000,357784,1000.00,12,0,1,18.496,-1.209,7.655,879.061,1.300,1.077
1.534000,357785,1000.00,12,0,1,13.764,-6.262,7.705,878.220,0.192,1.072
1.535000,357786,1000.00,12,0,1,13.620,-8.292,7.792,876.706,-1.120,1.026
1.536000,357787,1000.00,12,0,1,17.391,-4.557,7.801,875.746,-2.018,1.038
1.537000,357788,1000.00,12,0,1,18.952,-3.046,7.754,877.211,-0.657,1.042
1.538000,357789,1000.00,12,0,1,21.234,-1.576,7.731,877.067,-0.100,1.041
1.539000,357790,1000.00,12,0,1,23.588,1.040,7.716,878.172,0.265,1.037
1.540000,357791,1000.00,12,0,1,29.521,5.425,7.754,878.892,1.444,1.050
1.541000,357792,1000.00,12,0,1,38.865,13.651,7.901,879.709,1.491,1.055
1.542000,357793,1000.00,12,0,1,21.210,0.638,7.840,878.508,0.732,1.059
1.543000,357794,1000.00,12,0,1,0.240,-20.778,8.355,877.859,-0.597,1.061
1.544000,357795,1000.00,12,0,1,12.563,-8.515,8.438,878.868,0.420,1.061
1.545000,357796,1000.00,12,0,1,15.998,2.275,8.444,880.021,1.328,1.077
1.546000,357797,1000.00,12,0,1,-14.436,-22.063,8.993,878.748,0.248,1.078
1.547000,357798,1000.00,12,0,1,-2.474,-15.743,9.155,879.061,-0.137,1.076
1.548000,357799,1000.00,12,0,1,19.433,13.739,8.865,877.091,-1.203,1.089
1.549000,357800,1000.00,12,0,1,16.838,10.066,8.598,879.493,-0.197,1.089
1.550000,357801,1000.00,12,0,1,9.416,1.637,8.590,879.493,1.174,1.099
1.551000,357802,1000.00,12,0,1,9.969,0.189,8.546,879.373,-0.133,1.095
1.552000,357803,1000.00,12,0,1,12.563,1.974,8.510,877.547,-0.931,1.092
1.553000,357804,1000.00,12,0,1,24.189,9.525,8.594,877.379,-1.823,1.122
1.554000,357805,1000.00,12,0,1,28.777,13.014,8.657,879.661,0.629,1.126
1.555000,357806,1000.00,12,0,1,21.715,3.425,8.621,880.454,1.561,1.143
1.556000,357807,1000.00,12,0,1,18.520,-2.847,8.604,878.868,-0.147,1.142
1.557000,357808,1000.00,12,0,1,19.649,-1.904,8.576,879.349,-0.086,1.127
1.558000,357809,1000.00,12,0,1,26.303,2.423,8.574,879.925,0.575,1.105
1.559000,357810,1000.00,12,0,1,27.528,5.075,8.386,878.028,-0.953,1.088
1.560000,357811,1000.00,12,0,1,26.159,1.954,8.377,877.091,-2.216,1.078
1.561000,357812,1000.00,12,0,1,22.411,0.026,7.852,878.052,-0.913,1.072
1.562000,357813,1000.00,12,0,1,18.640,-3.374,7.609,879.085,0.084,1.071
1.563000,357814,1000.00,12,0,1,16.022,-3.657,7.611,878.220,-0.330,1.037
1.564000,357815,1000.00,12,0,1,16.911,-1.654,7.611,876.490,-2.024,1.075
1.565000,357816,1000.00,12,0,1,20.418,3.144,7.620,875.986,-2.240,1.103
1.566000,357817,1000.00,12,0,1,24.525,7.414,7.670,877.259,-0.871,1.106
1.567000,357818,1000.00,12,0,1,9.824,-3.259,7.684,878.340,0.514,1.105
1.568000,357819,1000.00,12,0,1,8.720,-8.333,7.773,879.373,1.290,1.120
1.569000,357820,1000.00,12,0,1,19.601,4.418,7.787,878.868,0.997,1.100
1.570000,357821,1000.00,12,0,1,19.193,4.010,7.808,877.908,-0.203,1.077
1.571000,357822,1000.00,12,0,1,14.845,-2.173,7.718,878.580,0.278,1.078
1.572000,357823,1000.00,12,0,1,15.950,-2.525,7.623,877.739,-0.060,1.075
1.573000,357824,1000.00,12,0,1,18.088,-1.658,7.619,878.268,-0.139,1.076
1.574000,357825,1000.00,12,0,1,22.243,0.583,7.618,878.772,0.848,1.048
1.575000,357826,1000.00,12,0,1,29.521,5.096,7.624,878.364,0.198,1.034
1.576000,357827,1000.00,12,0,1,35.551,8.940,7.689,878.940,0.637,1.025
1.577000,357828,1000.00,12,0,1,33.125,4.906,7.718,877.932,0.019,1.025
1.578000,357829,1000.00,12,0,1,28.176,-1.645,7.659,878.940,0.279,1.004
1.579000,357830,1000.00,12,0,1,26.687,-3.637,7.399,877.523,-0.073,1.002
1.580000,357831,1000.00,12,0,1,25.342,-3.782,7.277,876.682,-1.629,1.026
1.581000,357832,1000.00,12,0,1,23.396,-4.540,7.258,877.859,-0.023,1.023
1.582000,357833,1000.00,12,0,1,21.474,-4.380,7.268,878.652,0.706,0.992
1.583000,357834,1000.00,12,0,1,17.991,-5.361,7.305,877.211,-0.340,0.976
1.584000,357835,1000.00,12,0,1,14.917,-6.017,7.301,876.370,-1.378,0.994
1.585000,357836,1000.00,12,0,1,20.201,-0.072,7.206,878.580,0.560,0.985
1.586000,357837,1000.00,12,0,1,24.693,6.459,7.235,879.373,1.768,0.975
1.587000,357838,1000.00,12,0,1,26.711,7.582,7.302,877.451,-0.270,0.972
1.588000,357839,1000.00,12,0,1,25.798,6.506,7.356,877.523,-0.550,0.975
1.589000,357840,1000.00,12,0,1,18.472,-0.921,7.356,875.818,-1.402,0.994
1.590000,357841,1000.00,12,0,1,14.196,-6.493,7.373,877.595,-0.598,0.976
1.591000,357842,1000.00,12,0,1,15.157,-5.577,7.160,876.923,0.166,0.954
1.592000,357843,1000.00,12,0,1,16.142,-4.947,7.193,877.331,-0.526,0.951
1.593000,357844,1000.00,12,0,1,19.361,-3.000,6.579,877.283,0.389,0.949
1.594000,357845,1000.00,12,0,1,22.651,-0.609,6.469,878.532,0.763,0.953
1.595000,357846,1000.00,12,0,1,27.047,1.701,6.465,878.460,1.315,0.953
1.596000,357847,1000.00,12,0,1,36.247,8.011,5.775,879.301,1.299,0.970
1.597000,357848,1000.00,12,0,1,27.696,1.528,5.332,880.093,2.157,1.016
1.598000,357849,1000.00,12,0,1,9.440,-17.038,5.520,877.980,0.224,1.002
1.599000,357850,1000.00,12,0,1,15.445,-12.267,5.608,879.061,0.191,1.002
1.600000,357851,1000.00,12,0,1,18.592,-3.087,5.620,879.445,1.422,1.009
1.601000,357852,1000.00,12,0,1,18.928,-3.188,5.638,879.036,0.185,1.009
1.602000,357853,1000.00,12,0,1,19.048,0.536,5.632,878.028,-0.263,1.001
1.603000,357854,1000.00,12,0,1,16.454,-0.685,5.469,878.340,-0.597,0.971
1.604000,357855,1000.00,12,0,1,13.355,-1.298,5.153,879.781,1.014,0.977
1.605000,357856,1000.00,12,0,1,11.914,-0.990,5.132,877.619,-0.652,0.957
1.606000,357857,1000.00,12,0,1,12.707,1.182,5.119,877.283,-1.685,0.986
1.607000,357858,1000.00,12,0,1,9.152,0.089,5.112,877.499,-0.710,0.991
1.608000,357859,1000.00,12,0,1,10.041,-0.052,5.101,878.868,0.030,0.987
1.609000,357860,1000.00,12,0,1,14.989,5.480,5.109,878.652,0.513,0.981
1.610000,357861,1000.00,12,0,1,18.112,7.118,5.200,879.205,0.226,0.930
1.611000,357862,1000.00,12,0,1,19.673,7.016,5.294,879.541,0.920,0.930
1.612000,357863,1000.00,12,0,1,23.853,7.880,5.389,877.787,-0.829,0.937
1.613000,357864,1000.00,12,0,1,24.909,7.197,5.460,878.628,-0.571,0.940
1.614000,357865,1000.00,12,0,1,24.813,3.841,5.482,877.187,-0.906,0.904
1.615000,357866,1000.00,12,0,1,27.600,4.073,5.494,876.731,-2.086,0.897
1.616000,357867,1000.00,12,0,1,28.008,3.123,5.411,876.538,-1.258,0.906
1.617000,357868,1000.00,12,0,1,23.756,-1.985,5.399,878.652,0.070,0.903
1.618000,357869,1000.00,12,0,1,16.694,-8.296,5.397,878.892,1.265,0.902
1.619000,357870,1000.00,12,0,1,9.921,-13.327,5.683,879.541,0.947,0.901
1.620000,357871,1000.00,12,0,1,11.050,-10.519,5.847,878.676,0.755,0.907
1.621000,357872,1000.00,12,0,1,15.517,-3.164,5.856,877.691,-0.713,0.912
1.622000,357873,1000.00,12,0,1,15.685,-0.370,5.845,879.709,0.968,0.922
1.623000,357874,1000.00,12,0,1,13.764,-0.530,5.841,879.133,1.074,0.934
1.624000,357875,1000.00,12,0,1,10.545,-1.380,5.844,878.268,-0.526,0.929
1.625000,357876,1000.00,12,0,1,8.023,-2.285,5.808,878.892,0.351,0.930
1.626000,357877,1000.00,12,0,1,12.347,2.418,5.679,879.373,0.568,0.929
1.627000,357878,1000.00,12,0,1,17.415,8.165,5.754,878.988,0.355,0.931
1.628000,357879,1000.00,12,0,1,13.187,4.562,5.785,878.412,-0.420,0.932
1.629000,357880,1000.00,12,0,1,10.593,0.052,5.762,879.036,0.071,0.932
1.630000,357881,1000.00,12,0,1,14.028,2.545,5.748,877.667,-0.754,0.909
1.631000,357882,1000.00,12,0,1,16.622,3.913,5.739,875.770,-2.652,0.983
1.632000,357883,1000.00,12,0,1,18.232,3.445,5.726,878.676,-0.209,0.979
1.633000,357884,1000.00,12,0,1,18.688,2.229,5.685,879.469,1.470,0.999
1.634000,357885,1000.00,12,0,1,19.481,0.901,5.622,878.820,0.194,0.981
1.635000,357886,1000.00,12,0,1,19.817,0.132,5.622,877.811,-0.426,0.979
1.636000,357887,1000.00,12,0,1,19.889,-0.984,5.549,878.940,0.057,0.947
1.637000,357888,1000.00,12,0,1,24.621,2.155,5.453,877.403,-0.457,0.948
1.638000,357889,1000.00,12,0,1,25.894,3.903,5.403,879.589,0.307,0.946
1.639000,357890,1000.00,12,0,1,20.754,-1.070,5.404,879.373,1.418,0.947
1.640000,357891,1000.00,12,0,1,13.908,-6.513,5.404,879.469,0.257,0.943
1.641000,357892,1000.00,12,0,1,20.177,-1.122,5.349,878.556,0.179,0.944
1.642000,357893,1000.00,12,0,1,27.456,8.547,5.439,877.067,-1.601,0.967
1.643000,357894,1000.00,12,0,1,26.471,7.745,5.532,876.490,-1.841,1.000
1.644000,357895,1000.00,12,0,1,15.445,-1.131,5.533,880.502,1.465,1.016
1.645000,357896,1000.00,12,0,1,14.677,-3.537,5.551,880.502,2.412,1.055
1.646000,357897,1000.00,12,0,1,19.577,3.311,5.454,879.205,0.239,1.040
1.647000,357898,1000.00,12,0,1,29.017,10.280,5.640,878.340,-0.377,0.995
1.648000,357899,1000.00,12,0,1,31.803,12.958,5.419,876.803,-1.674,1.023
1.649000,357900,1000.00,12,0,1,7.494,-8.694,5.279,877.235,-1.484,1.044
1.650000,357901,1000.00,12,0,1,0.456,-20.690,6.020,878.748,0.429,1.026
1.651000,357902,1000.00,12,0,1,1.537,-14.014,6.322,880.382,1.591,1.050
1.652000,357903,1000.00,12,0,1,15.974,-4.251,6.350,878.940,0.771,1.055
1.653000,357904,1000.00,12,0,1,26.447,8.952,6.474,878.388,-0.672,1.056
1.654000,357905,1000.00,12,0,1,28.609,6.790,6.542,878.604,0.047,1.046
1.655000,357906,1000.00,12,0,1,28.080,4.907,6.577,878.076,-0.628,1.046
1.656000,357907,1000.00,12,0,1,30.458,4.094,6.601,877.883,-0.696,1.023
1.657000,357908,1000.00,12,0,1,22.748,-2.241,6.608,878.124,-0.412,1.020
1.658000,357909,1000.00,12,0,1,2.979,-19.543,7.163,877.427,-0.794,1.026
1.659000,357910,1000.00,12,0,1,13.355,-12.806,7.348,879.012,0.286,1.024
1.660000,357911,1000.00,12,0,1,29.978,9.322,7.397,880.742,2.175,1.069
1.661000,357912,1000.00,12,0,1,21.691,2.797,7.341,879.829,1.218,1.075
1.662000,357913,1000.00,12,0,1,15.013,-4.150,7.279,880.021,0.721,1.073
1.663000,357914,1000.00,12,0,1,18.832,0.891,7.209,879.925,0.892,1.078
1.664000,357915,1000.00,12,0,1,21.090,4.944,7.222,877.499,-1.405,1.088
1.665000,357916,1000.00,12,0,1,18.400,3.235,7.214,876.202,-2.648,1.112
1.666000,357917,1000.00,12,0,1,15.974,1.038,7.202,876.610,-1.874,1.130
1.667000,357918,1000.00,12,0,1,19.048,3.560,7.214,878.772,0.226,1.130
1.668000,357919,1000.00,12,0,1,19.265,4.355,7.144,881.150,2.548,1.173
1.669000,357920,1000.00,12,0,1,13.596,-1.553,6.895,879.493,1.235,1.178
1.670000,357921,1000.00,12,0,1,15.133,-2.126,6.739,877.091,-1.546,1.193
1.671000,357922,1000.00,12,0,1,23.468,4.906,6.760,875.866,-2.353,1.235
1.672000,357923,1000.00,12,0,1,21.619,3.001,6.773,876.370,-1.797,1.253
1.673000,357924,1000.00,12,0,1,21.354,-0.892,6.774,877.763,-0.101,1.244
1.674000,357925,1000.00,12,0,1,26.327,2.717,6.782,876.899,-0.453,1.243
1.675000,357926,1000.00,12,0,1,24.621,0.448,6.775,878.220,0.162,1.243
1.676000,357927,1000.00,12,0,1,24.213,-2.206,6.773,877.883,0.709,1.244
1.677000,357928,1000.00,12,0,1,38.889,8.963,6.793,878.292,0.223,1.243
1.678000,357929,1000.00,12,0,1,43.694,14.525,7.068,877.643,0.348,1.243
1.679000,357930,1000.00,12,0,1,18.064,-8.478,7.169,878.892,0.607,1.246
