# FW/GUI: v9.6.1-multi17-dual (PyQt5)
# StartTime: 2026-04-03 16:25:24
# Slot: 13
# DeviceID: 13
# Label: EMG13
# IP: 192.168.137.206
# TCP: 3333
# DeviceFW: EMG_FW_v9.6_MULTI17_DUALCH_RUNTIMECFG_CHEN
# EMG column notes: EMG_t_s=seconds since this Start; sample_idx=device sample index (ADS frame index); fs=sample rate (SPS); gain=gain; flags=0x01(TEST) 0x02(SHORT) 0x04(RLD); emg_valid=1 valid / 0 invalid (spike-guard decision); ch1_raw_uV=raw uV (after spike guard); ch1_filt_uV=filtered uV; ch1_env_uV=envelope (RMS) uV
EMG_t_s,sample_idx,fs,gain,flags,emg_valid,ch1_raw_uV,ch1_filt_uV,ch1_env_uV,ch2_raw_uV,ch2_filt_uV,ch2_env_uV
0.000000,978451,1000.00,12,0,1,-127.718,0.111,4.365,1081.531,0.397,1.086
0.001000,978452,1000.00,12,0,1,-126.877,-0.961,4.343,1080.666,-0.078,1.073
0.002000,978453,1000.00,12,0,1,-125.388,-0.856,4.338,1082.900,1.175,1.070
0.003000,978454,1000.00,12,0,1,-122.577,-0.127,4.332,1079.993,-0.106,1.070
0.004000,978455,1000.00,12,0,1,-120.848,0.366,4.315,1079.873,-1.795,1.066
0.005000,978456,1000.00,12,0,1,-120.512,-0.747,4.316,1082.468,1.631,1.088
0.006000,978457,1000.00,12,0,1,-116.909,1.106,4.290,1081.122,0.525,1.083
0.007000,978458,1000.00,12,0,1,-113.642,3.896,4.324,1080.474,-0.566,1.082
0.008000,978459,1000.00,12,0,1,-114.627,2.534,4.325,1081.987,1.075,1.091
0.009000,978460,1000.00,12,0,1,-121.112,-2.796,4.340,1080.330,-0.053,1.086
0.010000,978461,1000.00,12,0,1,-124.331,-5.651,4.411,1081.267,0.109,1.082
0.011000,978462,1000.00,12,0,1,-125.676,-4.242,4.451,1080.378,0.263,1.083
0.012000,978463,1000.00,12,0,1,-128.294,-4.591,4.493,1079.681,-0.987,1.091
0.013000,978464,1000.00,12,0,1,-123.418,0.825,4.478,1080.906,0.451,1.093
0.014000,978465,1000.00,12,0,1,-123.947,3.671,4.491,1080.954,0.726,1.084
0.015000,978466,1000.00,12,0,1,-123.730,2.652,4.484,1080.210,-0.153,1.058
0.016000,978467,1000.00,12,0,1,-123.490,4.357,4.476,1079.345,-0.736,1.062
0.017000,978468,1000.00,12,0,1,-127.334,0.251,4.331,1081.987,1.026,1.071
0.018000,978469,1000.00,12,0,1,-129.760,-2.570,4.153,1083.452,3.014,1.153
0.019000,978470,1000.00,12,0,1,-127.045,-0.902,4.120,1082.948,1.702,1.155
0.020000,978471,1000.00,12,0,1,-129.375,-2.630,4.108,1078.552,-1.799,1.182
0.021000,978472,1000.00,12,0,1,-126.301,-2.584,3.930,1080.354,-1.666,1.205
0.022000,978473,1000.00,12,0,1,-119.359,3.341,3.261,1082.035,1.440,1.221
0.023000,978474,1000.00,12,0,1,-115.948,4.605,2.781,1082.347,0.803,1.224
0.024000,978475,1000.00,12,0,1,-122.577,-2.310,2.740,1082.636,1.274,1.232
0.025000,978476,1000.00,12,0,1,-127.646,-9.094,2.931,1079.993,-1.011,1.222
0.026000,978477,1000.00,12,0,1,-125.844,-7.060,2.983,1082.203,-0.092,1.194
0.027000,978478,1000.00,12,0,1,-125.628,-5.176,3.013,1081.363,0.774,1.187
0.028000,978479,1000.00,12,0,1,-126.853,-5.508,3.110,1079.657,-1.973,1.219
0.029000,978480,1000.00,12,0,1,-122.385,-0.362,3.105,1081.915,0.539,1.212
0.030000,978481,1000.00,12,0,1,-125.100,0.218,3.097,1080.690,0.023,1.211
0.031000,978482,1000.00,12,0,1,-128.535,-2.639,3.120,1081.915,0.180,1.207
0.032000,978483,1000.00,12,0,1,-128.174,-0.036,3.120,1083.645,2.435,1.249
0.033000,978484,1000.00,12,0,1,-129.303,0.982,3.091,1082.708,1.112,1.220
0.034000,978485,1000.00,12,0,1,-130.696,0.895,3.071,1081.555,-0.163,1.186
0.035000,978486,1000.00,12,0,1,-130.456,2.319,3.085,1080.642,-1.071,1.196
0.036000,978487,1000.00,12,0,1,-129.495,3.640,3.123,1079.873,-1.678,1.214
0.037000,978488,1000.00,12,0,1,-128.294,4.762,3.193,1081.723,-0.197,1.198
0.038000,978489,1000.00,12,0,1,-128.078,4.235,3.248,1082.275,0.834,1.195
0.039000,978490,1000.00,12,0,1,-128.511,2.731,3.266,1082.924,0.788,1.191
0.040000,978491,1000.00,12,0,1,-129.928,0.198,3.254,1081.891,0.202,1.094
0.041000,978492,1000.00,12,0,1,-128.607,-0.356,3.248,1080.065,-1.841,1.102
0.042000,978493,1000.00,12,0,1,-127.430,-0.087,3.228,1080.402,-1.525,1.123
0.043000,978494,1000.00,12,0,1,-122.602,2.007,3.214,1081.459,-0.207,1.103
0.044000,978495,1000.00,12,0,1,-120.223,3.718,3.223,1081.723,0.090,1.094
0.045000,978496,1000.00,12,0,1,-121.304,0.816,3.178,1079.873,-1.213,1.104
0.046000,978497,1000.00,12,0,1,-121.376,-0.276,3.155,1077.832,-3.104,1.187
0.047000,978498,1000.00,12,0,1,-121.280,-0.356,3.143,1079.393,-1.491,1.204
0.048000,978499,1000.00,12,0,1,-120.560,0.178,3.131,1081.074,0.740,1.208
0.049000,978500,1000.00,12,0,1,-122.049,-0.047,3.121,1081.603,1.182,1.220
0.050000,978501,1000.00,12,0,1,-122.121,-0.000,3.121,1081.435,1.047,1.227
0.051000,978502,1000.00,12,0,1,-122.529,1.436,3.125,1080.090,-0.157,1.227
0.052000,978503,1000.00,12,0,1,-124.091,0.805,3.125,1079.537,-0.827,1.222
0.053000,978504,1000.00,12,0,1,-121.184,3.966,3.175,1080.570,0.242,1.222
0.054000,978505,1000.00,12,0,1,-117.245,8.368,3.388,1080.114,0.175,1.196
0.055000,978506,1000.00,12,0,1,-115.563,9.368,3.636,1081.387,0.778,1.178
0.056000,978507,1000.00,12,0,1,-111.288,11.393,3.974,1080.354,0.565,1.179
0.057000,978508,1000.00,12,0,1,-107.781,12.944,4.340,1081.122,0.235,1.176
0.058000,978509,1000.00,12,0,1,-109.270,8.995,4.509,1082.083,1.700,1.191
0.059000,978510,1000.00,12,0,1,-120.800,-3.024,4.512,1081.795,0.935,1.198
0.060000,978511,1000.00,12,0,1,-139.176,-20.727,5.321,1080.041,-0.528,1.201
0.061000,978512,1000.00,12,0,1,-134.588,-18.954,5.927,1080.041,-0.961,1.208
0.062000,978513,1000.00,12,0,1,-126.373,-6.980,5.974,1080.618,-0.052,1.200
0.063000,978514,1000.00,12,0,1,-125.844,-7.262,6.060,1079.465,-0.858,1.204
0.064000,978515,1000.00,12,0,1,-127.141,-7.849,6.139,1080.786,-0.145,1.200
0.065000,978516,1000.00,12,0,1,-124.643,-6.137,6.189,1079.225,-0.411,1.201
0.066000,978517,1000.00,12,0,1,-124.571,-4.563,6.192,1079.033,-1.536,1.216
0.067000,978518,1000.00,12,0,1,-124.715,-4.693,6.227,1081.459,1.351,1.222
0.068000,978519,1000.00,12,0,1,-124.091,-2.894,6.230,1080.402,0.665,1.150
0.069000,978520,1000.00,12,0,1,-122.049,-0.119,6.229,1080.282,-0.065,1.124
0.070000,978521,1000.00,12,0,1,-123.178,0.511,6.218,1081.267,1.150,1.107
0.071000,978522,1000.00,12,0,1,-125.076,-0.307,6.208,1081.098,0.832,1.088
0.072000,978523,1000.00,12,0,1,-125.004,0.963,6.191,1080.306,0.076,1.069
0.073000,978524,1000.00,12,0,1,-126.613,1.402,6.160,1080.666,0.102,1.063
0.074000,978525,1000.00,12,0,1,-129.279,-0.197,6.151,1083.164,2.170,1.092
0.075000,978526,1000.00,12,0,1,-130.360,0.089,6.015,1082.876,2.138,1.124
0.076000,978527,1000.00,12,0,1,-129.087,1.786,5.937,1082.011,0.498,1.126
0.077000,978528,1000.00,12,0,1,-129.640,2.296,5.901,1082.179,0.573,1.123
0.078000,978529,1000.00,12,0,1,-128.318,2.507,5.860,1081.675,-0.010,1.088
0.079000,978530,1000.00,12,0,1,-127.574,3.339,5.879,1080.666,-1.006,1.095
0.080000,978531,1000.00,12,0,1,-127.117,2.214,5.887,1080.162,-1.443,1.114
0.081000,978532,1000.00,12,0,1,-125.364,2.676,5.887,1081.867,-0.032,1.113
0.082000,978533,1000.00,12,0,1,-123.995,2.556,5.898,1082.155,0.744,1.064
0.083000,978534,1000.00,12,0,1,-121.761,2.768,5.910,1080.450,-1.024,1.062
0.084000,978535,1000.00,12,0,1,-121.761,1.873,5.914,1080.786,-0.912,1.070
0.085000,978536,1000.00,12,0,1,-118.470,2.480,5.916,1080.354,-0.731,1.064
0.086000,978537,1000.00,12,0,1,-119.527,2.012,5.900,1081.267,-0.337,1.038
0.087000,978538,1000.00,12,0,1,-118.350,0.692,5.862,1079.849,-0.721,1.043
0.088000,978539,1000.00,12,0,1,-119.311,1.156,5.834,1080.810,-0.758,1.042
0.089000,978540,1000.00,12,0,1,-119.935,-0.461,5.822,1083.885,2.548,1.097
0.090000,978541,1000.00,12,0,1,-120.199,0.605,5.822,1081.987,1.049,1.106
0.091000,978542,1000.00,12,0,1,-121.713,-0.147,5.822,1081.291,-0.645,1.079
0.092000,978543,1000.00,12,0,1,-125.124,-1.947,5.828,1081.747,0.281,1.058
0.093000,978544,1000.00,12,0,1,-127.117,-2.705,5.834,1079.801,-1.505,1.079
0.094000,978545,1000.00,12,0,1,-126.925,-1.240,5.813,1080.234,-1.404,1.097
0.095000,978546,1000.00,12,0,1,-126.661,0.368,5.812,1081.122,-0.048,1.083
0.096000,978547,1000.00,12,0,1,-123.730,2.852,5.826,1082.275,0.719,0.996
0.097000,978548,1000.00,12,0,1,-124.883,2.918,5.840,1081.555,0.458,0.975
0.098000,978549,1000.00,12,0,1,-123.851,1.756,5.845,1081.291,-0.349,0.971
0.099000,978550,1000.00,12,0,1,-120.776,4.404,5.879,1083.524,1.603,0.983
0.100000,978551,1000.00,12,0,1,-119.479,3.768,5.903,1081.315,0.242,0.972
0.101000,978552,1000.00,12,0,1,-114.795,5.559,5.951,1080.138,-1.839,1.006
0.102000,978553,1000.00,12,0,1,-118.494,1.821,5.956,1079.873,-1.204,1.014
0.103000,978554,1000.00,12,0,1,-118.830,-2.527,5.940,1080.834,-0.693,1.018
0.104000,978555,1000.00,12,0,1,-117.725,-1.106,5.823,1079.873,-0.639,1.022
0.105000,978556,1000.00,12,0,1,-120.103,-4.600,5.708,1081.050,-0.318,1.017
0.106000,978557,1000.00,12,0,1,-118.398,-3.739,5.501,1082.444,1.646,1.040
0.107000,978558,1000.00,12,0,1,-118.446,-2.710,5.202,1080.017,-0.493,1.042
0.108000,978559,1000.00,12,0,1,-120.896,-4.877,5.091,1080.041,-1.149,1.027
0.109000,978560,1000.00,12,0,1,-122.121,-4.772,5.117,1080.378,-0.013,1.018
0.110000,978561,1000.00,12,0,1,-127.934,-7.754,4.336,1081.963,0.751,1.021
0.111000,978562,1000.00,12,0,1,-129.808,-8.393,3.608,1079.609,-0.263,1.012
0.112000,978563,1000.00,12,0,1,-130.889,-5.817,3.567,1081.074,-0.501,1.015
0.113000,978564,1000.00,12,0,1,-129.928,-3.481,3.451,1082.444,2.037,1.048
0.114000,978565,1000.00,12,0,1,-129.279,-0.262,3.268,1081.074,0.108,1.048
0.115000,978566,1000.00,12,0,1,-129.087,0.756,3.153,1080.114,-0.759,1.052
0.116000,978567,1000.00,12,0,1,-128.463,2.132,3.101,1081.435,0.231,1.030
0.117000,978568,1000.00,12,0,1,-130.384,0.985,3.032,1082.732,1.555,1.035
0.118000,978569,1000.00,12,0,1,-131.681,-0.802,3.006,1084.005,2.382,1.085
0.119000,978570,1000.00,12,0,1,-130.072,0.542,3.007,1081.795,0.526,1.087
0.120000,978571,1000.00,12,0,1,-126.685,2.750,3.031,1081.483,-0.633,1.079
0.121000,978572,1000.00,12,0,1,-124.067,4.304,3.092,1080.858,-0.548,1.075
0.122000,978573,1000.00,12,0,1,-118.446,6.938,3.241,1078.480,-2.653,1.139
0.123000,978574,1000.00,12,0,1,-114.891,8.977,3.475,1080.450,-1.204,1.151
0.124000,978575,1000.00,12,0,1,-117.917,4.119,3.523,1080.138,-0.100,1.110
0.125000,978576,1000.00,12,0,1,-120.656,-0.419,3.524,1079.753,-1.243,1.082
0.126000,978577,1000.00,12,0,1,-121.593,-1.696,3.523,1081.267,0.710,1.084
0.127000,978578,1000.00,12,0,1,-121.689,-1.889,3.518,1081.267,0.716,1.086
0.128000,978579,1000.00,12,0,1,-119.671,0.264,3.500,1080.474,-0.082,1.086
0.129000,978580,1000.00,12,0,1,-117.629,2.776,3.490,1079.969,-0.571,1.080
0.130000,978581,1000.00,12,0,1,-121.689,0.370,3.477,1078.792,-1.414,1.079
0.131000,978582,1000.00,12,0,1,-124.980,-2.628,3.476,1079.465,-0.959,1.087
0.132000,978583,1000.00,12,0,1,-123.370,0.166,3.457,1079.105,-0.621,1.086
0.133000,978584,1000.00,12,0,1,-120.079,4.127,3.484,1080.642,0.234,1.077
0.134000,978585,1000.00,12,0,1,-126.517,0.246,3.474,1081.603,1.677,1.095
0.135000,978586,1000.00,12,0,1,-128.126,-2.823,3.480,1082.155,1.582,1.113
0.136000,978587,1000.00,12,0,1,-129.856,-1.876,3.478,1080.402,0.302,1.113
0.137000,978588,1000.00,12,0,1,-130.672,-3.487,3.511,1080.138,-0.655,1.112
0.138000,978589,1000.00,12,0,1,-129.135,-1.329,3.513,1080.858,0.402,1.108
0.139000,978590,1000.00,12,0,1,-125.436,1.210,3.516,1079.945,-0.287,1.049
0.140000,978591,1000.00,12,0,1,-117.917,6.546,3.635,1079.729,-0.705,1.043
0.141000,978592,1000.00,12,0,1,-115.948,7.549,3.789,1080.306,0.175,1.039
0.142000,978593,1000.00,12,0,1,-119.287,1.586,3.785,1081.819,1.289,1.054
0.143000,978594,1000.00,12,0,1,-124.451,-4.192,3.812,1081.507,1.440,1.052
0.144000,978595,1000.00,12,0,1,-124.067,-5.726,3.893,1081.723,0.880,1.041
0.145000,978596,1000.00,12,0,1,-118.806,-0.579,3.894,1080.162,0.056,1.041
0.146000,978597,1000.00,12,0,1,-121.593,-2.180,3.885,1080.618,-0.416,1.038
0.147000,978598,1000.00,12,0,1,-118.590,-1.342,3.868,1081.146,0.760,1.041
0.148000,978599,1000.00,12,0,1,-115.900,3.258,3.887,1082.179,1.056,1.051
0.149000,978600,1000.00,12,0,1,-122.313,-2.171,3.849,1081.435,0.773,1.032
0.150000,978601,1000.00,12,0,1,-128.390,-7.013,3.939,1080.065,-0.969,1.040
0.151000,978602,1000.00,12,0,1,-127.598,-4.738,3.918,1081.074,-0.245,1.008
0.152000,978603,1000.00,12,0,1,-128.943,-2.926,3.931,1081.098,0.222,0.994
0.153000,978604,1000.00,12,0,1,-132.042,-4.287,3.961,1080.642,-0.634,0.993
0.154000,978605,1000.00,12,0,1,-128.727,-0.305,3.958,1081.122,-0.055,0.989
0.155000,978606,1000.00,12,0,1,-128.895,2.025,3.915,1082.107,0.611,0.992
0.156000,978607,1000.00,12,0,1,-132.570,-1.543,3.885,1082.444,1.004,0.974
0.157000,978608,1000.00,12,0,1,-131.777,-0.719,3.868,1080.474,-0.804,0.979
0.158000,978609,1000.00,12,0,1,-129.447,1.572,3.812,1079.753,-1.775,0.997
0.159000,978610,1000.00,12,0,1,-127.406,2.704,3.771,1079.465,-1.499,1.019
0.160000,978611,1000.00,12,0,1,-126.541,2.556,3.627,1079.561,-1.359,1.032
0.161000,978612,1000.00,12,0,1,-126.157,1.412,3.433,1080.690,-0.061,1.031
0.162000,978613,1000.00,12,0,1,-125.652,0.655,3.334,1081.411,0.786,1.035
0.163000,978614,1000.00,12,0,1,-124.475,0.457,3.298,1081.963,1.134,1.007
0.164000,978615,1000.00,12,0,1,-123.034,0.910,3.300,1080.906,0.367,1.008
0.165000,978616,1000.00,12,0,1,-120.800,1.994,3.311,1081.747,0.468,1.004
0.166000,978617,1000.00,12,0,1,-117.845,4.020,3.346,1081.531,0.856,1.011
0.167000,978618,1000.00,12,0,1,-120.079,2.235,3.358,1080.786,-0.365,0.988
0.168000,978619,1000.00,12,0,1,-122.914,-1.049,3.359,1081.194,0.088,0.929
0.169000,978620,1000.00,12,0,1,-121.400,0.846,3.360,1083.044,1.483,0.950
0.170000,978621,1000.00,12,0,1,-123.947,0.333,3.338,1082.516,1.267,0.962
0.171000,978622,1000.00,12,0,1,-129.399,-3.861,3.327,1080.882,-0.725,0.965
0.172000,978623,1000.00,12,0,1,-132.066,-4.711,3.248,1079.705,-1.724,0.921
0.173000,978624,1000.00,12,0,1,-131.369,-2.361,3.008,1080.065,-1.398,0.927
0.174000,978625,1000.00,12,0,1,-128.895,1.357,2.958,1082.564,0.858,0.935
0.175000,978626,1000.00,12,0,1,-126.949,3.901,3.008,1083.260,1.856,0.955
0.176000,978627,1000.00,12,0,1,-130.000,1.672,3.008,1081.315,-0.249,0.950
0.177000,978628,1000.00,12,0,1,-133.651,-2.359,3.014,1080.234,-1.424,0.966
0.178000,978629,1000.00,12,0,1,-131.657,-1.111,3.018,1081.867,-0.058,0.966
0.179000,978630,1000.00,12,0,1,-129.447,1.020,2.996,1081.843,0.500,0.965
0.180000,978631,1000.00,12,0,1,-128.487,0.654,2.997,1082.516,0.458,0.946
0.181000,978632,1000.00,12,0,1,-128.967,-0.574,2.975,1082.996,1.245,0.953
0.182000,978633,1000.00,12,0,1,-125.460,0.587,2.976,1082.684,0.567,0.952
0.183000,978634,1000.00,12,0,1,-122.650,2.834,2.946,1079.945,-1.542,0.976
0.184000,978635,1000.00,12,0,1,-121.232,2.322,2.964,1080.065,-2.049,0.991
0.185000,978636,1000.00,12,0,1,-122.025,1.075,2.941,1080.426,-0.778,0.971
0.186000,978637,1000.00,12,0,1,-119.959,1.447,2.936,1083.356,1.210,0.985
0.187000,978638,1000.00,12,0,1,-113.810,6.616,3.042,1081.675,0.870,0.989
0.188000,978639,1000.00,12,0,1,-114.555,6.448,3.170,1079.465,-2.208,1.035
0.189000,978640,1000.00,12,0,1,-120.536,0.151,3.165,1080.690,-0.776,1.040
0.190000,978641,1000.00,12,0,1,-122.337,-1.367,3.033,1079.009,-1.481,1.056
0.191000,978642,1000.00,12,0,1,-122.097,0.122,2.839,1081.963,0.016,1.056
0.192000,978643,1000.00,12,0,1,-121.112,1.840,2.842,1080.258,0.482,1.042
0.193000,978644,1000.00,12,0,1,-121.449,2.525,2.802,1079.993,-1.634,1.048
0.194000,978645,1000.00,12,0,1,-125.196,-0.212,2.683,1080.834,0.529,1.043
0.195000,978646,1000.00,12,0,1,-130.456,-4.510,2.757,1081.315,0.238,1.044
0.196000,978647,1000.00,12,0,1,-131.609,-5.280,2.839,1082.900,1.831,1.074
0.197000,978648,1000.00,12,0,1,-131.970,-4.393,2.900,1083.837,2.478,1.125
0.198000,978649,1000.00,12,0,1,-128.679,-1.982,2.877,1081.987,0.661,1.119
0.199000,978650,1000.00,12,0,1,-122.097,3.689,2.908,1080.546,-1.027,1.123
0.200000,978651,1000.00,12,0,1,-121.593,3.526,2.779,1081.483,-0.313,1.115
0.201000,978652,1000.00,12,0,1,-124.859,-1.602,2.706,1082.468,0.966,1.123
0.202000,978653,1000.00,12,0,1,-120.296,0.169,2.674,1083.236,1.285,1.137
0.203000,978654,1000.00,12,0,1,-121.497,-0.295,2.605,1081.194,-0.075,1.134
0.204000,978655,1000.00,12,0,1,-123.995,-4.962,2.698,1081.915,-0.455,1.135
0.205000,978656,1000.00,12,0,1,-118.758,-0.721,2.684,1083.236,1.523,1.152
0.206000,978657,1000.00,12,0,1,-119.407,-0.075,2.675,1083.693,1.343,1.159
0.207000,978658,1000.00,12,0,1,-125.316,-5.877,2.800,1083.164,0.948,1.161
0.208000,978659,1000.00,12,0,1,-126.325,-6.027,2.918,1080.930,-1.231,1.147
0.209000,978660,1000.00,12,0,1,-125.484,-3.256,2.929,1080.834,-1.686,1.152
0.210000,978661,1000.00,12,0,1,-123.034,0.308,2.907,1081.963,-0.208,1.137
0.211000,978662,1000.00,12,0,1,-124.187,1.469,2.908,1081.723,-0.383,1.138
0.212000,978663,1000.00,12,0,1,-127.526,-0.728,2.908,1081.723,-0.473,1.134
0.213000,978664,1000.00,12,0,1,-130.817,-2.106,2.923,1081.243,-0.751,1.128
0.214000,978665,1000.00,12,0,1,-130.576,-1.034,2.924,1082.996,0.403,1.128
0.215000,978666,1000.00,12,0,1,-131.201,0.175,2.910,1082.468,0.573,1.129
0.216000,978667,1000.00,12,0,1,-130.696,0.566,2.855,1081.891,-0.693,1.127
0.217000,978668,1000.00,12,0,1,-126.733,4.084,2.896,1080.306,-1.506,1.146
0.218000,978669,1000.00,12,0,1,-126.661,4.156,2.951,1080.474,-1.815,1.174
0.219000,978670,1000.00,12,0,1,-126.373,2.256,2.966,1081.459,-0.270,1.156
0.220000,978671,1000.00,12,0,1,-125.868,1.972,2.978,1081.074,-0.464,1.144
0.221000,978672,1000.00,12,0,1,-124.643,1.037,2.932,1079.321,-1.809,1.168
0.222000,978673,1000.00,12,0,1,-121.905,2.255,2.873,1083.020,0.926,1.149
0.223000,978674,1000.00,12,0,1,-120.151,2.404,2.873,1080.810,0.646,1.136
0.224000,978675,1000.00,12,0,1,-119.215,1.807,2.878,1079.681,-1.930,1.162
0.225000,978676,1000.00,12,0,1,-119.287,0.836,2.827,1081.435,0.610,1.135
0.226000,978677,1000.00,12,0,1,-117.701,1.196,2.823,1082.203,1.222,1.148
0.227000,978678,1000.00,12,0,1,-118.158,1.223,2.808,1081.795,0.841,1.136
0.228000,978679,1000.00,12,0,1,-118.806,0.163,2.804,1081.170,0.207,1.137
0.229000,978680,1000.00,12,0,1,-116.404,2.748,2.827,1080.162,-0.766,1.139
0.230000,978681,1000.00,12,0,1,-118.926,1.890,2.838,1081.675,0.423,1.139
0.231000,978682,1000.00,12,0,1,-125.436,-3.501,2.880,1081.074,0.419,1.127
0.232000,978683,1000.00,12,0,1,-126.012,-3.331,2.917,1081.098,-0.143,1.124
0.233000,978684,1000.00,12,0,1,-124.619,0.005,2.889,1082.492,1.232,1.117
0.234000,978685,1000.00,12,0,1,-127.382,-1.161,2.875,1081.987,0.891,1.086
0.235000,978686,1000.00,12,0,1,-128.919,-2.333,2.890,1080.114,-1.074,1.091
0.236000,978687,1000.00,12,0,1,-122.914,2.940,2.913,1081.122,-0.415,1.079
0.237000,978688,1000.00,12,0,1,-118.710,7.160,2.938,1081.267,0.253,1.072
0.238000,978689,1000.00,12,0,1,-117.869,5.915,2.916,1080.762,-0.445,1.028
0.239000,978690,1000.00,12,0,1,-122.241,0.873,2.918,1081.267,0.041,1.022
0.240000,978691,1000.00,12,0,1,-123.514,-3.064,2.944,1081.723,0.582,1.004
0.241000,978692,1000.00,12,0,1,-120.151,-0.851,2.946,1080.354,-0.513,1.006
0.242000,978693,1000.00,12,0,1,-117.917,0.093,2.935,1081.723,0.216,1.005
0.243000,978694,1000.00,12,0,1,-118.998,-1.976,2.926,1080.546,0.081,0.978
0.244000,978695,1000.00,12,0,1,-122.145,-5.513,3.028,1078.816,-2.036,1.016
0.245000,978696,1000.00,12,0,1,-123.322,-7.002,3.122,1081.603,0.475,1.018
0.246000,978697,1000.00,12,0,1,-121.136,-4.332,3.092,1083.236,2.557,1.049
0.247000,978698,1000.00,12,0,1,-118.350,-0.982,3.033,1081.843,0.900,0.997
0.248000,978699,1000.00,12,0,1,-118.062,0.372,3.020,1080.546,-0.479,0.995
0.249000,978700,1000.00,12,0,1,-120.368,-0.925,2.977,1082.347,0.688,0.989
0.250000,978701,1000.00,12,0,1,-123.682,-2.652,2.959,1081.267,0.510,0.991
0.251000,978702,1000.00,12,0,1,-122.626,-0.881,2.953,1080.282,-1.244,0.997
0.252000,978703,1000.00,12,0,1,-125.124,-0.424,2.954,1081.555,0.215,0.980
0.253000,978704,1000.00,12,0,1,-125.244,-0.650,2.955,1081.915,0.616,0.984
0.254000,978705,1000.00,12,0,1,-125.412,1.342,2.877,1082.227,0.613,0.986
0.255000,978706,1000.00,12,0,1,-126.949,0.027,2.875,1081.026,-0.213,0.963
0.256000,978707,1000.00,12,0,1,-126.397,0.747,2.877,1080.786,-0.947,0.953
0.257000,978708,1000.00,12,0,1,-127.814,-0.064,2.754,1083.669,1.652,0.972
0.258000,978709,1000.00,12,0,1,-129.375,-2.320,2.639,1082.347,1.036,0.968
0.259000,978710,1000.00,12,0,1,-128.270,-1.603,2.609,1079.393,-2.276,0.992
0.260000,978711,1000.00,12,0,1,-126.997,-1.020,2.612,1079.465,-2.092,1.034
0.261000,978712,1000.00,12,0,1,-125.364,-0.391,2.605,1081.723,0.199,1.033
0.262000,978713,1000.00,12,0,1,-123.130,0.604,2.604,1082.780,1.482,1.052
0.263000,978714,1000.00,12,0,1,-120.296,2.092,2.604,1082.612,1.082,1.058
0.264000,978715,1000.00,12,0,1,-118.998,2.406,2.622,1081.843,0.274,1.057
0.265000,978716,1000.00,12,0,1,-117.269,2.699,2.649,1082.347,0.395,1.056
0.266000,978717,1000.00,12,0,1,-115.660,3.666,2.698,1081.291,-0.185,1.051
0.267000,978718,1000.00,12,0,1,-115.467,3.358,2.678,1079.777,-1.811,1.061
0.268000,978719,1000.00,12,0,1,-115.876,2.785,2.643,1080.810,-0.866,1.037
0.269000,978720,1000.00,12,0,1,-118.230,1.183,2.629,1081.122,-0.030,1.036
0.270000,978721,1000.00,12,0,1,-120.368,-0.397,2.614,1080.474,-0.765,1.039
0.271000,978722,1000.00,12,0,1,-121.953,-0.553,2.611,1079.753,-1.158,1.021
0.272000,978723,1000.00,12,0,1,-122.505,-0.125,2.592,1079.801,-1.133,1.025
0.273000,978724,1000.00,12,0,1,-124.355,-0.288,2.570,1080.834,0.025,1.021
0.274000,978725,1000.00,12,0,1,-129.688,-3.900,2.616,1082.011,1.110,0.996
0.275000,978726,1000.00,12,0,1,-129.159,-3.427,2.658,1080.714,0.192,0.993
0.276000,978727,1000.00,12,0,1,-127.982,-0.492,2.653,1081.291,0.020,0.978
0.277000,978728,1000.00,12,0,1,-123.250,2.572,2.673,1078.937,-1.091,0.983
0.278000,978729,1000.00,12,0,1,-125.052,2.180,2.690,1079.561,-1.581,1.007
0.279000,978730,1000.00,12,0,1,-128.342,-3.272,2.702,1080.402,0.398,1.003
0.280000,978731,1000.00,12,0,1,-126.997,-2.528,2.712,1081.002,0.415,1.003
0.281000,978732,1000.00,12,0,1,-125.868,-2.019,2.682,1082.155,1.663,1.028
0.282000,978733,1000.00,12,0,1,-123.851,-1.444,2.648,1081.723,1.265,1.044
0.283000,978734,1000.00,12,0,1,-118.158,2.659,2.675,1080.546,-0.118,1.029
0.284000,978735,1000.00,12,0,1,-116.140,3.896,2.726,1081.675,0.710,1.026
0.285000,978736,1000.00,12,0,1,-114.915,3.213,2.744,1081.170,0.611,1.019
0.286000,978737,1000.00,12,0,1,-112.897,4.181,2.776,1083.645,1.941,1.053
0.287000,978738,1000.00,12,0,1,-114.218,2.768,2.614,1081.939,1.397,1.071
0.288000,978739,1000.00,12,0,1,-117.966,-0.934,2.480,1081.675,-0.339,1.070
0.289000,978740,1000.00,12,0,1,-122.674,-4.175,2.546,1083.284,1.651,1.095
0.290000,978741,1000.00,12,0,1,-119.527,-1.266,2.516,1079.945,-1.092,1.103
0.291000,978742,1000.00,12,0,1,-116.548,4.112,2.579,1081.267,-1.189,1.114
0.292000,978743,1000.00,12,0,1,-125.556,-2.402,2.601,1083.116,1.737,1.140
0.293000,978744,1000.00,12,0,1,-130.600,-7.211,2.780,1082.347,0.327,1.141
0.294000,978745,1000.00,12,0,1,-127.406,-2.168,2.686,1080.065,-1.370,1.121
0.295000,978746,1000.00,12,0,1,-122.457,3.313,2.541,1080.690,-1.505,1.139
0.296000,978747,1000.00,12,0,1,-116.092,8.746,2.758,1081.002,-0.315,1.081
0.297000,978748,1000.00,12,0,1,-115.155,9.046,3.037,1081.002,-0.697,1.078
0.298000,978749,1000.00,12,0,1,-124.715,-0.888,3.040,1081.122,-0.283,1.076
0.299000,978750,1000.00,12,0,1,-129.039,-7.466,3.215,1079.873,-1.234,1.086
0.300000,978751,1000.00,12,0,1,-127.093,-5.405,3.283,1079.969,-1.366,1.101
0.301000,978752,1000.00,12,0,1,-126.973,-5.372,3.368,1082.107,0.837,1.093
0.302000,978753,1000.00,12,0,1,-122.385,-2.568,3.387,1080.570,-0.055,1.093
0.303000,978754,1000.00,12,0,1,-119.839,0.295,3.386,1079.969,-1.221,1.103
0.304000,978755,1000.00,12,0,1,-119.239,-0.731,3.382,1082.131,0.945,1.108
0.305000,978756,1000.00,12,0,1,-115.155,2.222,3.397,1080.906,0.392,1.109
0.306000,978757,1000.00,12,0,1,-111.840,4.884,3.465,1077.808,-2.705,1.165
0.307000,978758,1000.00,12,0,1,-117.149,0.430,3.465,1079.441,-1.361,1.157
0.308000,978759,1000.00,12,0,1,-121.833,-4.611,3.511,1082.395,1.930,1.180
0.309000,978760,1000.00,12,0,1,-122.722,-3.801,3.544,1082.011,1.724,1.161
0.310000,978761,1000.00,12,0,1,-123.490,-2.737,3.562,1081.194,0.454,1.125
0.311000,978762,1000.00,12,0,1,-120.800,0.799,3.564,1081.363,0.583,1.127
0.312000,978763,1000.00,12,0,1,-118.926,4.450,3.618,1081.843,0.861,1.114
0.313000,978764,1000.00,12,0,1,-122.770,1.865,3.615,1080.786,0.087,1.104
0.314000,978765,1000.00,12,0,1,-125.652,-0.617,3.600,1080.786,-0.368,1.105
0.315000,978766,1000.00,12,0,1,-124.643,0.835,3.582,1078.624,-1.553,1.125
0.316000,978767,1000.00,12,0,1,-123.682,2.200,3.558,1080.282,-0.959,1.133
0.317000,978768,1000.00,12,0,1,-124.932,0.830,3.528,1079.825,0.095,1.103
0.318000,978769,1000.00,12,0,1,-125.244,-0.354,3.506,1079.633,-0.995,1.106
0.319000,978770,1000.00,12,0,1,-122.073,1.426,3.508,1079.609,-0.215,1.106
0.320000,978771,1000.00,12,0,1,-121.112,1.712,3.516,1080.810,0.408,1.102
0.321000,978772,1000.00,12,0,1,-121.376,-0.398,3.516,1081.098,1.120,1.101
0.322000,978773,1000.00,12,0,1,-120.079,-0.509,3.516,1081.963,1.365,1.107
0.323000,978774,1000.00,12,0,1,-116.380,1.368,3.521,1080.666,0.522,1.109
0.324000,978775,1000.00,12,0,1,-113.522,3.083,3.505,1080.402,-0.352,1.099
0.325000,978776,1000.00,12,0,1,-113.161,2.231,3.486,1080.186,-0.179,1.099
0.326000,978777,1000.00,12,0,1,-113.642,0.885,3.487,1081.194,0.412,1.101
0.327000,978778,1000.00,12,0,1,-112.561,1.333,3.474,1080.954,0.555,1.092
0.328000,978779,1000.00,12,0,1,-115.756,-0.631,3.461,1081.411,0.507,1.072
0.329000,978780,1000.00,12,0,1,-111.072,2.192,3.444,1080.210,-0.161,1.071
0.330000,978781,1000.00,12,0,1,-114.483,2.571,3.444,1081.747,0.462,1.071
0.331000,978782,1000.00,12,0,1,-119.239,-3.222,3.463,1079.393,-0.503,1.047
0.332000,978783,1000.00,12,0,1,-118.998,-0.991,3.460,1080.114,-1.172,1.045
0.333000,978784,1000.00,12,0,1,-117.197,1.432,3.445,1081.387,1.098,1.056
0.334000,978785,1000.00,12,0,1,-119.647,0.625,3.402,1082.035,1.090,1.063
0.335000,978786,1000.00,12,0,1,-123.010,-2.397,3.388,1081.723,0.971,1.068
0.336000,978787,1000.00,12,0,1,-123.034,-2.324,3.353,1080.954,0.005,1.032
0.337000,978788,1000.00,12,0,1,-124.355,-2.555,3.349,1080.234,-0.749,1.019
0.338000,978789,1000.00,12,0,1,-120.320,-0.602,3.348,1080.882,-0.167,1.018
0.339000,978790,1000.00,12,0,1,-120.752,0.348,3.295,1079.969,-0.698,0.996
0.340000,978791,1000.00,12,0,1,-121.232,-2.881,3.316,1082.035,0.571,0.987
0.341000,978792,1000.00,12,0,1,-118.398,-0.561,3.265,1081.627,1.002,0.983
0.342000,978793,1000.00,12,0,1,-118.110,-1.355,3.253,1081.819,0.202,0.952
0.343000,978794,1000.00,12,0,1,-114.074,0.383,3.090,1082.227,0.935,0.960
0.344000,978795,1000.00,12,0,1,-113.161,1.432,3.081,1081.507,0.008,0.940
0.345000,978796,1000.00,12,0,1,-117.197,-3.464,3.084,1080.882,-0.693,0.921
0.346000,978797,1000.00,12,0,1,-118.446,-4.801,2.906,1081.867,0.112,0.920
0.347000,978798,1000.00,12,0,1,-119.839,-4.836,2.697,1079.729,-1.255,0.932
0.348000,978799,1000.00,12,0,1,-117.869,-2.563,2.719,1079.273,-2.212,0.982
0.349000,978800,1000.00,12,0,1,-117.509,0.062,2.505,1078.624,-1.859,1.002
0.350000,978801,1000.00,12,0,1,-114.987,2.441,2.411,1080.186,-0.806,0.989
0.351000,978802,1000.00,12,0,1,-113.834,5.386,2.411,1082.083,1.552,1.007
0.352000,978803,1000.00,12,0,1,-117.461,2.611,2.412,1081.675,1.124,1.019
0.353000,978804,1000.00,12,0,1,-121.785,-0.713,2.414,1082.107,0.969,1.014
0.354000,978805,1000.00,12,0,1,-122.962,-1.072,2.417,1080.258,-0.134,1.005
0.355000,978806,1000.00,12,0,1,-124.451,-1.176,2.402,1081.291,-0.312,1.004
0.356000,978807,1000.00,12,0,1,-123.851,-0.566,2.302,1081.243,0.755,0.935
0.357000,978808,1000.00,12,0,1,-123.730,0.157,2.301,1079.873,-1.179,0.930
0.358000,978809,1000.00,12,0,1,-123.610,-0.377,2.207,1081.555,0.345,0.890
0.359000,978810,1000.00,12,0,1,-120.560,1.423,2.150,1082.203,1.278,0.875
0.360000,978811,1000.00,12,0,1,-116.284,4.239,2.199,1082.876,1.278,0.891
0.361000,978812,1000.00,12,0,1,-114.386,4.340,2.280,1081.026,0.089,0.887
0.362000,978813,1000.00,12,0,1,-116.212,1.088,2.197,1079.681,-1.871,0.918
0.363000,978814,1000.00,12,0,1,-114.771,-0.039,2.181,1079.561,-1.392,0.939
0.364000,978815,1000.00,12,0,1,-114.723,-0.058,2.179,1081.579,0.140,0.938
0.365000,978816,1000.00,12,0,1,-117.149,-3.353,2.227,1082.035,1.222,0.928
0.366000,978817,1000.00,12,0,1,-114.675,-1.638,2.217,1079.705,-1.066,0.930
0.367000,978818,1000.00,12,0,1,-113.450,0.593,2.216,1079.873,-1.259,0.947
0.368000,978819,1000.00,12,0,1,-113.642,0.305,2.216,1081.267,0.504,0.939
0.369000,978820,1000.00,12,0,1,-116.116,-0.590,2.208,1080.546,-0.032,0.939
0.370000,978821,1000.00,12,0,1,-116.428,-0.692,2.197,1080.474,-0.315,0.938
0.371000,978822,1000.00,12,0,1,-114.747,2.401,2.222,1081.603,0.749,0.930
0.372000,978823,1000.00,12,0,1,-113.810,3.991,2.292,1081.387,0.727,0.916
0.373000,978824,1000.00,12,0,1,-115.035,3.578,2.339,1080.354,-0.433,0.915
0.374000,978825,1000.00,12,0,1,-119.119,0.350,2.298,1078.792,-1.617,0.942
0.375000,978826,1000.00,12,0,1,-118.350,0.357,2.277,1080.882,-0.201,0.942
0.376000,978827,1000.00,12,0,1,-116.524,2.860,2.309,1080.234,0.355,0.942
0.377000,978828,1000.00,12,0,1,-116.981,1.597,2.313,1081.819,0.549,0.941
0.378000,978829,1000.00,12,0,1,-118.758,-0.626,2.313,1081.747,1.556,0.964
0.379000,978830,1000.00,12,0,1,-119.935,-2.844,2.327,1081.483,0.273,0.965
0.380000,978831,1000.00,12,0,1,-124.403,-6.792,2.491,1080.786,0.129,0.963
0.381000,978832,1000.00,12,0,1,-121.473,-6.095,2.596,1080.186,-0.779,0.966
0.382000,978833,1000.00,12,0,1,-117.269,-1.242,2.598,1081.795,0.569,0.955
0.383000,978834,1000.00,12,0,1,-110.663,2.646,2.617,1081.867,1.111,0.956
0.384000,978835,1000.00,12,0,1,-105.283,7.123,2.803,1082.395,0.806,0.950
0.385000,978836,1000.00,12,0,1,-106.676,4.365,2.850,1081.651,0.685,0.945
0.386000,978837,1000.00,12,0,1,-109.919,-0.170,2.831,1079.105,-2.001,0.986
0.387000,978838,1000.00,12,0,1,-114.795,-4.199,2.870,1081.026,-0.555,0.984
0.388000,978839,1000.00,12,0,1,-117.629,-6.703,3.021,1081.747,0.949,0.993
0.389000,978840,1000.00,12,0,1,-116.116,-3.570,3.063,1083.380,1.549,1.012
0.390000,978841,1000.00,12,0,1,-114.675,-0.566,3.037,1082.323,1.301,1.025
0.391000,978842,1000.00,12,0,1,-113.378,1.865,3.047,1080.162,-1.470,1.036
0.392000,978843,1000.00,12,0,1,-114.771,1.987,3.054,1081.603,-0.267,1.037
0.393000,978844,1000.00,12,0,1,-120.728,-2.219,3.070,1083.116,1.425,1.048
0.394000,978845,1000.00,12,0,1,-128.991,-8.330,3.282,1079.561,-1.482,1.069
0.395000,978846,1000.00,12,0,1,-126.805,-6.019,3.355,1078.144,-3.410,1.168
0.396000,978847,1000.00,12,0,1,-121.689,1.197,3.290,1081.507,-0.024,1.168
0.397000,978848,1000.00,12,0,1,-121.352,1.691,3.227,1080.258,-0.055,1.155
0.398000,978849,1000.00,12,0,1,-120.272,1.775,3.216,1079.801,-1.487,1.131
0.399000,978850,1000.00,12,0,1,-121.280,0.682,3.218,1081.122,0.445,1.102
0.400000,978851,1000.00,12,0,1,-120.488,-0.508,3.200,1080.426,-0.198,1.096
0.401000,978852,1000.00,12,0,1,-117.701,1.420,3.114,1081.459,0.392,1.076
0.402000,978853,1000.00,12,0,1,-115.155,2.193,3.108,1080.906,0.460,1.066
0.403000,978854,1000.00,12,0,1,-110.255,4.887,3.182,1081.363,0.133,1.057
0.404000,978855,1000.00,12,0,1,-110.807,3.841,3.225,1082.083,1.236,1.071
0.405000,978856,1000.00,12,0,1,-114.483,-1.313,3.226,1081.843,0.663,1.074
0.406000,978857,1000.00,12,0,1,-115.636,-2.672,3.247,1082.516,1.065,1.080
0.407000,978858,1000.00,12,0,1,-112.729,-0.064,3.247,1084.125,2.275,1.114
0.408000,978859,1000.00,12,0,1,-112.465,1.535,3.254,1082.948,1.303,1.128
0.409000,978860,1000.00,12,0,1,-112.153,1.683,3.256,1081.387,-0.704,1.118
0.410000,978861,1000.00,12,0,1,-114.915,0.893,3.203,1080.282,-1.505,1.124
0.411000,978862,1000.00,12,0,1,-113.161,1.997,3.156,1080.594,-1.281,1.138
0.412000,978863,1000.00,12,0,1,-111.792,5.226,3.238,1081.939,0.188,1.107
0.413000,978864,1000.00,12,0,1,-118.518,-0.032,3.238,1082.083,0.531,1.092
0.414000,978865,1000.00,12,0,1,-123.082,-4.399,3.297,1081.963,0.146,1.092
0.415000,978866,1000.00,12,0,1,-121.641,-1.878,3.274,1080.954,-0.520,1.081
0.416000,978867,1000.00,12,0,1,-121.280,-0.595,3.266,1081.603,-0.414,1.072
0.417000,978868,1000.00,12,0,1,-122.481,-1.569,3.273,1081.507,0.078,1.057
0.418000,978869,1000.00,12,0,1,-124.523,-3.523,3.310,1081.843,-0.149,1.055
0.419000,978870,1000.00,12,0,1,-123.730,-3.453,3.345,1081.170,-0.279,1.056
0.420000,978871,1000.00,12,0,1,-121.593,-1.717,3.352,1080.618,-1.155,1.067
0.421000,978872,1000.00,12,0,1,-116.260,1.679,3.344,1079.369,-1.775,1.091
0.422000,978873,1000.00,12,0,1,-114.843,2.668,3.317,1080.354,-1.207,1.100
0.423000,978874,1000.00,12,0,1,-109.798,4.125,3.330,1080.090,-0.578,1.101
0.424000,978875,1000.00,12,0,1,-105.835,7.245,3.484,1080.810,-0.407,1.079
0.425000,978876,1000.00,12,0,1,-114.507,-1.333,3.488,1079.705,-0.578,1.082
0.426000,978877,1000.00,12,0,1,-118.758,-7.487,3.623,1081.915,0.511,1.083
0.427000,978878,1000.00,12,0,1,-117.077,-4.117,3.663,1082.756,2.230,1.125
0.428000,978879,1000.00,12,0,1,-115.563,-1.886,3.671,1082.828,1.433,1.122
0.429000,978880,1000.00,12,0,1,-116.476,-0.845,3.651,1082.804,1.474,1.140
0.430000,978881,1000.00,12,0,1,-117.605,-0.999,3.525,1080.666,-0.453,1.142
0.431000,978882,1000.00,12,0,1,-116.885,1.121,3.422,1080.666,-1.046,1.146
0.432000,978883,1000.00,12,0,1,-116.740,2.645,3.438,1080.186,-0.584,1.146
0.433000,978884,1000.00,12,0,1,-120.872,0.274,3.418,1080.306,-0.983,1.144
0.434000,978885,1000.00,12,0,1,-123.730,-1.948,3.277,1080.978,0.265,1.139
0.435000,978886,1000.00,12,0,1,-123.779,-0.904,3.221,1081.026,0.138,1.135
0.436000,978887,1000.00,12,0,1,-123.106,0.300,3.221,1078.961,-1.237,1.113
0.437000,978888,1000.00,12,0,1,-122.890,0.578,3.167,1079.873,-1.034,1.120
0.438000,978889,1000.00,12,0,1,-120.872,1.637,3.031,1080.546,0.486,1.114
0.439000,978890,1000.00,12,0,1,-119.094,2.541,3.010,1082.203,1.301,1.108
0.440000,978891,1000.00,12,0,1,-120.007,0.563,3.010,1081.243,1.092,1.103
0.441000,978892,1000.00,12,0,1,-116.909,1.086,3.002,1079.945,-0.847,1.090
0.442000,978893,1000.00,12,0,1,-112.080,4.501,3.056,1080.666,-0.106,1.089
0.443000,978894,1000.00,12,0,1,-110.159,4.411,3.103,1081.891,1.042,1.081
0.444000,978895,1000.00,12,0,1,-109.991,2.829,2.899,1082.948,1.736,1.088
0.445000,978896,1000.00,12,0,1,-109.102,2.060,2.786,1081.483,0.621,0.979
0.446000,978897,1000.00,12,0,1,-111.000,0.110,2.781,1081.795,-0.034,0.979
0.447000,978898,1000.00,12,0,1,-114.362,-3.306,2.810,1081.074,0.097,0.979
0.448000,978899,1000.00,12,0,1,-114.242,-2.808,2.827,1081.411,-0.417,0.958
0.449000,978900,1000.00,12,0,1,-116.548,-2.834,2.854,1082.347,0.977,0.966
0.450000,978901,1000.00,12,0,1,-116.716,-2.525,2.875,1080.642,-0.550,0.969
0.451000,978902,1000.00,12,0,1,-117.077,-0.356,2.868,1080.666,-0.924,0.976
0.452000,978903,1000.00,12,0,1,-115.876,1.207,2.857,1081.435,0.274,0.975
0.453000,978904,1000.00,12,0,1,-121.400,-1.051,2.776,1080.786,-0.315,0.976
0.454000,978905,1000.00,12,0,1,-126.109,-5.641,2.837,1081.098,-0.126,0.960
0.455000,978906,1000.00,12,0,1,-124.379,-2.537,2.853,1080.810,-0.099,0.956
0.456000,978907,1000.00,12,0,1,-120.368,1.828,2.840,1080.810,-0.303,0.945
0.457000,978908,1000.00,12,0,1,-120.800,1.881,2.852,1080.786,-0.110,0.888
0.458000,978909,1000.00,12,0,1,-121.064,0.309,2.844,1080.810,-0.203,0.869
0.459000,978910,1000.00,12,0,1,-119.407,0.910,2.837,1081.795,0.592,0.868
0.460000,978911,1000.00,12,0,1,-114.338,3.770,2.884,1081.122,0.230,0.842
0.461000,978912,1000.00,12,0,1,-114.819,2.681,2.895,1080.306,-0.909,0.832
0.462000,978913,1000.00,12,0,1,-114.555,0.022,2.799,1082.395,0.791,0.839
0.463000,978914,1000.00,12,0,1,-110.615,2.358,2.819,1083.188,1.798,0.874
0.464000,978915,1000.00,12,0,1,-111.912,0.721,2.752,1081.122,-0.319,0.875
0.465000,978916,1000.00,12,0,1,-115.059,-3.605,2.786,1080.017,-1.639,0.902
0.466000,978917,1000.00,12,0,1,-111.048,-0.511,2.785,1079.393,-1.791,0.935
0.467000,978918,1000.00,12,0,1,-109.342,2.249,2.795,1079.825,-1.371,0.955
0.468000,978919,1000.00,12,0,1,-109.630,1.653,2.760,1080.402,-0.350,0.956
0.469000,978920,1000.00,12,0,1,-113.834,-0.747,2.718,1082.275,1.124,0.968
0.470000,978921,1000.00,12,0,1,-120.440,-5.809,2.829,1081.146,0.781,0.961
0.471000,978922,1000.00,12,0,1,-121.112,-5.135,2.911,1081.194,-0.049,0.927
0.472000,978923,1000.00,12,0,1,-117.341,0.585,2.888,1081.122,0.543,0.915
0.473000,978924,1000.00,12,0,1,-117.245,2.456,2.850,1079.513,-1.065,0.923
0.474000,978925,1000.00,12,0,1,-120.368,0.312,2.660,1081.122,0.067,0.922
0.475000,978926,1000.00,12,0,1,-124.283,-2.637,2.679,1081.170,0.931,0.927
0.476000,978927,1000.00,12,0,1,-125.796,-3.669,2.515,1081.146,0.157,0.925
0.477000,978928,1000.00,12,0,1,-124.811,-2.346,2.469,1081.122,0.577,0.873
0.478000,978929,1000.00,12,0,1,-121.088,0.679,2.456,1078.912,-1.488,0.875
0.479000,978930,1000.00,12,0,1,-121.833,0.163,2.454,1080.762,-0.374,0.851
0.480000,978931,1000.00,12,0,1,-120.031,-0.516,2.451,1082.371,1.836,0.888
0.481000,978932,1000.00,12,0,1,-115.419,2.964,2.481,1081.891,0.898,0.885
0.482000,978933,1000.00,12,0,1,-113.330,3.353,2.498,1081.002,0.028,0.881
0.483000,978934,1000.00,12,0,1,-112.417,2.356,2.520,1079.993,-1.017,0.882
0.484000,978935,1000.00,12,0,1,-107.901,4.512,2.585,1078.961,-1.784,0.916
0.485000,978936,1000.00,12,0,1,-108.910,3.472,2.628,1078.384,-2.074,0.962
0.486000,978937,1000.00,12,0,1,-112.032,-0.965,2.631,1079.489,-0.922,0.955
0.487000,978938,1000.00,12,0,1,-112.633,-1.350,2.637,1081.074,0.890,0.952
0.488000,978939,1000.00,12,0,1,-114.795,-2.151,2.644,1081.315,1.169,0.964
0.489000,978940,1000.00,12,0,1,-114.675,-1.582,2.629,1082.035,1.497,0.969
0.490000,978941,1000.00,12,0,1,-118.350,-2.120,2.645,1081.243,0.983,0.967
0.491000,978942,1000.00,12,0,1,-117.990,-1.827,2.653,1079.225,-1.069,0.971
0.492000,978943,1000.00,12,0,1,-116.933,2.035,2.592,1078.985,-1.327,0.989
0.493000,978944,1000.00,12,0,1,-120.584,-0.347,2.516,1081.050,0.673,0.983
0.494000,978945,1000.00,12,0,1,-122.001,-1.116,2.489,1080.690,0.864,0.959
0.495000,978946,1000.00,12,0,1,-120.584,1.034,2.476,1079.513,-0.596,0.959
0.496000,978947,1000.00,12,0,1,-120.272,1.556,2.486,1079.873,-0.223,0.960
0.497000,978948,1000.00,12,0,1,-118.086,2.657,2.470,1080.642,0.574,0.963
0.498000,978949,1000.00,12,0,1,-120.416,0.529,2.439,1081.146,0.948,0.970
0.499000,978950,1000.00,12,0,1,-118.062,-0.082,2.406,1080.810,0.630,0.965
0.500000,978951,1000.00,12,0,1,-113.834,3.355,2.427,1081.435,0.743,0.967
0.501000,978952,1000.00,12,0,1,-111.672,3.126,2.466,1083.380,2.345,1.014
0.502000,978953,1000.00,12,0,1,-106.051,5.571,2.583,1083.452,2.267,1.063
0.503000,978954,1000.00,12,0,1,-106.075,4.721,2.664,1082.756,1.006,1.071
0.504000,978955,1000.00,12,0,1,-110.351,-1.767,2.554,1082.588,0.557,1.074
0.505000,978956,1000.00,12,0,1,-113.402,-4.984,2.625,1082.275,0.107,1.074
0.506000,978957,1000.00,12,0,1,-112.633,-4.622,2.693,1080.834,-1.155,1.086
0.507000,978958,1000.00,12,0,1,-109.774,-0.922,2.683,1080.786,-1.439,1.104
0.508000,978959,1000.00,12,0,1,-115.780,-4.206,2.748,1080.426,-1.216,1.117
0.509000,978960,1000.00,12,0,1,-118.134,-6.540,2.896,1079.465,-2.010,1.150
0.510000,978961,1000.00,12,0,1,-114.146,-0.269,2.847,1081.339,-0.373,1.151
0.511000,978962,1000.00,12,0,1,-116.140,0.336,2.822,1080.834,0.061,1.143
0.512000,978963,1000.00,12,0,1,-118.686,-1.373,2.829,1080.354,-0.980,1.146
0.513000,978964,1000.00,12,0,1,-119.551,-0.422,2.810,1079.753,-0.862,1.124
0.514000,978965,1000.00,12,0,1,-120.272,-0.234,2.808,1079.945,-0.982,1.132
0.515000,978966,1000.00,12,0,1,-118.806,1.525,2.770,1081.267,0.516,1.111
0.516000,978967,1000.00,12,0,1,-115.996,3.976,2.825,1081.915,1.106,1.093
0.517000,978968,1000.00,12,0,1,-116.764,2.971,2.839,1081.555,0.619,1.079
0.518000,978969,1000.00,12,0,1,-113.161,3.699,2.877,1079.681,-0.995,1.087
0.519000,978970,1000.00,12,0,1,-111.816,4.535,2.946,1080.378,-0.926,1.083
0.520000,978971,1000.00,12,0,1,-107.396,4.812,2.909,1081.267,0.514,1.080
0.521000,978972,1000.00,12,0,1,-104.610,6.298,2.955,1080.954,-0.050,1.080
0.522000,978973,1000.00,12,0,1,-107.589,0.964,2.957,1079.873,-0.818,1.083
0.523000,978974,1000.00,12,0,1,-107.925,-1.738,2.946,1081.170,-0.080,1.073
0.524000,978975,1000.00,12,0,1,-107.805,-1.953,2.959,1081.963,1.182,1.086
0.525000,978976,1000.00,12,0,1,-101.391,1.769,2.946,1082.371,1.090,1.089
0.526000,978977,1000.00,12,0,1,-103.577,1.915,2.913,1082.516,1.260,1.103
0.527000,978978,1000.00,12,0,1,-108.021,-4.214,2.954,1080.210,-0.710,1.104
0.528000,978979,1000.00,12,0,1,-111.792,-5.392,3.050,1080.114,-1.340,1.101
0.529000,978980,1000.00,12,0,1,-111.744,-4.955,3.129,1081.555,0.548,1.102
0.530000,978981,1000.00,12,0,1,-110.327,-1.032,3.132,1084.437,2.663,1.135
0.531000,978982,1000.00,12,0,1,-113.954,-2.335,3.121,1081.627,1.044,1.138
0.532000,978983,1000.00,12,0,1,-118.590,-5.357,3.176,1082.900,0.242,1.138
0.533000,978984,1000.00,12,0,1,-118.710,-3.824,3.205,1081.843,0.922,1.137
0.534000,978985,1000.00,12,0,1,-119.359,-2.549,3.161,1079.849,-2.128,1.149
0.535000,978986,1000.00,12,0,1,-118.542,-1.278,3.128,1081.435,-0.366,1.112
0.536000,978987,1000.00,12,0,1,-119.335,-1.084,3.129,1080.306,-0.729,1.109
0.537000,978988,1000.00,12,0,1,-117.317,-0.228,3.123,1079.825,-1.821,1.131
0.538000,978989,1000.00,12,0,1,-115.539,1.386,3.115,1081.435,0.169,1.119
0.539000,978990,1000.00,12,0,1,-113.618,1.445,3.113,1080.978,-0.175,1.100
0.540000,978991,1000.00,12,0,1,-110.087,3.101,3.130,1080.570,-0.676,1.095
0.541000,978992,1000.00,12,0,1,-104.802,5.806,3.225,1081.194,-0.166,1.085
0.542000,978993,1000.00,12,0,1,-105.955,3.599,3.253,1080.858,-0.192,1.069
0.543000,978994,1000.00,12,0,1,-107.685,-0.648,3.253,1081.387,-0.096,1.065
0.544000,978995,1000.00,12,0,1,-107.805,-1.367,3.255,1082.564,1.158,1.070
0.545000,978996,1000.00,12,0,1,-106.556,-0.840,3.254,1082.756,1.173,1.080
0.546000,978997,1000.00,12,0,1,-107.276,-0.904,3.249,1082.516,0.758,1.084
0.547000,978998,1000.00,12,0,1,-109.222,-2.233,3.243,1082.395,0.484,1.084
0.548000,978999,1000.00,12,0,1,-109.342,-1.482,3.249,1082.516,0.479,1.077
0.549000,979000,1000.00,12,0,1,-112.849,-2.334,3.266,1080.498,-1.008,1.083
0.550000,979001,1000.00,12,0,1,-113.498,-2.415,3.249,1080.354,-1.598,1.101
0.551000,979002,1000.00,12,0,1,-114.194,-0.166,3.219,1081.483,0.037,1.050
0.552000,979003,1000.00,12,0,1,-114.074,0.525,3.122,1081.050,-0.196,1.001
0.553000,979004,1000.00,12,0,1,-115.083,1.509,3.057,1080.642,-0.600,0.994
0.554000,979005,1000.00,12,0,1,-115.491,1.094,3.051,1080.546,-0.483,0.993
0.555000,979006,1000.00,12,0,1,-112.201,4.067,3.023,1080.522,-0.458,0.995
0.556000,979007,1000.00,12,0,1,-109.558,6.131,3.077,1081.170,0.170,0.982
0.557000,979008,1000.00,12,0,1,-112.705,2.295,3.091,1078.816,-1.423,0.982
0.558000,979009,1000.00,12,0,1,-116.668,-3.035,3.063,1080.402,-0.895,0.975
0.559000,979010,1000.00,12,0,1,-112.657,-1.370,2.927,1081.218,0.993,0.943
0.560000,979011,1000.00,12,0,1,-109.078,1.790,2.937,1080.786,-0.081,0.941
0.561000,979012,1000.00,12,0,1,-108.141,0.483,2.938,1081.026,0.280,0.942
0.562000,979013,1000.00,12,0,1,-106.003,0.927,2.934,1079.825,-0.684,0.937
0.563000,979014,1000.00,12,0,1,-104.178,1.276,2.939,1081.555,0.231,0.930
0.564000,979015,1000.00,12,0,1,-100.959,2.695,2.964,1081.555,1.130,0.933
0.565000,979016,1000.00,12,0,1,-97.428,5.089,3.042,1081.026,-0.178,0.930
0.566000,979017,1000.00,12,0,1,-97.260,4.560,3.059,1081.002,0.229,0.918
0.567000,979018,1000.00,12,0,1,-98.028,3.050,3.060,1079.273,-1.274,0.931
0.568000,979019,1000.00,12,0,1,-101.896,0.152,3.015,1078.912,-1.632,0.949
0.569000,979020,1000.00,12,0,1,-109.630,-5.924,3.063,1080.978,0.508,0.943
0.570000,979021,1000.00,12,0,1,-112.465,-7.492,3.169,1081.699,1.554,0.965
0.571000,979022,1000.00,12,0,1,-115.347,-6.727,3.186,1081.507,1.141,0.979
0.572000,979023,1000.00,12,0,1,-117.869,-7.294,3.346,1080.618,0.389,0.973
0.573000,979024,1000.00,12,0,1,-117.845,-4.836,3.407,1080.786,0.252,0.974
0.574000,979025,1000.00,12,0,1,-114.074,-0.325,3.396,1081.987,1.370,0.979
0.575000,979026,1000.00,12,0,1,-111.408,3.274,3.418,1082.804,1.978,1.006
0.576000,979027,1000.00,12,0,1,-113.906,0.899,3.410,1079.897,-0.457,0.992
0.577000,979028,1000.00,12,0,1,-116.188,-2.334,3.373,1080.426,-1.003,0.997
0.578000,979029,1000.00,12,0,1,-114.266,-1.411,3.292,1081.507,0.777,0.985
0.579000,979030,1000.00,12,0,1,-113.642,-1.272,3.222,1080.714,-0.269,0.983
0.580000,979031,1000.00,12,0,1,-112.969,-2.132,3.232,1082.708,1.023,0.920
0.581000,979032,1000.00,12,0,1,-111.192,-1.455,3.222,1081.387,0.577,0.911
0.582000,979033,1000.00,12,0,1,-107.396,0.660,3.133,1081.915,-0.301,0.912
0.583000,979034,1000.00,12,0,1,-106.195,1.339,3.092,1082.035,0.714,0.908
0.584000,979035,1000.00,12,0,1,-104.442,1.407,3.077,1083.116,0.636,0.861
0.585000,979036,1000.00,12,0,1,-105.307,0.970,3.075,1083.909,1.804,0.897
0.586000,979037,1000.00,12,0,1,-102.736,2.062,3.085,1083.236,0.658,0.896
0.587000,979038,1000.00,12,0,1,-105.042,1.937,3.097,1081.795,-0.683,0.863
0.588000,979039,1000.00,12,0,1,-114.987,-6.335,3.218,1081.651,-1.026,0.875
0.589000,979040,1000.00,12,0,1,-117.173,-7.532,3.384,1079.945,-1.977,0.918
0.590000,979041,1000.00,12,0,1,-115.587,-2.423,3.373,1081.026,-1.406,0.935
0.591000,979042,1000.00,12,0,1,-115.876,-0.723,3.273,1080.234,-0.963,0.944
0.592000,979043,1000.00,12,0,1,-117.677,-0.127,3.233,1081.074,-0.863,0.952
0.593000,979044,1000.00,12,0,1,-118.206,0.282,3.232,1082.203,0.905,0.960
0.594000,979045,1000.00,12,0,1,-115.804,3.369,3.261,1081.050,-0.174,0.946
0.595000,979046,1000.00,12,0,1,-115.035,4.501,3.320,1082.275,0.364,0.933
0.596000,979047,1000.00,12,0,1,-116.116,2.786,3.341,1083.284,1.766,0.960
0.597000,979048,1000.00,12,0,1,-112.945,3.991,3.374,1083.116,0.966,0.967
0.598000,979049,1000.00,12,0,1,-111.360,4.715,3.433,1082.924,0.733,0.971
0.599000,979050,1000.00,12,0,1,-106.027,6.180,3.527,1080.906,-1.200,0.975
0.600000,979051,1000.00,12,0,1,-103.553,7.307,3.659,1081.843,-0.926,0.957
0.601000,979052,1000.00,12,0,1,-106.219,1.852,3.669,1082.299,0.143,0.958
0.602000,979053,1000.00,12,0,1,-108.742,-2.394,3.683,1083.260,0.377,0.959
0.603000,979054,1000.00,12,0,1,-105.595,-1.283,3.682,1081.675,-0.391,0.956
0.604000,979055,1000.00,12,0,1,-106.051,-1.110,3.682,1082.347,-0.762,0.960
0.605000,979056,1000.00,12,0,1,-106.436,-2.593,3.655,1083.308,0.858,0.966
0.606000,979057,1000.00,12,0,1,-105.931,-1.223,3.555,1082.588,-0.061,0.965
0.607000,979058,1000.00,12,0,1,-107.589,-1.796,3.549,1083.669,0.599,0.948
0.608000,979059,1000.00,12,0,1,-112.753,-4.883,3.590,1082.804,0.404,0.941
0.609000,979060,1000.00,12,0,1,-113.954,-4.780,3.648,1080.882,-1.775,0.964
0.610000,979061,1000.00,12,0,1,-116.044,-3.559,3.674,1080.330,-1.870,0.999
0.611000,979062,1000.00,12,0,1,-115.107,-1.591,3.680,1082.756,0.152,0.999
0.612000,979063,1000.00,12,0,1,-115.059,1.054,3.681,1082.468,0.860,1.002
0.613000,979064,1000.00,12,0,1,-114.531,1.877,3.686,1082.155,-0.230,1.002
0.614000,979065,1000.00,12,0,1,-116.524,1.333,3.671,1080.906,-0.666,0.993
0.615000,979066,1000.00,12,0,1,-115.251,1.460,3.606,1081.387,-0.862,1.000
0.616000,979067,1000.00,12,0,1,-112.513,3.989,3.592,1081.483,-0.064,1.000
0.617000,979068,1000.00,12,0,1,-111.312,3.786,3.606,1081.002,-0.773,0.990
0.618000,979069,1000.00,12,0,1,-110.111,2.970,3.630,1080.426,-1.073,0.974
0.619000,979070,1000.00,12,0,1,-108.141,2.930,3.557,1080.402,-1.066,0.983
0.620000,979071,1000.00,12,0,1,-107.781,1.338,3.400,1081.194,-0.298,0.959
0.621000,979072,1000.00,12,0,1,-105.955,0.845,3.267,1081.339,0.131,0.946
0.622000,979073,1000.00,12,0,1,-102.977,1.963,3.112,1081.915,0.309,0.945
0.623000,979074,1000.00,12,0,1,-101.487,2.100,3.051,1079.513,-1.124,0.958
0.624000,979075,1000.00,12,0,1,-100.358,1.695,3.060,1080.114,-1.512,0.962
0.625000,979076,1000.00,12,0,1,-101.175,0.759,3.026,1080.017,-0.258,0.921
0.626000,979077,1000.00,12,0,1,-105.835,-3.330,3.060,1081.939,0.575,0.922
0.627000,979078,1000.00,12,0,1,-105.907,-3.386,3.080,1082.275,1.936,0.952
0.628000,979079,1000.00,12,0,1,-102.857,1.115,3.077,1082.636,1.348,0.964
0.629000,979080,1000.00,12,0,1,-104.538,1.252,3.077,1083.116,2.056,1.007
0.630000,979081,1000.00,12,0,1,-109.630,-2.310,3.080,1081.867,0.766,1.002
0.631000,979082,1000.00,12,0,1,-116.740,-6.776,3.219,1082.588,0.813,1.005
0.632000,979083,1000.00,12,0,1,-118.710,-7.392,3.383,1081.098,0.271,1.005
0.633000,979084,1000.00,12,0,1,-115.083,-1.892,3.388,1080.762,-0.974,1.009
0.634000,979085,1000.00,12,0,1,-116.548,-1.176,3.386,1082.468,1.139,1.018
0.635000,979086,1000.00,12,0,1,-117.893,-2.817,3.407,1080.450,-0.449,0.988
0.636000,979087,1000.00,12,0,1,-114.122,0.620,3.396,1080.210,-1.285,1.000
0.637000,979088,1000.00,12,0,1,-108.886,4.620,3.447,1082.131,0.820,1.002
0.638000,979089,1000.00,12,0,1,-106.844,5.169,3.408,1081.267,0.260,0.992
0.639000,979090,1000.00,12,0,1,-109.078,1.179,3.242,1082.083,0.263,0.953
0.640000,979091,1000.00,12,0,1,-112.080,-3.479,3.261,1081.771,0.541,0.935
0.641000,979092,1000.00,12,0,1,-108.573,-2.207,3.274,1081.915,-0.096,0.925
0.642000,979093,1000.00,12,0,1,-106.508,-0.157,3.274,1081.194,-0.260,0.918
0.643000,979094,1000.00,12,0,1,-106.604,-1.550,3.281,1081.243,-0.764,0.915
0.644000,979095,1000.00,12,0,1,-106.844,-1.795,3.256,1080.498,-0.877,0.923
0.645000,979096,1000.00,12,0,1,-106.508,-1.465,3.200,1080.426,-1.231,0.938
0.646000,979097,1000.00,12,0,1,-106.243,-0.410,3.176,1080.162,-0.943,0.914
0.647000,979098,1000.00,12,0,1,-104.514,1.799,3.136,1080.306,-0.821,0.911
0.648000,979099,1000.00,12,0,1,-105.787,2.270,3.081,1081.315,0.283,0.906
0.649000,979100,1000.00,12,0,1,-108.525,0.562,2.956,1083.164,1.955,0.932
0.650000,979101,1000.00,12,0,1,-114.338,-2.614,2.794,1081.915,1.122,0.936
0.651000,979102,1000.00,12,0,1,-114.987,-2.615,2.806,1081.555,0.109,0.936
0.652000,979103,1000.00,12,0,1,-113.185,1.440,2.793,1079.009,-1.397,0.955
0.653000,979104,1000.00,12,0,1,-109.198,5.192,2.882,1081.146,-0.518,0.956
0.654000,979105,1000.00,12,0,1,-109.534,5.843,2.994,1081.483,1.257,0.967
0.655000,979106,1000.00,12,0,1,-113.161,1.366,2.978,1082.660,1.097,0.972
0.656000,979107,1000.00,12,0,1,-116.500,-2.304,2.991,1081.867,1.222,0.987
0.657000,979108,1000.00,12,0,1,-120.968,-6.473,3.117,1082.588,0.699,0.988
0.658000,979109,1000.00,12,0,1,-116.236,-4.089,3.094,1080.762,-0.113,0.987
0.659000,979110,1000.00,12,0,1,-113.185,0.028,3.020,1081.146,-0.864,0.962
0.660000,979111,1000.00,12,0,1,-110.951,-0.565,2.978,1080.906,-0.236,0.926
0.661000,979112,1000.00,12,0,1,-107.060,2.330,2.988,1080.282,-1.193,0.941
0.662000,979113,1000.00,12,0,1,-105.042,2.558,3.006,1080.642,-0.754,0.939
0.663000,979114,1000.00,12,0,1,-103.673,2.432,3.014,1079.657,-1.141,0.952
0.664000,979115,1000.00,12,0,1,-104.490,1.128,3.012,1079.153,-1.905,0.985
0.665000,979116,1000.00,12,0,1,-106.075,-0.957,3.008,1079.873,-0.657,0.982
0.666000,979117,1000.00,12,0,1,-111.504,-4.479,3.022,1081.243,0.437,0.984
0.667000,979118,1000.00,12,0,1,-112.513,-5.356,3.069,1082.780,2.069,1.020
0.668000,979119,1000.00,12,0,1,-109.414,0.060,3.040,1081.122,0.640,1.013
0.669000,979120,1000.00,12,0,1,-109.582,1.741,3.022,1081.627,0.346,1.003
0.670000,979121,1000.00,12,0,1,-111.840,1.040,3.020,1081.843,1.102,1.014
0.671000,979122,1000.00,12,0,1,-111.552,2.204,3.033,1080.306,-0.529,1.017
0.672000,979123,1000.00,12,0,1,-114.146,1.656,3.030,1080.402,-0.575,1.019
0.673000,979124,1000.00,12,0,1,-111.072,3.564,3.057,1082.275,1.214,1.021
0.674000,979125,1000.00,12,0,1,-110.015,6.049,3.165,1081.843,1.102,1.011
0.675000,979126,1000.00,12,0,1,-112.873,2.089,3.177,1079.921,-0.884,1.018
0.676000,979127,1000.00,12,0,1,-114.891,-0.542,3.143,1080.210,-0.845,1.021
0.677000,979128,1000.00,12,0,1,-118.062,-3.849,3.154,1082.035,1.018,0.994
0.678000,979129,1000.00,12,0,1,-118.062,-5.237,3.236,1080.546,0.033,0.976
0.679000,979130,1000.00,12,0,1,-112.705,-0.961,3.234,1081.435,-0.046,0.932
0.680000,979131,1000.00,12,0,1,-110.783,0.320,3.218,1082.444,1.450,0.948
0.681000,979132,1000.00,12,0,1,-111.504,-1.848,3.083,1083.092,1.373,0.961
0.682000,979133,1000.00,12,0,1,-110.687,-2.245,2.917,1081.723,0.380,0.961
0.683000,979134,1000.00,12,0,1,-108.694,-0.900,2.908,1081.122,-0.849,0.959
0.684000,979135,1000.00,12,0,1,-105.931,1.095,2.907,1081.194,-0.495,0.948
0.685000,979136,1000.00,12,0,1,-105.907,1.498,2.888,1081.867,-0.056,0.946
0.686000,979137,1000.00,12,0,1,-104.346,2.222,2.903,1082.083,0.287,0.929
0.687000,979138,1000.00,12,0,1,-104.778,3.117,2.863,1081.963,0.077,0.922
0.688000,979139,1000.00,12,0,1,-109.462,-0.558,2.769,1082.275,0.212,0.922
0.689000,979140,1000.00,12,0,1,-108.814,0.325,2.765,1082.804,0.732,0.927
0.690000,979141,1000.00,12,0,1,-109.102,2.477,2.743,1082.708,0.519,0.927
0.691000,979142,1000.00,12,0,1,-113.522,-0.659,2.727,1082.444,0.208,0.927
0.692000,979143,1000.00,12,0,1,-115.419,-1.497,2.735,1080.065,-1.674,0.956
0.693000,979144,1000.00,12,0,1,-113.594,1.095,2.730,1079.513,-2.462,1.012
0.694000,979145,1000.00,12,0,1,-114.194,1.613,2.728,1077.904,-2.858,1.082
0.695000,979146,1000.00,12,0,1,-115.419,-0.022,2.720,1080.210,-1.342,1.085
0.696000,979147,1000.00,12,0,1,-112.921,1.517,2.728,1080.954,0.743,1.082
0.697000,979148,1000.00,12,0,1,-111.984,1.995,2.731,1080.666,-0.187,1.076
0.698000,979149,1000.00,12,0,1,-112.321,-0.078,2.712,1081.339,0.653,1.079
0.699000,979150,1000.00,12,0,1,-111.240,-0.526,2.712,1081.579,0.801,1.049
0.700000,979151,1000.00,12,0,1,-112.008,-2.258,2.705,1081.915,0.812,1.043
0.701000,979152,1000.00,12,0,1,-109.798,-2.167,2.697,1082.636,1.379,1.061
0.702000,979153,1000.00,12,0,1,-107.517,-0.368,2.690,1081.122,-0.013,1.043
0.703000,979154,1000.00,12,0,1,-105.403,0.201,2.588,1083.356,1.103,1.052
0.704000,979155,1000.00,12,0,1,-100.647,3.649,2.506,1081.843,0.780,1.043
0.705000,979156,1000.00,12,0,1,-103.097,2.038,2.516,1081.483,-0.879,1.039
0.706000,979157,1000.00,12,0,1,-111.480,-5.912,2.631,1081.363,-0.114,1.024
0.707000,979158,1000.00,12,0,1,-111.432,-5.664,2.593,1081.026,-0.813,1.026
0.708000,979159,1000.00,12,0,1,-107.517,0.410,2.528,1080.306,-1.014,1.036
0.709000,979160,1000.00,12,0,1,-108.285,1.524,2.538,1080.402,-0.944,1.037
0.710000,979161,1000.00,12,0,1,-109.510,1.210,2.542,1081.218,0.029,1.037
0.711000,979162,1000.00,12,0,1,-112.705,0.146,2.521,1079.465,-0.916,1.031
0.712000,979163,1000.00,12,0,1,-113.930,-0.604,2.496,1080.570,-0.666,1.030
0.713000,979164,1000.00,12,0,1,-118.566,-2.491,2.497,1081.146,0.972,1.026
0.714000,979165,1000.00,12,0,1,-120.031,-4.226,2.563,1080.402,-0.247,0.991
0.715000,979166,1000.00,12,0,1,-113.882,2.057,2.576,1081.098,0.518,0.989
0.716000,979167,1000.00,12,0,1,-107.060,7.964,2.739,1081.002,0.518,0.990
0.717000,979168,1000.00,12,0,1,-99.518,12.341,3.158,1081.363,0.512,0.949
0.718000,979169,1000.00,12,0,1,-94.161,14.577,3.771,1081.267,0.590,0.948
0.719000,979170,1000.00,12,0,1,-96.611,8.933,3.970,1082.227,0.889,0.955
0.720000,979171,1000.00,12,0,1,-107.541,-3.593,3.999,1081.939,0.948,0.952
0.721000,979172,1000.00,12,0,1,-119.119,-15.976,4.583,1081.074,-0.385,0.950
0.722000,979173,1000.00,12,0,1,-117.605,-15.200,5.057,1081.315,-0.173,0.947
0.723000,979174,1000.00,12,0,1,-111.216,-7.067,5.130,1081.050,-0.311,0.932
0.724000,979175,1000.00,12,0,1,-112.417,-6.421,5.139,1082.251,0.417,0.921
0.725000,979176,1000.00,12,0,1,-110.639,-4.954,5.178,1081.843,0.563,0.916
0.726000,979177,1000.00,12,0,1,-106.460,0.832,5.179,1079.801,-1.563,0.935
0.727000,979178,1000.00,12,0,1,-104.154,3.619,5.175,1080.642,-0.906,0.933
0.728000,979179,1000.00,12,0,1,-99.662,7.840,5.241,1080.666,-0.174,0.933
0.729000,979180,1000.00,12,0,1,-106.388,3.969,5.269,1082.588,0.967,0.943
0.730000,979181,1000.00,12,0,1,-114.579,-4.473,5.307,1081.050,0.630,0.925
0.731000,979182,1000.00,12,0,1,-118.854,-5.881,5.365,1080.234,-1.150,0.918
0.732000,979183,1000.00,12,0,1,-119.671,-5.223,5.406,1082.299,1.152,0.931
0.733000,979184,1000.00,12,0,1,-120.680,-3.604,5.429,1082.420,1.408,0.945
0.734000,979185,1000.00,12,0,1,-119.551,-1.931,5.433,1080.546,-0.498,0.945
0.735000,979186,1000.00,12,0,1,-112.729,4.422,5.465,1081.675,0.060,0.945
0.736000,979187,1000.00,12,0,1,-105.859,10.356,5.649,1081.146,0.200,0.944
0.737000,979188,1000.00,12,0,1,-101.896,11.607,5.866,1080.426,-0.976,0.954
0.738000,979189,1000.00,12,0,1,-100.671,10.101,6.037,1081.507,0.056,0.954
0.739000,979190,1000.00,12,0,1,-106.460,2.501,6.047,1080.618,-0.362,0.950
0.740000,979191,1000.00,12,0,1,-113.257,-6.161,6.100,1080.402,-1.087,0.959
0.741000,979192,1000.00,12,0,1,-109.174,-4.446,6.131,1080.786,-0.281,0.959
0.742000,979193,1000.00,12,0,1,-105.283,0.035,6.128,1079.945,-1.052,0.942
0.743000,979194,1000.00,12,0,1,-104.298,-0.424,6.126,1080.186,-0.851,0.883
0.744000,979195,1000.00,12,0,1,-107.517,-2.736,6.134,1080.594,-0.190,0.786
0.745000,979196,1000.00,12,0,1,-109.774,-5.326,6.180,1080.162,-0.453,0.765
0.746000,979197,1000.00,12,0,1,-112.369,-5.700,6.229,1079.825,-0.686,0.764
0.747000,979198,1000.00,12,0,1,-113.113,-5.325,6.268,1079.753,-0.543,0.767
0.748000,979199,1000.00,12,0,1,-112.585,-2.496,6.278,1080.882,0.466,0.765
0.749000,979200,1000.00,12,0,1,-113.426,-1.273,6.280,1080.834,0.829,0.765
0.750000,979201,1000.00,12,0,1,-113.402,0.056,6.272,1081.122,0.705,0.763
0.751000,979202,1000.00,12,0,1,-115.515,0.251,6.264,1081.867,1.507,0.768
0.752000,979203,1000.00,12,0,1,-116.452,-0.270,6.264,1082.131,1.539,0.798
0.753000,979204,1000.00,12,0,1,-115.828,1.609,6.268,1081.315,0.735,0.790
0.754000,979205,1000.00,12,0,1,-114.386,2.783,6.259,1081.603,0.563,0.786
0.755000,979206,1000.00,12,0,1,-111.744,4.873,6.291,1082.924,1.685,0.812
0.756000,979207,1000.00,12,0,1,-114.386,2.231,6.243,1082.083,0.979,0.823
0.757000,979208,1000.00,12,0,1,-112.225,1.472,6.195,1081.795,0.046,0.815
0.758000,979209,1000.00,12,0,1,-108.573,4.506,6.227,1080.186,-0.938,0.814
0.759000,979210,1000.00,12,0,1,-109.198,2.044,6.230,1080.474,-1.358,0.825
0.760000,979211,1000.00,12,0,1,-110.279,-0.654,6.228,1080.258,-0.724,0.832
0.761000,979212,1000.00,12,0,1,-107.180,0.442,6.229,1079.513,-1.679,0.855
0.762000,979213,1000.00,12,0,1,-101.151,4.766,6.265,1080.618,-0.525,0.853
0.763000,979214,1000.00,12,0,1,-100.863,4.588,6.288,1079.945,-0.582,0.846
0.764000,979215,1000.00,12,0,1,-105.066,-0.641,6.260,1080.714,-0.443,0.847
0.765000,979216,1000.00,12,0,1,-108.069,-3.499,6.273,1079.681,-0.440,0.847
0.766000,979217,1000.00,12,0,1,-108.237,-3.121,6.187,1079.561,-1.253,0.862
0.767000,979218,1000.00,12,0,1,-107.493,-1.048,5.938,1080.714,0.417,0.861
0.768000,979219,1000.00,12,0,1,-104.706,2.188,5.577,1081.627,1.057,0.870
0.769000,979220,1000.00,12,0,1,-109.342,0.377,5.432,1081.507,1.072,0.874
0.770000,979221,1000.00,12,0,1,-114.555,-4.464,5.445,1081.002,0.374,0.865
0.771000,979222,1000.00,12,0,1,-112.321,-1.115,4.957,1082.323,1.224,0.881
0.772000,979223,1000.00,12,0,1,-107.180,4.657,4.515,1081.531,0.968,0.891
0.773000,979224,1000.00,12,0,1,-104.874,6.956,4.511,1081.122,-0.170,0.890
0.774000,979225,1000.00,12,0,1,-110.687,1.713,4.425,1082.564,1.290,0.907
0.775000,979226,1000.00,12,0,1,-117.677,-6.015,4.452,1079.945,-0.663,0.908
0.776000,979227,1000.00,12,0,1,-116.500,-5.442,4.516,1079.657,-1.778,0.916
0.777000,979228,1000.00,12,0,1,-111.672,-0.911,4.489,1078.792,-1.417,0.929
0.778000,979229,1000.00,12,0,1,-110.903,-0.440,4.350,1083.404,1.462,0.951
0.779000,979230,1000.00,12,0,1,-108.886,-0.544,4.315,1081.987,2.172,0.990
0.780000,979231,1000.00,12,0,1,-109.054,-0.889,4.270,1082.011,-0.106,0.986
0.781000,979232,1000.00,12,0,1,-108.694,-2.380,4.202,1080.282,-0.104,0.973
0.782000,979233,1000.00,12,0,1,-105.691,-0.095,4.136,1079.225,-2.263,1.011
0.783000,979234,1000.00,12,0,1,-102.929,1.853,4.113,1079.441,-1.232,1.006
0.784000,979235,1000.00,12,0,1,-103.553,1.153,4.107,1079.705,-0.944,1.013
0.785000,979236,1000.00,12,0,1,-103.457,0.616,4.060,1080.162,-0.429,1.015
0.786000,979237,1000.00,12,0,1,-103.193,1.436,3.792,1080.834,0.441,1.016
0.787000,979238,1000.00,12,0,1,-101.704,2.894,3.443,1082.996,1.846,1.040
0.788000,979239,1000.00,12,0,1,-107.517,-0.405,3.133,1079.081,-0.472,1.042
0.789000,979240,1000.00,12,0,1,-111.504,-4.325,3.173,1079.177,-2.274,1.089
0.790000,979241,1000.00,12,0,1,-110.183,-1.119,3.055,1080.065,0.323,1.079
0.791000,979242,1000.00,12,0,1,-106.267,3.393,3.028,1081.387,0.482,1.081
0.792000,979243,1000.00,12,0,1,-112.537,0.042,3.028,1081.026,1.108,1.082
0.793000,979244,1000.00,12,0,1,-114.579,-3.453,3.066,1079.633,-0.773,1.081
0.794000,979245,1000.00,12,0,1,-112.369,0.245,3.042,1080.786,0.215,1.081
0.795000,979246,1000.00,12,0,1,-112.128,0.274,2.948,1081.267,1.079,1.090
0.796000,979247,1000.00,12,0,1,-110.159,1.106,2.839,1081.603,0.851,1.092
0.797000,979248,1000.00,12,0,1,-107.300,3.007,2.771,1083.044,2.170,1.132
0.798000,979249,1000.00,12,0,1,-107.228,1.592,2.757,1081.339,0.659,1.134
0.799000,979250,1000.00,12,0,1,-108.117,-0.686,2.753,1080.954,-0.389,1.129
0.800000,979251,1000.00,12,0,1,-105.114,-0.023,2.753,1081.771,0.566,1.127
0.801000,979252,1000.00,12,0,1,-105.355,-0.203,2.753,1080.402,-0.511,1.109
0.802000,979253,1000.00,12,0,1,-104.778,-1.822,2.765,1080.906,-0.610,1.091
0.803000,979254,1000.00,12,0,1,-100.959,1.482,2.763,1079.753,-0.794,1.092
0.804000,979255,1000.00,12,0,1,-101.824,0.782,2.737,1081.170,-0.451,1.091
0.805000,979256,1000.00,12,0,1,-104.274,-1.931,2.663,1082.251,1.440,1.084
0.806000,979257,1000.00,12,0,1,-102.760,-0.274,2.645,1082.636,1.040,1.085
0.807000,979258,1000.00,12,0,1,-104.418,-0.102,2.637,1080.978,-0.057,1.085
0.808000,979259,1000.00,12,0,1,-109.774,-3.973,2.619,1082.420,0.222,1.078
0.809000,979260,1000.00,12,0,1,-109.774,-3.114,2.640,1081.315,0.251,1.061
0.810000,979261,1000.00,12,0,1,-110.783,-1.223,2.644,1083.068,0.456,1.058
0.811000,979262,1000.00,12,0,1,-111.624,-1.363,2.651,1081.723,0.520,1.034
0.812000,979263,1000.00,12,0,1,-112.729,-0.504,2.565,1079.825,-2.221,1.078
0.813000,979264,1000.00,12,0,1,-113.185,-0.638,2.483,1079.033,-2.287,1.122
0.814000,979265,1000.00,12,0,1,-108.958,3.183,2.522,1081.411,-0.375,1.122
0.815000,979266,1000.00,12,0,1,-107.300,4.998,2.572,1082.708,1.456,1.139
0.816000,979267,1000.00,12,0,1,-100.118,8.411,2.799,1082.155,0.725,1.129
0.817000,979268,1000.00,12,0,1,-100.983,7.989,3.015,1080.065,-1.180,1.140
0.818000,979269,1000.00,12,0,1,-108.069,-2.117,3.014,1082.299,0.254,1.131
0.819000,979270,1000.00,12,0,1,-103.937,-0.885,3.016,1082.828,1.522,1.141
0.820000,979271,1000.00,12,0,1,-105.475,-1.287,2.954,1080.642,-0.824,1.146
0.821000,979272,1000.00,12,0,1,-107.877,-6.199,3.078,1080.642,-1.160,1.145
0.822000,979273,1000.00,12,0,1,-105.307,-3.460,3.046,1080.786,-0.443,1.138
0.823000,979274,1000.00,12,0,1,-104.514,-2.639,2.907,1080.306,-1.051,1.148
0.824000,979275,1000.00,12,0,1,-102.857,-1.260,2.902,1080.522,-0.585,1.136
0.825000,979276,1000.00,12,0,1,-99.566,2.103,2.791,1081.026,-0.141,1.132
0.826000,979277,1000.00,12,0,1,-101.319,1.492,2.691,1081.699,0.584,1.107
0.827000,979278,1000.00,12,0,1,-106.315,-2.622,2.713,1082.323,1.003,1.098
0.828000,979279,1000.00,12,0,1,-108.910,-3.952,2.769,1081.963,0.708,1.083
0.829000,979280,1000.00,12,0,1,-110.903,-3.619,2.815,1084.029,1.842,1.071
0.830000,979281,1000.00,12,0,1,-112.201,-3.252,2.850,1080.786,-0.056,1.071
0.831000,979282,1000.00,12,0,1,-111.456,-0.907,2.833,1078.408,-3.457,1.177
0.832000,979283,1000.00,12,0,1,-109.726,1.737,2.843,1078.552,-2.312,1.179
0.833000,979284,1000.00,12,0,1,-110.807,1.712,2.842,1078.336,-2.193,1.206
0.834000,979285,1000.00,12,0,1,-111.000,0.940,2.840,1079.465,-0.911,1.206
0.835000,979286,1000.00,12,0,1,-109.750,1.993,2.853,1081.387,1.204,1.216
0.836000,979287,1000.00,12,0,1,-108.597,2.145,2.861,1081.483,1.376,1.230
0.837000,979288,1000.00,12,0,1,-107.781,1.788,2.843,1081.170,0.873,1.208
0.838000,979289,1000.00,12,0,1,-103.553,3.616,2.888,1079.945,-0.189,1.207
0.839000,979290,1000.00,12,0,1,-100.743,5.052,2.912,1080.666,0.096,1.163
0.840000,979291,1000.00,12,0,1,-100.983,2.707,2.933,1080.450,0.398,1.164
0.841000,979292,1000.00,12,0,1,-104.106,-1.387,2.900,1082.107,1.200,1.174
0.842000,979293,1000.00,12,0,1,-102.905,-2.094,2.915,1083.164,2.536,1.218
0.843000,979294,1000.00,12,0,1,-103.769,-2.006,2.888,1082.636,1.502,1.231
0.844000,979295,1000.00,12,0,1,-103.049,-2.324,2.906,1079.081,-1.488,1.249
0.845000,979296,1000.00,12,0,1,-103.265,-1.049,2.910,1080.354,-1.333,1.254
0.846000,979297,1000.00,12,0,1,-103.433,-1.066,2.909,1081.507,0.862,1.254
0.847000,979298,1000.00,12,0,1,-105.379,-1.161,2.883,1081.747,0.499,1.218
0.848000,979299,1000.00,12,0,1,-101.247,2.385,2.894,1081.146,0.249,1.215
0.849000,979300,1000.00,12,0,1,-100.983,5.069,2.980,1079.585,-1.239,1.226
0.850000,979301,1000.00,12,0,1,-104.274,1.714,2.989,1081.122,-0.240,1.224
0.851000,979302,1000.00,12,0,1,-106.436,0.375,2.990,1081.098,0.640,1.225
0.852000,979303,1000.00,12,0,1,-107.517,-0.082,2.979,1080.330,-0.698,1.226
0.853000,979304,1000.00,12,0,1,-109.390,-1.331,2.977,1081.363,0.466,1.223
0.854000,979305,1000.00,12,0,1,-108.165,-0.474,2.976,1081.074,0.319,1.222
0.855000,979306,1000.00,12,0,1,-100.046,5.742,3.073,1081.507,0.360,1.206
0.856000,979307,1000.00,12,0,1,-97.404,8.194,3.284,1081.939,0.902,1.204
0.857000,979308,1000.00,12,0,1,-101.631,1.618,3.292,1082.203,0.811,1.209
0.858000,979309,1000.00,12,0,1,-102.232,-1.172,3.247,1082.468,0.955,1.216
0.859000,979310,1000.00,12,0,1,-104.418,-3.674,3.259,1080.834,-0.480,1.217
0.860000,979311,1000.00,12,0,1,-107.709,-7.808,3.437,1079.465,-1.984,1.248
0.861000,979312,1000.00,12,0,1,-107.901,-8.080,3.617,1079.081,-1.985,1.277
0.862000,979313,1000.00,12,0,1,-107.084,-6.679,3.737,1080.114,-0.975,1.245
0.863000,979314,1000.00,12,0,1,-104.490,-3.971,3.778,1079.249,-1.024,1.211
0.864000,979315,1000.00,12,0,1,-103.145,-1.555,3.758,1079.921,-0.878,1.216
0.865000,979316,1000.00,12,0,1,-103.577,-1.421,3.696,1078.792,-0.883,1.205
0.866000,979317,1000.00,12,0,1,-100.695,1.556,3.506,1078.600,-1.586,1.222
0.867000,979318,1000.00,12,0,1,-99.662,3.929,3.366,1080.618,0.720,1.214
0.868000,979319,1000.00,12,0,1,-103.601,1.014,3.355,1080.234,0.755,1.219
0.869000,979320,1000.00,12,0,1,-104.874,0.056,3.353,1080.258,0.247,1.200
0.870000,979321,1000.00,12,0,1,-106.315,0.456,3.349,1079.681,0.240,1.195
0.871000,979322,1000.00,12,0,1,-105.811,1.030,3.235,1081.243,0.894,1.190
0.872000,979323,1000.00,12,0,1,-110.327,-0.986,3.201,1080.786,1.327,1.203
0.873000,979324,1000.00,12,0,1,-107.781,-0.345,3.179,1078.000,-1.691,1.218
0.874000,979325,1000.00,12,0,1,-106.460,3.065,3.204,1079.945,-0.277,1.216
0.875000,979326,1000.00,12,0,1,-109.702,-1.086,3.194,1081.002,1.543,1.235
0.876000,979327,1000.00,12,0,1,-109.006,-1.248,3.192,1080.498,0.551,1.235
0.877000,979328,1000.00,12,0,1,-108.501,-0.700,3.172,1079.105,-0.392,1.228
0.878000,979329,1000.00,12,0,1,-107.781,-1.417,3.128,1080.258,0.027,1.224
0.879000,979330,1000.00,12,0,1,-107.204,-1.065,3.090,1080.114,0.707,1.200
0.880000,979331,1000.00,12,0,1,-103.673,0.387,3.056,1080.282,0.170,1.200
0.881000,979332,1000.00,12,0,1,-99.806,3.699,3.098,1080.498,0.756,1.101
0.882000,979333,1000.00,12,0,1,-100.695,1.891,3.100,1079.369,-0.367,1.053
0.883000,979334,1000.00,12,0,1,-99.037,1.840,3.101,1078.144,-1.459,1.027
0.884000,979335,1000.00,12,0,1,-100.743,1.014,3.102,1079.345,-0.412,1.020
0.885000,979336,1000.00,12,0,1,-105.427,-3.657,3.132,1081.363,1.613,1.032
0.886000,979337,1000.00,12,0,1,-107.324,-4.493,3.181,1081.603,1.885,1.047
0.887000,979338,1000.00,12,0,1,-105.883,-1.904,3.182,1080.186,0.282,1.041
0.888000,979339,1000.00,12,0,1,-107.949,-1.494,3.148,1078.961,-0.937,1.049
0.889000,979340,1000.00,12,0,1,-107.204,-0.504,3.067,1079.393,-0.678,1.053
0.890000,979341,1000.00,12,0,1,-107.805,1.291,3.048,1080.666,0.685,1.056
0.891000,979342,1000.00,12,0,1,-111.744,-1.575,3.050,1080.162,0.361,1.044
0.892000,979343,1000.00,12,0,1,-109.462,0.510,3.037,1082.035,1.365,0.999
0.893000,979344,1000.00,12,0,1,-107.613,3.727,3.069,1082.179,2.020,1.017
0.894000,979345,1000.00,12,0,1,-107.709,2.745,3.076,1080.906,0.142,0.995
0.895000,979346,1000.00,12,0,1,-108.838,1.610,3.081,1080.378,-0.358,0.979
0.896000,979347,1000.00,12,0,1,-109.630,-0.334,3.077,1079.585,-1.010,0.981
0.897000,979348,1000.00,12,0,1,-105.667,2.016,3.086,1078.264,-2.043,1.021
0.898000,979349,1000.00,12,0,1,-102.977,3.853,3.116,1079.561,-0.958,1.029
0.899000,979350,1000.00,12,0,1,-98.389,5.362,3.126,1079.753,-0.067,1.014
0.900000,979351,1000.00,12,0,1,-97.644,5.316,3.206,1079.489,-0.555,1.016
0.901000,979352,1000.00,12,0,1,-97.068,2.822,3.230,1079.393,-0.379,1.014
0.902000,979353,1000.00,12,0,1,-97.932,1.530,3.237,1077.952,-1.417,1.029
0.903000,979354,1000.00,12,0,1,-102.905,-3.818,3.276,1078.072,-1.485,1.048
0.904000,979355,1000.00,12,0,1,-103.217,-4.785,3.345,1079.993,0.628,1.051
0.905000,979356,1000.00,12,0,1,-101.776,-1.976,3.257,1079.513,0.512,1.052
0.906000,979357,1000.00,12,0,1,-101.800,-1.386,3.050,1079.585,0.119,1.044
0.907000,979358,1000.00,12,0,1,-101.704,-0.206,3.042,1081.074,1.501,1.059
0.908000,979359,1000.00,12,0,1,-101.079,1.108,3.041,1080.786,1.300,1.067
0.909000,979360,1000.00,12,0,1,-101.511,1.805,3.007,1080.114,0.242,1.065
0.910000,979361,1000.00,12,0,1,-100.623,2.712,2.823,1079.225,-0.432,1.029
0.911000,979362,1000.00,12,0,1,-97.932,5.427,2.693,1079.153,-0.725,0.996
0.912000,979363,1000.00,12,0,1,-98.317,5.128,2.625,1078.696,-0.710,0.991
0.913000,979364,1000.00,12,0,1,-106.027,-1.856,2.577,1080.017,0.126,0.981
0.914000,979365,1000.00,12,0,1,-110.351,-6.985,2.751,1081.843,2.099,1.017
0.915000,979366,1000.00,12,0,1,-112.345,-7.534,2.943,1080.306,0.784,1.015
0.916000,979367,1000.00,12,0,1,-111.000,-6.589,3.080,1080.258,-0.013,0.990
0.917000,979368,1000.00,12,0,1,-108.285,-3.380,3.067,1081.387,1.318,1.003
0.918000,979369,1000.00,12,0,1,-105.090,-1.115,3.067,1080.402,0.369,0.998
0.919000,979370,1000.00,12,0,1,-99.614,2.805,3.093,1080.041,-0.293,0.998
0.920000,979371,1000.00,12,0,1,-99.277,2.812,3.118,1079.393,-0.581,1.001
0.921000,979372,1000.00,12,0,1,-100.959,-0.762,3.116,1079.801,-0.501,0.996
0.922000,979373,1000.00,12,0,1,-101.079,-1.295,3.118,1079.225,-0.483,0.980
0.923000,979374,1000.00,12,0,1,-101.752,-2.137,3.133,1079.465,-0.670,0.955
0.924000,979375,1000.00,12,0,1,-102.064,-2.205,3.118,1078.480,-0.905,0.963
0.925000,979376,1000.00,12,0,1,-100.863,-0.647,3.116,1079.585,-0.512,0.941
0.926000,979377,1000.00,12,0,1,-100.551,0.663,3.112,1080.306,0.824,0.945
0.927000,979378,1000.00,12,0,1,-103.601,-0.976,3.113,1079.777,0.008,0.943
0.928000,979379,1000.00,12,0,1,-104.298,-1.138,3.111,1080.138,0.195,0.944
0.929000,979380,1000.00,12,0,1,-104.826,0.282,3.108,1080.258,0.423,0.940
0.930000,979381,1000.00,12,0,1,-106.315,-0.206,3.107,1081.915,1.353,0.959
0.931000,979382,1000.00,12,0,1,-108.213,-0.667,3.065,1080.666,0.849,0.961
0.932000,979383,1000.00,12,0,1,-106.748,0.869,3.055,1080.354,-0.512,0.962
0.933000,979384,1000.00,12,0,1,-107.781,1.291,3.050,1079.801,-0.266,0.940
0.934000,979385,1000.00,12,0,1,-104.562,2.723,3.071,1080.714,-0.148,0.939
0.935000,979386,1000.00,12,0,1,-103.433,4.528,3.094,1081.050,0.801,0.918
0.936000,979387,1000.00,12,0,1,-103.577,2.313,3.045,1081.267,0.487,0.881
0.937000,979388,1000.00,12,0,1,-104.946,0.489,3.034,1081.194,0.600,0.884
0.938000,979389,1000.00,12,0,1,-103.985,-0.543,3.028,1080.354,-0.257,0.875
0.939000,979390,1000.00,12,0,1,-99.974,2.043,3.041,1079.345,-1.179,0.885
0.940000,979391,1000.00,12,0,1,-99.782,1.641,3.044,1081.291,0.363,0.882
0.941000,979392,1000.00,12,0,1,-94.978,3.135,3.068,1079.273,-0.517,0.883
0.942000,979393,1000.00,12,0,1,-91.807,6.216,3.191,1080.114,-0.916,0.872
0.943000,979394,1000.00,12,0,1,-94.329,2.059,3.160,1080.546,0.585,0.828
0.944000,979395,1000.00,12,0,1,-94.689,0.685,3.138,1080.426,-0.185,0.828
0.945000,979396,1000.00,12,0,1,-97.188,-1.033,3.133,1079.657,-0.481,0.829
0.946000,979397,1000.00,12,0,1,-98.461,-2.501,3.153,1078.961,-1.303,0.837
0.947000,979398,1000.00,12,0,1,-96.851,0.069,3.140,1079.129,-1.045,0.799
0.948000,979399,1000.00,12,0,1,-97.788,0.399,3.093,1080.810,0.512,0.791
0.949000,979400,1000.00,12,0,1,-99.494,-0.591,2.999,1080.834,0.744,0.798
0.950000,979401,1000.00,12,0,1,-99.854,-0.085,2.904,1080.810,0.361,0.796
0.951000,979402,1000.00,12,0,1,-101.920,-0.888,2.879,1079.945,-0.287,0.795
0.952000,979403,1000.00,12,0,1,-104.514,-2.813,2.898,1081.435,0.533,0.773
0.953000,979404,1000.00,12,0,1,-113.041,-8.651,3.099,1082.227,1.653,0.780
0.954000,979405,1000.00,12,0,1,-114.987,-11.009,3.402,1081.579,0.686,0.781
0.955000,979406,1000.00,12,0,1,-111.144,-5.265,3.471,1081.843,0.615,0.782
0.956000,979407,1000.00,12,0,1,-104.658,0.399,3.466,1081.795,0.697,0.788
0.957000,979408,1000.00,12,0,1,-105.283,0.845,3.468,1080.978,-0.255,0.760
0.958000,979409,1000.00,12,0,1,-105.475,-1.672,3.472,1081.218,-0.097,0.738
0.959000,979410,1000.00,12,0,1,-104.946,-1.127,3.466,1082.035,0.639,0.742
0.960000,979411,1000.00,12,0,1,-104.946,-2.149,3.459,1080.258,-0.579,0.744
0.961000,979412,1000.00,12,0,1,-105.355,-2.749,3.395,1079.105,-2.044,0.792
0.962000,979413,1000.00,12,0,1,-102.016,-0.395,3.317,1080.426,-0.538,0.789
0.963000,979414,1000.00,12,0,1,-100.815,1.372,3.312,1079.825,-0.562,0.793
0.964000,979415,1000.00,12,0,1,-102.232,-0.038,3.161,1078.840,-1.636,0.771
0.965000,979416,1000.00,12,0,1,-100.671,1.242,2.982,1079.801,-0.631,0.768
0.966000,979417,1000.00,12,0,1,-102.064,1.676,2.842,1081.891,1.285,0.789
0.967000,979418,1000.00,12,0,1,-106.724,-2.103,2.817,1079.561,-0.245,0.768
0.968000,979419,1000.00,12,0,1,-106.844,-1.151,2.818,1078.985,-1.758,0.805
0.969000,979420,1000.00,12,0,1,-106.580,1.071,2.794,1082.540,1.702,0.839
0.970000,979421,1000.00,12,0,1,-107.252,1.535,2.774,1081.435,1.276,0.855
0.971000,979422,1000.00,12,0,1,-107.517,2.235,2.790,1078.384,-2.195,0.907
0.972000,979423,1000.00,12,0,1,-108.838,1.840,2.796,1079.537,-1.242,0.921
0.973000,979424,1000.00,12,0,1,-105.523,4.154,2.841,1080.354,0.146,0.916
0.974000,979425,1000.00,12,0,1,-101.896,7.719,3.027,1081.146,0.575,0.911
0.975000,979426,1000.00,12,0,1,-106.532,2.915,3.054,1080.450,0.374,0.910
0.976000,979427,1000.00,12,0,1,-106.388,0.303,3.053,1080.474,-0.078,0.902
0.977000,979428,1000.00,12,0,1,-101.151,4.499,3.115,1079.201,-0.580,0.906
0.978000,979429,1000.00,12,0,1,-99.253,4.738,3.182,1079.705,-0.625,0.910
0.979000,979430,1000.00,12,0,1,-95.074,5.697,3.283,1081.122,1.210,0.924
0.980000,979431,1000.00,12,0,1,-96.323,3.854,3.327,1081.939,1.773,0.938
0.981000,979432,1000.00,12,0,1,-96.251,0.555,3.327,1080.834,0.862,0.938
0.982000,979433,1000.00,12,0,1,-95.266,1.220,3.329,1080.882,0.377,0.937
0.983000,979434,1000.00,12,0,1,-97.620,-1.855,3.335,1082.876,2.049,0.980
0.984000,979435,1000.00,12,0,1,-102.496,-6.006,3.419,1082.756,2.057,1.022
0.985000,979436,1000.00,12,0,1,-102.352,-5.869,3.460,1079.969,-0.865,1.023
0.986000,979437,1000.00,12,0,1,-101.007,-2.626,3.464,1079.153,-1.934,1.057
0.987000,979438,1000.00,12,0,1,-102.592,-2.642,3.484,1079.201,-1.511,1.075
0.988000,979439,1000.00,12,0,1,-102.304,-1.562,3.490,1079.801,-0.931,1.082
0.989000,979440,1000.00,12,0,1,-101.583,0.852,3.480,1080.546,-0.067,1.069
0.990000,979441,1000.00,12,0,1,-105.163,-1.164,3.476,1081.315,0.552,1.071
0.991000,979442,1000.00,12,0,1,-103.913,-0.152,3.448,1080.594,0.021,1.068
0.992000,979443,1000.00,12,0,1,-103.337,2.003,3.346,1081.987,0.658,1.065
0.993000,979444,1000.00,12,0,1,-102.184,2.183,3.347,1082.059,1.218,1.075
0.994000,979445,1000.00,12,0,1,-97.716,5.717,3.442,1079.177,-1.591,1.098
0.995000,979446,1000.00,12,0,1,-98.197,4.821,3.506,1081.387,-0.346,1.097
0.996000,979447,1000.00,12,0,1,-101.247,-0.063,3.488,1080.666,0.431,1.083
0.997000,979448,1000.00,12,0,1,-102.905,-2.612,3.508,1080.306,-1.044,1.083
0.998000,979449,1000.00,12,0,1,-100.887,-2.273,3.522,1080.114,-0.227,1.081
0.999000,979450,1000.00,12,0,1,-99.854,-1.449,3.527,1081.050,0.015,1.076
1.000000,979451,1000.00,12,0,1,-99.349,-2.341,3.543,1082.203,1.546,1.097
1.001000,979452,1000.00,12,0,1,-98.221,-1.707,3.549,1080.041,-0.283,1.097
1.002000,979453,1000.00,12,0,1,-99.662,-3.066,3.553,1078.768,-1.892,1.127
1.003000,979454,1000.00,12,0,1,-97.740,-2.112,3.349,1078.961,-1.153,1.114
1.004000,979455,1000.00,12,0,1,-95.939,0.627,2.966,1080.666,0.196,1.110
1.005000,979456,1000.00,12,0,1,-97.164,-0.334,2.872,1080.234,0.539,1.109
1.006000,979457,1000.00,12,0,1,-97.164,0.056,2.871,1079.729,-0.569,1.108
1.007000,979458,1000.00,12,0,1,-99.349,-0.532,2.870,1080.354,0.278,1.108
1.008000,979459,1000.00,12,0,1,-101.343,-1.814,2.871,1080.642,0.419,1.110
1.009000,979460,1000.00,12,0,1,-103.073,-1.706,2.877,1081.315,0.847,1.112
1.010000,979461,1000.00,12,0,1,-101.776,-0.006,2.861,1082.155,1.467,1.129
1.011000,979462,1000.00,12,0,1,-103.553,0.363,2.835,1080.041,-0.310,1.092
1.012000,979463,1000.00,12,0,1,-106.003,-1.993,2.848,1081.651,0.133,1.089
1.013000,979464,1000.00,12,0,1,-107.036,-2.036,2.856,1081.531,1.024,1.096
1.014000,979465,1000.00,12,0,1,-104.418,0.046,2.856,1081.819,0.245,1.072
1.015000,979466,1000.00,12,0,1,-102.857,1.884,2.863,1079.441,-0.943,1.076
1.016000,979467,1000.00,12,0,1,-100.911,2.262,2.871,1078.912,-2.282,1.109
1.017000,979468,1000.00,12,0,1,-95.386,5.717,2.968,1081.795,0.869,1.115
1.018000,979469,1000.00,12,0,1,-98.893,2.475,2.984,1080.522,0.450,1.089
1.019000,979470,1000.00,12,0,1,-100.863,-2.743,3.005,1082.083,0.620,1.066
1.020000,979471,1000.00,12,0,1,-98.245,-0.364,2.998,1082.588,2.211,1.096
1.021000,979472,1000.00,12,0,1,-95.794,0.732,2.983,1081.963,0.576,1.054
1.022000,979473,1000.00,12,0,1,-93.128,2.513,2.993,1081.651,0.622,1.043
1.023000,979474,1000.00,12,0,1,-93.296,2.028,2.949,1081.627,0.128,1.043
1.024000,979475,1000.00,12,0,1,-94.617,0.153,2.739,1080.474,-0.593,1.043
1.025000,979476,1000.00,12,0,1,-95.530,-0.347,2.708,1079.345,-1.833,1.074
1.026000,979477,1000.00,12,0,1,-94.617,0.610,2.710,1079.225,-1.724,1.101
1.027000,979478,1000.00,12,0,1,-90.894,4.478,2.709,1079.969,-0.854,1.105
1.028000,979479,1000.00,12,0,1,-93.849,3.163,2.662,1081.315,0.377,1.102
1.029000,979480,1000.00,12,0,1,-107.613,-8.158,2.788,1080.282,-0.139,1.089
1.030000,979481,1000.00,12,0,1,-107.781,-9.267,3.032,1080.762,-0.450,1.062
1.031000,979482,1000.00,12,0,1,-106.219,-3.237,3.065,1081.627,0.844,1.061
1.032000,979483,1000.00,12,0,1,-103.841,-1.542,3.068,1081.915,0.670,1.064
1.033000,979484,1000.00,12,0,1,-101.583,2.314,3.074,1080.738,-0.151,1.024
1.034000,979485,1000.00,12,0,1,-99.325,3.263,2.990,1081.074,-0.406,0.984
1.035000,979486,1000.00,12,0,1,-97.788,4.205,2.934,1081.891,0.701,0.981
1.036000,979487,1000.00,12,0,1,-96.203,3.955,2.963,1081.675,0.402,0.944
1.037000,979488,1000.00,12,0,1,-96.011,2.683,2.964,1079.993,-0.970,0.930
1.038000,979489,1000.00,12,0,1,-91.351,4.355,3.019,1079.129,-1.807,0.955
1.039000,979490,1000.00,12,0,1,-94.834,1.175,3.022,1082.516,1.069,0.967
1.040000,979491,1000.00,12,0,1,-98.917,-5.332,3.110,1080.714,0.764,0.970
1.041000,979492,1000.00,12,0,1,-98.893,-5.265,3.198,1081.098,-0.466,0.972
1.042000,979493,1000.00,12,0,1,-99.181,-5.130,3.267,1080.546,0.451,0.970
1.043000,979494,1000.00,12,0,1,-97.740,-3.755,3.295,1079.825,-1.114,0.967
1.044000,979495,1000.00,12,0,1,-95.530,-0.575,3.195,1079.081,-1.003,0.951
1.045000,979496,1000.00,12,0,1,-92.576,2.164,3.137,1079.537,-0.920,0.959
1.046000,979497,1000.00,12,0,1,-96.467,0.615,3.138,1079.945,-0.059,0.957
1.047000,979498,1000.00,12,0,1,-103.337,-5.593,3.215,1079.129,-0.699,0.951
1.048000,979499,1000.00,12,0,1,-102.544,-3.666,3.241,1078.864,-1.085,0.963
1.049000,979500,1000.00,12,0,1,-101.415,-0.170,3.234,1079.681,-0.080,0.963
1.050000,979501,1000.00,12,0,1,-102.857,-0.398,3.218,1079.729,0.008,0.938
1.051000,979502,1000.00,12,0,1,-107.541,-3.044,3.237,1081.675,1.440,0.959
1.052000,979503,1000.00,12,0,1,-109.510,-4.551,3.272,1080.714,1.053,0.932
1.053000,979504,1000.00,12,0,1,-109.678,-3.064,3.287,1082.155,1.189,0.933
1.054000,979505,1000.00,12,0,1,-106.460,-0.264,3.286,1080.330,0.591,0.937
1.055000,979506,1000.00,12,0,1,-102.664,3.597,3.325,1080.666,-0.504,0.936
1.056000,979507,1000.00,12,0,1,-100.767,4.279,3.380,1081.627,1.267,0.950
1.057000,979508,1000.00,12,0,1,-97.572,5.366,3.463,1080.522,-0.012,0.949
1.058000,979509,1000.00,12,0,1,-97.980,4.095,3.502,1078.864,-1.410,0.968
1.059000,979510,1000.00,12,0,1,-93.440,4.834,3.560,1080.162,-0.364,0.962
1.060000,979511,1000.00,12,0,1,-89.021,8.325,3.749,1079.753,0.023,0.939
1.061000,979512,1000.00,12,0,1,-84.865,8.878,3.954,1079.225,-0.701,0.943
1.062000,979513,1000.00,12,0,1,-88.132,5.533,4.020,1079.801,0.028,0.943
1.063000,979514,1000.00,12,0,1,-90.102,0.661,4.011,1081.098,1.255,0.949
1.064000,979515,1000.00,12,0,1,-91.471,0.108,4.011,1079.969,0.462,0.950
1.065000,979516,1000.00,12,0,1,-101.031,-7.527,4.141,1080.210,0.103,0.941
1.066000,979517,1000.00,12,0,1,-105.138,-11.232,4.424,1081.651,1.496,0.909
1.067000,979518,1000.00,12,0,1,-104.466,-7.079,4.463,1081.339,1.180,0.916
1.068000,979519,1000.00,12,0,1,-103.217,-4.162,4.488,1079.681,-0.659,0.919
1.069000,979520,1000.00,12,0,1,-102.760,-1.201,4.475,1080.786,-0.090,0.914
1.070000,979521,1000.00,12,0,1,-101.631,0.574,4.475,1077.615,-1.969,0.903
1.071000,979522,1000.00,12,0,1,-102.448,1.334,4.478,1078.720,-2.269,0.955
1.072000,979523,1000.00,12,0,1,-103.553,0.159,4.464,1079.393,-0.072,0.951
1.073000,979524,1000.00,12,0,1,-101.295,2.036,4.464,1080.090,-0.263,0.952
1.074000,979525,1000.00,12,0,1,-98.557,4.171,4.503,1081.579,1.524,0.972
1.075000,979526,1000.00,12,0,1,-100.863,1.429,4.507,1079.273,-0.292,0.938
1.076000,979527,1000.00,12,0,1,-99.926,0.008,4.506,1079.201,-1.186,0.921
1.077000,979528,1000.00,12,0,1,-101.463,-1.264,4.465,1080.906,1.100,0.926
1.078000,979529,1000.00,12,0,1,-101.391,-3.328,4.467,1081.146,1.107,0.938
1.079000,979530,1000.00,12,0,1,-98.197,-0.715,4.317,1081.026,1.034,0.949
1.080000,979531,1000.00,12,0,1,-96.083,0.525,4.114,1078.961,-0.722,0.952
1.081000,979532,1000.00,12,0,1,-95.578,0.261,4.089,1078.480,-1.429,0.966
1.082000,979533,1000.00,12,0,1,-94.497,0.686,4.084,1078.720,-0.649,0.966
1.083000,979534,1000.00,12,0,1,-94.882,0.417,4.071,1080.258,0.564,0.969
1.084000,979535,1000.00,12,0,1,-93.729,1.233,4.049,1079.681,0.658,0.972
1.085000,979536,1000.00,12,0,1,-94.329,1.663,4.012,1080.138,0.331,0.968
1.086000,979537,1000.00,12,0,1,-96.803,-0.097,3.973,1077.952,-0.782,0.973
1.087000,979538,1000.00,12,0,1,-97.308,0.118,3.955,1078.840,-1.063,0.974
1.088000,979539,1000.00,12,0,1,-99.662,-0.254,3.906,1080.642,1.429,0.962
1.089000,979540,1000.00,12,0,1,-101.728,-1.590,3.909,1080.738,1.113,0.963
1.090000,979541,1000.00,12,0,1,-103.169,-1.301,3.840,1081.939,1.724,0.987
1.091000,979542,1000.00,12,0,1,-103.265,-0.882,3.770,1081.723,1.644,1.012
1.092000,979543,1000.00,12,0,1,-102.857,0.372,3.699,1079.321,-0.989,1.020
1.093000,979544,1000.00,12,0,1,-101.199,1.547,3.668,1079.441,-1.174,1.021
1.094000,979545,1000.00,12,0,1,-99.902,2.511,3.684,1079.129,-0.945,1.020
1.095000,979546,1000.00,12,0,1,-95.842,4.423,3.724,1081.050,0.329,1.013
1.096000,979547,1000.00,12,0,1,-93.512,5.600,3.806,1081.026,1.074,1.024
1.097000,979548,1000.00,12,0,1,-94.762,2.330,3.738,1078.840,-1.246,1.034
1.098000,979549,1000.00,12,0,1,-100.478,-3.981,3.744,1080.017,-0.447,1.025
1.099000,979550,1000.00,12,0,1,-102.808,-7.761,3.902,1080.786,0.957,1.034
1.100000,979551,1000.00,12,0,1,-99.349,-4.589,3.955,1076.799,-2.354,1.086
1.101000,979552,1000.00,12,0,1,-95.362,-0.651,3.933,1079.513,-0.910,1.075
1.102000,979553,1000.00,12,0,1,-93.921,0.618,3.881,1081.531,2.457,1.119
1.103000,979554,1000.00,12,0,1,-93.585,0.824,3.858,1081.363,1.414,1.125
1.104000,979555,1000.00,12,0,1,-92.095,2.019,3.868,1080.954,1.139,1.133
1.105000,979556,1000.00,12,0,1,-91.615,3.118,3.860,1079.897,-0.113,1.131
1.106000,979557,1000.00,12,0,1,-95.266,0.447,3.813,1078.144,-1.668,1.141
1.107000,979558,1000.00,12,0,1,-104.106,-6.079,3.834,1080.546,0.002,1.141
1.108000,979559,1000.00,12,0,1,-101.487,-4.085,3.834,1081.819,1.811,1.153
1.109000,979560,1000.00,12,0,1,-100.527,0.915,3.775,1080.234,-0.008,1.151
1.110000,979561,1000.00,12,0,1,-103.265,-1.669,3.594,1079.633,-0.949,1.159
1.111000,979562,1000.00,12,0,1,-105.331,-2.000,3.380,1079.393,-0.874,1.162
1.112000,979563,1000.00,12,0,1,-104.346,-0.983,3.291,1080.017,-0.578,1.164
1.113000,979564,1000.00,12,0,1,-102.232,1.539,3.297,1079.801,-0.257,1.151
1.114000,979565,1000.00,12,0,1,-97.668,4.749,3.364,1078.768,-1.371,1.166
1.115000,979566,1000.00,12,0,1,-98.533,3.806,3.237,1078.624,-1.250,1.179
1.116000,979567,1000.00,12,0,1,-97.019,2.338,2.839,1077.904,-1.497,1.179
1.117000,979568,1000.00,12,0,1,-94.449,3.810,2.711,1078.720,-0.777,1.172
1.118000,979569,1000.00,12,0,1,-96.035,0.858,2.649,1079.969,0.841,1.175
1.119000,979570,1000.00,12,0,1,-100.454,-4.449,2.717,1080.234,1.077,1.184
1.120000,979571,1000.00,12,0,1,-98.557,-4.063,2.776,1079.249,0.293,1.152
1.121000,979572,1000.00,12,0,1,-95.338,-0.589,2.771,1078.264,-0.703,1.111
1.122000,979573,1000.00,12,0,1,-94.930,-0.278,2.771,1076.582,-1.805,1.140
1.123000,979574,1000.00,12,0,1,-94.377,-0.023,2.756,1077.471,-1.197,1.152
1.124000,979575,1000.00,12,0,1,-95.050,0.202,2.693,1078.961,0.809,1.137
1.125000,979576,1000.00,12,0,1,-95.266,0.099,2.685,1077.087,-0.576,1.139
1.126000,979577,1000.00,12,0,1,-97.019,0.073,2.685,1078.672,0.065,1.127
1.127000,979578,1000.00,12,0,1,-99.662,-1.648,2.689,1078.961,1.350,1.132
1.128000,979579,1000.00,12,0,1,-100.791,-1.258,2.654,1076.943,-1.025,1.131
1.129000,979580,1000.00,12,0,1,-101.415,-0.533,2.653,1079.153,0.617,1.125
1.130000,979581,1000.00,12,0,1,-102.520,-0.364,2.652,1080.402,2.317,1.167
1.131000,979582,1000.00,12,0,1,-104.418,-1.197,2.657,1080.834,1.930,1.181
1.132000,979583,1000.00,12,0,1,-106.988,-2.841,2.686,1079.873,1.222,1.190
1.133000,979584,1000.00,12,0,1,-105.355,-1.495,2.694,1078.888,-0.293,1.188
1.134000,979585,1000.00,12,0,1,-101.343,2.385,2.709,1079.513,0.294,1.185
1.135000,979586,1000.00,12,0,1,-98.221,4.362,2.768,1078.624,-0.208,1.185
1.136000,979587,1000.00,12,0,1,-93.056,6.987,2.939,1079.873,0.337,1.181
1.137000,979588,1000.00,12,0,1,-90.222,8.033,3.151,1079.873,1.090,1.181
1.138000,979589,1000.00,12,0,1,-89.189,5.993,3.263,1079.705,0.274,1.164
1.139000,979590,1000.00,12,0,1,-93.993,0.503,3.256,1079.633,0.569,1.156
1.140000,979591,1000.00,12,0,1,-92.023,-1.125,3.255,1081.507,1.645,1.154
1.141000,979592,1000.00,12,0,1,-86.162,4.387,3.311,1079.705,0.794,1.136
1.142000,979593,1000.00,12,0,1,-91.327,-0.245,3.311,1078.961,-0.980,1.136
1.143000,979594,1000.00,12,0,1,-99.349,-8.486,3.515,1080.162,0.550,1.126
1.144000,979595,1000.00,12,0,1,-102.016,-9.608,3.752,1079.777,0.220,1.119
1.145000,979596,1000.00,12,0,1,-98.941,-5.248,3.773,1078.552,-1.064,1.128
1.146000,979597,1000.00,12,0,1,-97.932,-1.434,3.694,1078.240,-1.307,1.133
1.147000,979598,1000.00,12,0,1,-98.653,-1.124,3.683,1081.675,1.284,1.134
1.148000,979599,1000.00,12,0,1,-97.908,0.981,3.642,1080.546,1.310,1.147
1.149000,979600,1000.00,12,0,1,-99.109,1.187,3.477,1078.937,-1.503,1.159
1.150000,979601,1000.00,12,0,1,-101.824,-0.641,3.417,1078.576,-1.207,1.123
1.151000,979602,1000.00,12,0,1,-105.018,-2.678,3.437,1079.321,-0.923,1.123
1.152000,979603,1000.00,12,0,1,-103.385,-1.385,3.441,1078.720,-0.810,1.074
1.153000,979604,1000.00,12,0,1,-101.391,1.365,3.445,1081.387,0.762,1.061
1.154000,979605,1000.00,12,0,1,-100.791,1.063,3.436,1082.011,2.198,1.094
1.155000,979606,1000.00,12,0,1,-101.631,-0.166,3.408,1081.315,0.691,1.098
1.156000,979607,1000.00,12,0,1,-99.470,0.107,3.407,1082.155,1.269,1.087
1.157000,979608,1000.00,12,0,1,-98.172,0.949,3.300,1081.387,0.742,1.092
1.158000,979609,1000.00,12,0,1,-98.701,-0.937,3.252,1082.203,0.650,1.066
1.159000,979610,1000.00,12,0,1,-96.299,-0.059,3.249,1081.507,0.728,1.071
1.160000,979611,1000.00,12,0,1,-93.729,1.908,3.252,1080.594,-0.875,1.069
1.161000,979612,1000.00,12,0,1,-89.285,4.395,3.298,1081.579,0.271,1.063
1.162000,979613,1000.00,12,0,1,-85.442,7.509,3.462,1080.330,-0.590,1.063
1.163000,979614,1000.00,12,0,1,-83.880,7.539,3.616,1081.507,-0.189,1.063
1.164000,979615,1000.00,12,0,1,-90.390,2.018,3.565,1081.170,0.332,1.046
1.165000,979616,1000.00,12,0,1,-94.978,-3.467,3.558,1081.339,-0.378,1.032
1.166000,979617,1000.00,12,0,1,-97.620,-3.789,3.583,1080.234,-0.677,1.015
1.167000,979618,1000.00,12,0,1,-100.863,-5.403,3.623,1079.081,-2.229,1.057
1.168000,979619,1000.00,12,0,1,-100.094,-3.252,3.651,1078.744,-2.084,1.091
1.169000,979620,1000.00,12,0,1,-100.935,-1.549,3.603,1079.897,-1.088,1.091
1.170000,979621,1000.00,12,0,1,-102.424,-2.320,3.572,1081.627,0.680,1.095
1.171000,979622,1000.00,12,0,1,-101.439,-0.384,3.571,1080.090,-0.336,1.091
1.172000,979623,1000.00,12,0,1,-100.238,1.020,3.574,1081.747,0.071,1.061
1.173000,979624,1000.00,12,0,1,-99.614,1.429,3.579,1082.131,1.416,1.066
1.174000,979625,1000.00,12,0,1,-101.752,-0.862,3.581,1080.882,-0.540,1.063
1.175000,979626,1000.00,12,0,1,-101.463,-2.026,3.593,1078.840,-1.863,1.092
1.176000,979627,1000.00,12,0,1,-93.945,3.400,3.625,1079.873,-1.452,1.111
1.177000,979628,1000.00,12,0,1,-93.344,3.997,3.661,1080.402,0.038,1.095
1.178000,979629,1000.00,12,0,1,-92.576,1.269,3.661,1080.666,-0.046,1.085
1.179000,979630,1000.00,12,0,1,-89.021,3.603,3.696,1081.339,0.828,1.088
1.180000,979631,1000.00,12,0,1,-87.099,3.659,3.731,1081.651,1.099,1.049
1.181000,979632,1000.00,12,0,1,-84.168,4.622,3.785,1080.690,0.258,1.013
1.182000,979633,1000.00,12,0,1,-90.582,-0.551,3.764,1080.210,-0.289,0.999
1.183000,979634,1000.00,12,0,1,-93.825,-5.650,3.842,1080.282,-0.149,0.999
1.184000,979635,1000.00,12,0,1,-94.065,-3.486,3.859,1080.282,0.014,0.998
1.185000,979636,1000.00,12,0,1,-91.831,-1.283,3.813,1080.041,-0.234,0.998
1.186000,979637,1000.00,12,0,1,-95.338,-1.433,3.689,1080.690,0.308,0.998
1.187000,979638,1000.00,12,0,1,-96.635,-2.895,3.533,1079.537,-0.431,0.988
1.188000,979639,1000.00,12,0,1,-95.939,0.190,3.430,1081.146,0.295,0.988
1.189000,979640,1000.00,12,0,1,-94.689,1.872,3.440,1082.708,2.185,1.032
1.190000,979641,1000.00,12,0,1,-95.194,2.443,3.453,1082.035,1.110,1.017
1.191000,979642,1000.00,12,0,1,-93.849,3.125,3.426,1080.906,-0.208,1.012
1.192000,979643,1000.00,12,0,1,-92.576,4.124,3.475,1079.177,-1.715,1.031
1.193000,979644,1000.00,12,0,1,-94.978,1.376,3.267,1079.441,-1.749,1.057
1.194000,979645,1000.00,12,0,1,-98.461,-3.153,3.004,1080.522,-0.225,1.057
1.195000,979646,1000.00,12,0,1,-95.674,-1.935,2.924,1079.393,-1.007,1.056
1.196000,979647,1000.00,12,0,1,-92.504,0.537,2.918,1080.690,-0.211,1.040
1.197000,979648,1000.00,12,0,1,-92.864,-0.939,2.917,1081.819,1.406,1.044
1.198000,979649,1000.00,12,0,1,-91.231,-1.337,2.919,1081.987,1.204,1.041
1.199000,979650,1000.00,12,0,1,-92.936,-2.731,2.940,1080.402,0.031,1.019
1.200000,979651,1000.00,12,0,1,-89.861,-2.205,2.955,1082.395,0.966,1.014
1.201000,979652,1000.00,12,0,1,-89.261,-0.147,2.931,1080.378,0.420,1.007
1.202000,979653,1000.00,12,0,1,-89.045,-1.401,2.931,1079.561,-1.582,1.026
1.203000,979654,1000.00,12,0,1,-89.981,-0.887,2.927,1081.194,0.628,1.024
1.204000,979655,1000.00,12,0,1,-90.438,-1.369,2.930,1078.744,-1.125,0.988
1.205000,979656,1000.00,12,0,1,-95.650,-3.783,2.978,1079.009,-1.685,1.012
1.206000,979657,1000.00,12,0,1,-98.245,-5.692,3.085,1079.801,0.105,0.996
1.207000,979658,1000.00,12,0,1,-96.587,-1.815,3.093,1079.417,-0.633,0.994
1.208000,979659,1000.00,12,0,1,-97.140,-0.159,3.090,1080.762,0.659,0.995
1.209000,979660,1000.00,12,0,1,-97.019,0.561,3.091,1080.570,0.663,0.994
1.210000,979661,1000.00,12,0,1,-97.932,1.385,3.086,1079.609,-0.502,0.988
1.211000,979662,1000.00,12,0,1,-96.251,2.232,3.039,1081.291,0.679,0.992
1.212000,979663,1000.00,12,0,1,-95.314,3.957,2.902,1080.570,0.584,0.992
1.213000,979664,1000.00,12,0,1,-95.650,2.298,2.718,1080.378,-0.390,0.993
1.214000,979665,1000.00,12,0,1,-98.437,-0.417,2.704,1080.138,-0.101,0.992
1.215000,979666,1000.00,12,0,1,-93.080,1.671,2.669,1080.474,-0.199,0.991
1.216000,979667,1000.00,12,0,1,-88.949,5.748,2.738,1079.729,-0.359,0.988
1.217000,979668,1000.00,12,0,1,-91.927,0.900,2.633,1081.026,0.269,0.937
1.218000,979669,1000.00,12,0,1,-98.317,-5.977,2.727,1079.081,-0.441,0.892
1.219000,979670,1000.00,12,0,1,-97.596,-6.804,2.883,1080.330,-0.439,0.881
1.220000,979671,1000.00,12,0,1,-93.825,-2.474,2.886,1082.516,2.469,0.942
1.221000,979672,1000.00,12,0,1,-90.726,0.299,2.885,1083.717,2.943,1.029
1.222000,979673,1000.00,12,0,1,-90.822,0.648,2.883,1081.435,1.106,1.041
1.223000,979674,1000.00,12,0,1,-90.438,0.803,2.878,1078.912,-1.789,1.052
1.224000,979675,1000.00,12,0,1,-87.892,3.428,2.916,1080.402,-0.635,1.053
1.225000,979676,1000.00,12,0,1,-82.751,8.150,3.123,1081.387,0.958,1.029
1.226000,979677,1000.00,12,0,1,-80.565,10.341,3.415,1081.867,0.785,1.014
1.227000,979678,1000.00,12,0,1,-87.219,4.577,3.429,1081.507,0.751,1.020
1.228000,979679,1000.00,12,0,1,-97.188,-4.803,3.491,1079.921,-1.085,1.031
1.229000,979680,1000.00,12,0,1,-100.142,-6.839,3.587,1079.561,-1.430,1.044
1.230000,979681,1000.00,12,0,1,-98.605,-3.617,3.586,1079.009,-1.647,1.059
1.231000,979682,1000.00,12,0,1,-96.827,-0.854,3.528,1079.681,-1.145,1.070
1.232000,979683,1000.00,12,0,1,-98.413,-1.449,3.533,1082.155,1.175,1.082
1.233000,979684,1000.00,12,0,1,-95.194,0.253,3.441,1080.882,0.499,1.085
1.234000,979685,1000.00,12,0,1,-95.794,0.736,3.408,1080.041,-1.069,1.095
1.235000,979686,1000.00,12,0,1,-99.422,-4.199,3.454,1081.098,0.183,1.095
1.236000,979687,1000.00,12,0,1,-95.146,-1.687,3.456,1079.969,-0.556,1.097
1.237000,979688,1000.00,12,0,1,-92.576,1.028,3.435,1080.330,-0.672,1.099
1.238000,979689,1000.00,12,0,1,-91.615,-0.134,3.435,1080.690,0.260,1.099
1.239000,979690,1000.00,12,0,1,-89.453,1.102,3.428,1079.969,-0.515,1.057
1.240000,979691,1000.00,12,0,1,-90.294,-0.395,3.411,1080.162,-0.252,1.046
1.241000,979692,1000.00,12,0,1,-87.699,0.556,3.384,1081.963,1.311,1.062
1.242000,979693,1000.00,12,0,1,-86.739,2.099,3.346,1080.546,0.601,1.037
1.243000,979694,1000.00,12,0,1,-90.390,-1.380,3.346,1078.576,-1.680,1.035
1.244000,979695,1000.00,12,0,1,-90.390,-1.441,3.323,1078.072,-1.744,1.064
1.245000,979696,1000.00,12,0,1,-88.300,1.784,3.321,1079.057,-0.715,1.059
1.246000,979697,1000.00,12,0,1,-90.942,0.757,3.322,1080.906,1.165,1.071
1.247000,979698,1000.00,12,0,1,-94.906,-2.113,3.333,1080.954,1.409,1.071
1.248000,979699,1000.00,12,0,1,-96.059,-1.935,3.338,1081.627,1.350,1.075
1.249000,979700,1000.00,12,0,1,-95.987,-0.381,3.316,1080.810,0.932,1.083
1.250000,979701,1000.00,12,0,1,-96.299,0.337,3.302,1080.954,0.202,1.075
1.251000,979702,1000.00,12,0,1,-96.083,0.967,3.305,1082.371,1.605,1.097
1.252000,979703,1000.00,12,0,1,-94.906,2.017,3.311,1082.299,1.299,1.089
1.253000,979704,1000.00,12,0,1,-93.056,3.141,3.338,1081.267,0.057,1.086
1.254000,979705,1000.00,12,0,1,-92.095,3.093,3.361,1080.330,-0.916,1.082
1.255000,979706,1000.00,12,0,1,-92.936,1.052,3.322,1080.618,-0.789,1.061
1.256000,979707,1000.00,12,0,1,-91.014,0.802,3.225,1081.987,0.565,1.064
1.257000,979708,1000.00,12,0,1,-87.243,2.960,3.242,1080.354,-0.493,1.062
1.258000,979709,1000.00,12,0,1,-83.472,4.433,3.302,1080.450,-1.028,1.068
1.259000,979710,1000.00,12,0,1,-79.436,6.051,3.410,1081.074,0.191,1.064
1.260000,979711,1000.00,12,0,1,-83.832,1.378,3.410,1080.858,-0.126,1.062
1.261000,979712,1000.00,12,0,1,-84.361,-2.124,3.409,1080.738,-0.125,1.058
1.262000,979713,1000.00,12,0,1,-90.174,-5.177,3.441,1081.819,0.721,1.060
1.263000,979714,1000.00,12,0,1,-88.997,-6.233,3.537,1081.627,0.800,1.064
1.264000,979715,1000.00,12,0,1,-86.763,-0.778,3.539,1079.705,-1.013,1.074
1.265000,979716,1000.00,12,0,1,-85.682,0.019,3.531,1080.786,-0.508,1.076
1.266000,979717,1000.00,12,0,1,-90.198,-1.579,3.443,1080.234,-0.129,1.075
1.267000,979718,1000.00,12,0,1,-88.901,-1.100,3.444,1079.657,-1.292,1.090
1.268000,979719,1000.00,12,0,1,-85.898,3.906,3.384,1079.321,-1.011,1.097
1.269000,979720,1000.00,12,0,1,-83.856,5.623,3.341,1079.753,-0.890,1.103
1.270000,979721,1000.00,12,0,1,-84.721,5.000,3.397,1081.267,0.675,1.050
1.271000,979722,1000.00,12,0,1,-92.528,-1.751,3.405,1081.723,1.113,0.977
1.272000,979723,1000.00,12,0,1,-96.731,-7.023,3.546,1079.273,-1.030,0.975
1.273000,979724,1000.00,12,0,1,-97.740,-6.367,3.657,1078.840,-1.884,0.979
1.274000,979725,1000.00,12,0,1,-96.179,-5.563,3.709,1079.993,-0.367,0.976
1.275000,979726,1000.00,12,0,1,-92.119,-1.393,3.531,1081.675,1.103,0.979
1.276000,979727,1000.00,12,0,1,-86.787,2.176,3.229,1082.347,1.821,1.006
1.277000,979728,1000.00,12,0,1,-86.787,1.896,3.174,1082.347,1.497,1.023
1.278000,979729,1000.00,12,0,1,-75.689,7.485,3.276,1080.666,0.031,1.011
1.279000,979730,1000.00,12,0,1,-80.709,5.494,3.225,1081.867,0.444,0.993
1.280000,979731,1000.00,12,0,1,-84.529,-3.968,3.234,1080.954,0.482,0.968
1.281000,979732,1000.00,12,0,1,-82.055,-0.183,3.232,1081.915,0.352,0.955
1.282000,979733,1000.00,12,0,1,-85.898,-3.696,3.267,1080.426,0.095,0.941
1.283000,979734,1000.00,12,0,1,-87.099,-5.127,3.346,1081.603,-0.060,0.938
1.284000,979735,1000.00,12,0,1,-86.691,-2.581,3.365,1081.098,0.666,0.931
1.285000,979736,1000.00,12,0,1,-89.357,-3.912,3.358,1080.762,-0.540,0.933
1.286000,979737,1000.00,12,0,1,-84.913,0.916,3.352,1081.146,0.213,0.931
1.287000,979738,1000.00,12,0,1,-82.919,4.928,3.420,1080.162,-0.629,0.930
1.288000,979739,1000.00,12,0,1,-83.904,4.086,3.469,1080.162,-0.976,0.939
1.289000,979740,1000.00,12,0,1,-91.543,-1.369,3.471,1081.243,0.315,0.938
1.290000,979741,1000.00,12,0,1,-94.882,-5.082,3.544,1080.306,-0.516,0.940
1.291000,979742,1000.00,12,0,1,-96.971,-4.700,3.605,1080.570,-0.564,0.925
1.292000,979743,1000.00,12,0,1,-98.461,-5.674,3.681,1081.026,0.026,0.921
1.293000,979744,1000.00,12,0,1,-94.617,-1.893,3.686,1081.915,0.605,0.894
1.294000,979745,1000.00,12,0,1,-91.687,1.482,3.686,1080.882,-0.077,0.859
1.295000,979746,1000.00,12,0,1,-89.117,2.215,3.691,1082.131,0.315,0.854
1.296000,979747,1000.00,12,0,1,-85.826,4.237,3.737,1081.627,0.585,0.842
1.297000,979748,1000.00,12,0,1,-81.983,5.428,3.804,1082.420,0.385,0.820
1.298000,979749,1000.00,12,0,1,-81.838,4.382,3.844,1080.041,-0.730,0.804
1.299000,979750,1000.00,12,0,1,-85.033,-0.587,3.845,1079.105,-2.455,0.866
1.300000,979751,1000.00,12,0,1,-86.546,-3.025,3.868,1079.297,-1.294,0.885
1.301000,979752,1000.00,12,0,1,-86.330,-2.947,3.888,1079.705,-0.873,0.864
1.302000,979753,1000.00,12,0,1,-83.256,-0.241,3.878,1080.570,0.221,0.845
1.303000,979754,1000.00,12,0,1,-80.661,2.891,3.874,1081.987,1.562,0.873
1.304000,979755,1000.00,12,0,1,-81.478,2.490,3.865,1082.371,1.851,0.902
1.305000,979756,1000.00,12,0,1,-86.210,-0.907,3.864,1081.218,0.753,0.902
1.306000,979757,1000.00,12,0,1,-89.573,-3.367,3.892,1080.114,-0.634,0.903
1.307000,979758,1000.00,12,0,1,-93.657,-4.690,3.926,1080.978,0.111,0.900
1.308000,979759,1000.00,12,0,1,-91.255,-2.007,3.886,1080.282,-0.215,0.889
1.309000,979760,1000.00,12,0,1,-89.333,2.514,3.807,1079.921,-0.878,0.897
1.310000,979761,1000.00,12,0,1,-88.973,2.714,3.821,1079.561,-0.891,0.906
1.311000,979762,1000.00,12,0,1,-92.095,0.887,3.812,1080.882,-0.015,0.906
1.312000,979763,1000.00,12,0,1,-90.726,0.667,3.742,1082.131,1.392,0.921
1.313000,979764,1000.00,12,0,1,-87.435,3.912,3.678,1082.059,1.070,0.927
1.314000,979765,1000.00,12,0,1,-88.228,2.230,3.690,1082.275,0.891,0.924
1.315000,979766,1000.00,12,0,1,-88.684,-0.086,3.690,1081.675,0.410,0.923
1.316000,979767,1000.00,12,0,1,-88.012,-0.411,3.684,1082.203,0.339,0.924
1.317000,979768,1000.00,12,0,1,-85.682,-0.091,3.681,1081.915,0.486,0.908
1.318000,979769,1000.00,12,0,1,-84.265,0.569,3.640,1079.921,-1.478,0.921
1.319000,979770,1000.00,12,0,1,-83.712,-0.508,3.553,1081.122,-0.654,0.917
1.320000,979771,1000.00,12,0,1,-79.052,2.433,3.499,1082.540,1.214,0.928
1.321000,979772,1000.00,12,0,1,-78.091,3.359,3.522,1082.756,1.161,0.929
1.322000,979773,1000.00,12,0,1,-84.289,-2.656,3.400,1081.987,0.522,0.921
1.323000,979774,1000.00,12,0,1,-84.697,-3.879,3.324,1082.059,0.198,0.882
1.324000,979775,1000.00,12,0,1,-83.015,-0.375,3.230,1081.747,0.167,0.881
1.325000,979776,1000.00,12,0,1,-84.216,-0.544,3.225,1078.744,-2.324,0.927
1.326000,979777,1000.00,12,0,1,-85.057,-0.258,3.210,1079.105,-2.470,0.957
1.327000,979778,1000.00,12,0,1,-87.820,-1.081,3.203,1080.738,-0.111,0.933
1.328000,979779,1000.00,12,0,1,-92.528,-4.073,3.077,1081.435,0.372,0.934
1.329000,979780,1000.00,12,0,1,-94.786,-4.766,3.053,1081.339,0.404,0.934
1.330000,979781,1000.00,12,0,1,-92.215,-1.298,3.007,1080.114,-0.798,0.938
1.331000,979782,1000.00,12,0,1,-92.143,0.469,3.007,1079.921,-1.165,0.951
1.332000,979783,1000.00,12,0,1,-89.837,1.571,2.970,1080.978,-0.067,0.951
1.333000,979784,1000.00,12,0,1,-87.940,3.666,2.926,1079.753,-0.809,0.958
1.334000,979785,1000.00,12,0,1,-86.739,2.996,2.934,1081.050,-0.279,0.954
1.335000,979786,1000.00,12,0,1,-83.160,4.603,2.954,1082.179,1.388,0.971
1.336000,979787,1000.00,12,0,1,-81.502,4.600,3.022,1081.867,0.712,0.976
1.337000,979788,1000.00,12,0,1,-79.316,3.833,2.990,1081.795,0.558,0.975
1.338000,979789,1000.00,12,0,1,-85.610,-1.972,2.947,1081.459,0.266,0.966
1.339000,979790,1000.00,12,0,1,-85.898,-5.726,3.050,1079.801,-1.093,0.977
1.340000,979791,1000.00,12,0,1,-79.484,0.958,2.967,1080.762,-0.498,0.977
1.341000,979792,1000.00,12,0,1,-77.827,2.226,2.909,1080.762,0.270,0.975
1.342000,979793,1000.00,12,0,1,-78.211,1.212,2.801,1079.249,-1.166,0.989
1.343000,979794,1000.00,12,0,1,-81.070,-0.793,2.791,1078.744,-1.441,1.006
1.344000,979795,1000.00,12,0,1,-88.732,-6.745,2.942,1078.792,-0.967,1.015
1.345000,979796,1000.00,12,0,1,-89.165,-6.573,3.069,1080.882,0.788,1.020
1.346000,979797,1000.00,12,0,1,-89.213,-3.202,3.044,1081.122,1.652,1.043
1.347000,979798,1000.00,12,0,1,-89.813,-2.491,2.967,1081.267,1.016,1.052
1.348000,979799,1000.00,12,0,1,-90.294,-0.832,2.904,1080.114,0.389,1.048
1.349000,979800,1000.00,12,0,1,-92.215,-1.211,2.907,1078.504,-1.533,1.012
1.350000,979801,1000.00,12,0,1,-90.894,0.331,2.876,1078.432,-1.429,1.016
1.351000,979802,1000.00,12,0,1,-90.174,2.195,2.863,1081.507,1.113,1.021
1.352000,979803,1000.00,12,0,1,-90.726,1.039,2.866,1081.435,1.713,1.049
1.353000,979804,1000.00,12,0,1,-87.820,2.853,2.866,1079.801,-0.491,1.027
1.354000,979805,1000.00,12,0,1,-82.655,6.230,2.977,1080.426,-0.081,0.993
1.355000,979806,1000.00,12,0,1,-83.856,4.264,3.035,1080.906,0.595,0.991
1.356000,979807,1000.00,12,0,1,-82.175,2.287,3.015,1081.026,0.437,0.989
1.357000,979808,1000.00,12,0,1,-78.932,4.278,3.002,1082.131,1.362,1.008
1.358000,979809,1000.00,12,0,1,-78.331,2.684,3.013,1079.921,-0.249,1.008
1.359000,979810,1000.00,12,0,1,-77.347,1.798,3.003,1080.306,-0.717,1.005
1.360000,979811,1000.00,12,0,1,-83.015,-3.222,3.013,1080.426,0.323,0.998
1.361000,979812,1000.00,12,0,1,-81.406,-4.146,3.067,1081.531,0.699,1.003
1.362000,979813,1000.00,12,0,1,-76.866,1.961,3.078,1079.273,-0.333,0.985
1.363000,979814,1000.00,12,0,1,-80.325,-0.703,3.029,1079.273,-1.327,0.991
1.364000,979815,1000.00,12,0,1,-82.559,-2.701,3.037,1080.666,0.783,0.989
1.365000,979816,1000.00,12,0,1,-83.976,-2.110,3.052,1079.465,-0.201,0.988
1.366000,979817,1000.00,12,0,1,-89.837,-5.542,3.150,1077.639,-1.930,1.024
1.367000,979818,1000.00,12,0,1,-92.335,-6.540,3.283,1080.642,0.472,1.024
1.368000,979819,1000.00,12,0,1,-93.032,-4.452,3.342,1080.666,1.418,1.022
1.369000,979820,1000.00,12,0,1,-92.744,-2.726,3.363,1080.090,0.002,1.018
1.370000,979821,1000.00,12,0,1,-86.763,3.240,3.377,1081.315,1.077,1.015
1.371000,979822,1000.00,12,0,1,-82.127,8.193,3.538,1079.801,-0.031,1.001
1.372000,979823,1000.00,12,0,1,-80.157,8.242,3.706,1078.744,-1.676,1.026
1.373000,979824,1000.00,12,0,1,-81.670,5.586,3.750,1080.834,0.356,1.027
1.374000,979825,1000.00,12,0,1,-88.925,-2.554,3.767,1081.363,1.052,1.038
1.375000,979826,1000.00,12,0,1,-87.483,-4.026,3.809,1081.579,0.828,0.991
1.376000,979827,1000.00,12,0,1,-82.967,0.435,3.809,1080.450,-0.013,0.928
1.377000,979828,1000.00,12,0,1,-80.733,0.797,3.808,1082.780,1.222,0.944
1.378000,979829,1000.00,12,0,1,-81.574,-0.636,3.765,1080.810,0.651,0.947
1.379000,979830,1000.00,12,0,1,-81.262,-1.910,3.714,1080.354,-1.157,0.959
1.380000,979831,1000.00,12,0,1,-81.454,-1.885,3.719,1080.354,-0.067,0.952
1.381000,979832,1000.00,12,0,1,-84.000,-4.034,3.762,1079.585,-1.051,0.950
1.382000,979833,1000.00,12,0,1,-82.943,-3.011,3.779,1080.258,-0.251,0.950
1.383000,979834,1000.00,12,0,1,-84.697,-2.294,3.758,1081.555,1.130,0.957
1.384000,979835,1000.00,12,0,1,-86.571,-3.573,3.768,1081.243,0.873,0.964
1.385000,979836,1000.00,12,0,1,-86.931,-1.658,3.719,1080.474,0.065,0.944
1.386000,979837,1000.00,12,0,1,-86.282,0.146,3.661,1080.282,-0.309,0.939
1.387000,979838,1000.00,12,0,1,-86.354,1.843,3.630,1078.672,-1.324,0.955
1.388000,979839,1000.00,12,0,1,-86.883,2.083,3.631,1081.050,-0.067,0.954
1.389000,979840,1000.00,12,0,1,-87.483,2.240,3.554,1078.937,-0.405,0.943
1.390000,979841,1000.00,12,0,1,-87.267,2.507,3.569,1078.240,-2.551,1.007
1.391000,979842,1000.00,12,0,1,-86.498,2.992,3.580,1079.105,-0.617,1.010
1.392000,979843,1000.00,12,0,1,-83.280,4.826,3.641,1080.714,0.274,0.997
1.393000,979844,1000.00,12,0,1,-81.286,5.685,3.727,1082.323,1.988,1.016
1.394000,979845,1000.00,12,0,1,-80.854,4.052,3.648,1081.867,1.363,1.025
1.395000,979846,1000.00,12,0,1,-81.022,2.036,3.539,1080.546,-0.254,1.020
1.396000,979847,1000.00,12,0,1,-78.668,1.931,3.521,1079.945,-0.778,0.999
1.397000,979848,1000.00,12,0,1,-79.989,-0.007,3.503,1081.122,0.040,0.988
1.398000,979849,1000.00,12,0,1,-80.277,-2.470,3.519,1081.339,0.787,0.993
1.399000,979850,1000.00,12,0,1,-84.457,-5.532,3.600,1082.612,1.262,0.985
1.400000,979851,1000.00,12,0,1,-85.418,-7.604,3.757,1081.194,0.771,0.971
1.401000,979852,1000.00,12,0,1,-81.286,-2.575,3.762,1080.041,-1.096,0.970
1.402000,979853,1000.00,12,0,1,-78.139,1.186,3.763,1079.153,-1.143,0.953
1.403000,979854,1000.00,12,0,1,-83.928,-2.404,3.757,1080.017,-0.676,0.955
1.404000,979855,1000.00,12,0,1,-84.168,-3.302,3.682,1080.041,0.126,0.956
1.405000,979856,1000.00,12,0,1,-81.983,1.281,3.636,1082.155,1.365,0.971
1.406000,979857,1000.00,12,0,1,-80.878,2.864,3.645,1084.389,3.648,1.098
1.407000,979858,1000.00,12,0,1,-81.838,3.092,3.621,1082.083,1.405,1.099
1.408000,979859,1000.00,12,0,1,-84.120,1.392,3.606,1080.666,-0.920,1.106
1.409000,979860,1000.00,12,0,1,-91.687,-4.213,3.646,1080.786,-0.516,1.104
1.410000,979861,1000.00,12,0,1,-93.032,-5.940,3.714,1081.963,0.071,1.103
1.411000,979862,1000.00,12,0,1,-88.997,-0.847,3.669,1080.065,-0.954,1.107
1.412000,979863,1000.00,12,0,1,-81.094,5.645,3.745,1079.153,-2.620,1.166
1.413000,979864,1000.00,12,0,1,-77.202,8.817,3.946,1078.264,-2.490,1.204
1.414000,979865,1000.00,12,0,1,-87.219,-1.017,3.930,1078.912,-2.212,1.239
1.415000,979866,1000.00,12,0,1,-90.774,-7.859,4.073,1079.777,-0.638,1.242
1.416000,979867,1000.00,12,0,1,-85.778,-2.543,4.013,1081.651,0.777,1.216
1.417000,979868,1000.00,12,0,1,-79.821,1.767,3.913,1080.906,0.731,1.219
1.418000,979869,1000.00,12,0,1,-74.560,5.783,3.948,1079.897,-0.694,1.206
1.419000,979870,1000.00,12,0,1,-76.602,3.159,3.954,1079.177,-0.944,1.214
1.420000,979871,1000.00,12,0,1,-78.331,-0.421,3.928,1079.081,-0.931,1.211
1.421000,979872,1000.00,12,0,1,-83.208,-3.713,3.790,1082.155,1.678,1.234
1.422000,979873,1000.00,12,0,1,-82.775,-4.400,3.659,1080.954,1.650,1.234
1.423000,979874,1000.00,12,0,1,-81.238,-0.431,3.573,1079.897,-0.479,1.234
1.424000,979875,1000.00,12,0,1,-81.406,-0.142,3.555,1082.203,1.937,1.256
1.425000,979876,1000.00,12,0,1,-82.199,0.602,3.510,1082.083,1.940,1.280
1.426000,979877,1000.00,12,0,1,-84.385,-0.276,3.510,1079.801,-0.398,1.281
1.427000,979878,1000.00,12,0,1,-85.105,-0.203,3.508,1080.546,-0.234,1.270
1.428000,979879,1000.00,12,0,1,-81.862,3.457,3.541,1080.786,0.518,1.269
1.429000,979880,1000.00,12,0,1,-82.991,3.517,3.566,1081.747,0.760,1.263
1.430000,979881,1000.00,12,0,1,-84.168,1.506,3.562,1080.594,0.215,1.263
1.431000,979882,1000.00,12,0,1,-83.400,2.039,3.528,1081.363,-0.065,1.254
1.432000,979883,1000.00,12,0,1,-79.172,4.533,3.560,1080.210,-0.276,1.254
1.433000,979884,1000.00,12,0,1,-87.964,-2.242,3.560,1082.251,0.321,1.245
1.434000,979885,1000.00,12,0,1,-86.210,-5.203,3.599,1081.387,0.742,1.243
1.435000,979886,1000.00,12,0,1,-81.526,1.204,3.596,1079.825,-1.697,1.266
1.436000,979887,1000.00,12,0,1,-81.886,-1.129,3.599,1080.546,-0.741,1.270
1.437000,979888,1000.00,12,0,1,-81.046,-1.332,3.595,1081.387,0.201,1.256
1.438000,979889,1000.00,12,0,1,-80.421,-1.233,3.587,1082.564,1.017,1.264
1.439000,979890,1000.00,12,0,1,-81.094,-2.568,3.591,1083.284,1.837,1.290
1.440000,979891,1000.00,12,0,1,-79.556,-1.282,3.578,1084.677,2.344,1.282
1.441000,979892,1000.00,12,0,1,-78.427,-0.059,3.553,1081.363,0.118,1.279
1.442000,979893,1000.00,12,0,1,-78.764,0.203,3.487,1081.963,-1.039,1.287
1.443000,979894,1000.00,12,0,1,-76.842,1.752,3.402,1081.867,0.414,1.257
1.444000,979895,1000.00,12,0,1,-74.488,4.896,3.425,1080.186,-1.878,1.270
1.445000,979896,1000.00,12,0,1,-75.137,4.485,3.471,1081.170,-0.727,1.274
1.446000,979897,1000.00,12,0,1,-82.415,-0.910,3.462,1081.267,-0.193,1.269
1.447000,979898,1000.00,12,0,1,-89.765,-7.366,3.616,1081.098,-0.612,1.272
1.448000,979899,1000.00,12,0,1,-90.102,-6.187,3.704,1081.483,-0.023,1.267
1.449000,979900,1000.00,12,0,1,-86.979,-1.552,3.627,1081.603,-0.084,1.255
1.450000,979901,1000.00,12,0,1,-84.937,1.310,3.469,1081.507,-0.086,1.250
1.451000,979902,1000.00,12,0,1,-87.267,-0.222,3.450,1082.011,0.056,1.240
1.452000,979903,1000.00,12,0,1,-86.258,-0.562,3.446,1083.957,1.637,1.251
1.453000,979904,1000.00,12,0,1,-85.442,0.678,3.431,1083.212,1.091,1.257
1.454000,979905,1000.00,12,0,1,-82.007,1.812,3.409,1081.531,-1.020,1.265
1.455000,979906,1000.00,12,0,1,-80.637,2.932,3.429,1081.194,-1.340,1.265
1.456000,979907,1000.00,12,0,1,-79.124,1.868,3.415,1080.378,-1.763,1.182
1.457000,979908,1000.00,12,0,1,-79.965,0.622,3.388,1080.714,-1.530,1.185
1.458000,979909,1000.00,12,0,1,-79.124,-0.635,3.384,1080.642,-0.962,1.185
1.459000,979910,1000.00,12,0,1,-77.034,0.975,3.334,1081.627,-0.295,1.184
1.460000,979911,1000.00,12,0,1,-74.440,2.452,3.245,1080.450,-0.515,1.186
1.461000,979912,1000.00,12,0,1,-76.362,0.994,3.246,1078.888,-2.201,1.219
1.462000,979913,1000.00,12,0,1,-80.541,-2.999,3.174,1080.762,-0.303,1.162
1.463000,979914,1000.00,12,0,1,-78.115,-0.925,2.922,1080.306,0.196,1.108
1.464000,979915,1000.00,12,0,1,-79.148,0.713,2.920,1079.033,-1.300,1.078
1.465000,979916,1000.00,12,0,1,-80.685,-1.005,2.704,1079.441,-0.547,1.077
1.466000,979917,1000.00,12,0,1,-82.559,-0.535,2.681,1081.627,1.330,1.088
1.467000,979918,1000.00,12,0,1,-82.295,-0.188,2.670,1080.642,1.097,1.094
1.468000,979919,1000.00,12,0,1,-83.736,0.479,2.542,1080.186,-0.164,1.090
1.469000,979920,1000.00,12,0,1,-85.778,-1.353,2.510,1081.987,1.605,1.105
1.470000,979921,1000.00,12,0,1,-83.448,0.947,2.513,1082.516,2.021,1.134
1.471000,979922,1000.00,12,0,1,-81.406,3.207,2.499,1082.564,1.528,1.130
1.472000,979923,1000.00,12,0,1,-80.157,3.134,2.461,1081.699,0.698,1.110
1.473000,979924,1000.00,12,0,1,-74.752,6.328,2.617,1083.717,1.563,1.130
1.474000,979925,1000.00,12,0,1,-68.867,9.783,2.961,1081.747,0.730,1.101
1.475000,979926,1000.00,12,0,1,-69.156,7.408,3.139,1082.516,-0.258,1.067
1.476000,979927,1000.00,12,0,1,-68.627,4.134,3.193,1083.092,1.366,1.082
1.477000,979928,1000.00,12,0,1,-76.866,-3.372,3.228,1080.954,-1.117,1.093
1.478000,979929,1000.00,12,0,1,-81.070,-10.429,3.515,1080.234,-1.761,1.119
1.479000,979930,1000.00,12,0,1,-88.420,-13.958,4.001,1082.083,0.029,1.114
1.480000,979931,1000.00,12,0,1,-91.423,-17.145,4.673,1083.020,1.201,1.126
1.481000,979932,1000.00,12,0,1,-88.060,-10.517,4.896,1081.795,0.165,1.127
1.482000,979933,1000.00,12,0,1,-85.730,-5.908,4.925,1080.906,-0.955,1.134
1.483000,979934,1000.00,12,0,1,-82.487,-1.387,4.919,1081.387,-0.291,1.134
1.484000,979935,1000.00,12,0,1,-74.608,6.865,4.959,1080.930,-0.512,1.131
1.485000,979936,1000.00,12,0,1,-67.762,13.473,5.310,1079.825,-1.385,1.123
1.486000,979937,1000.00,12,0,1,-68.267,12.915,5.613,1080.041,-1.238,1.131
1.487000,979938,1000.00,12,0,1,-78.187,3.170,5.628,1080.762,-0.237,1.132
1.488000,979939,1000.00,12,0,1,-87.844,-6.111,5.691,1080.402,-0.465,1.124
1.489000,979940,1000.00,12,0,1,-82.943,-2.365,5.689,1078.480,-1.966,1.129
1.490000,979941,1000.00,12,0,1,-83.015,0.961,5.688,1081.507,0.039,1.079
1.491000,979942,1000.00,12,0,1,-85.321,-2.937,5.703,1080.546,0.647,1.083
1.492000,979943,1000.00,12,0,1,-95.002,-9.029,5.844,1082.107,0.332,1.074
1.493000,979944,1000.00,12,0,1,-97.692,-13.319,6.135,1081.843,1.449,1.091
1.494000,979945,1000.00,12,0,1,-95.410,-8.145,6.204,1081.435,-0.182,1.059
1.495000,979946,1000.00,12,0,1,-97.812,-9.174,6.307,1081.891,0.688,1.058
1.496000,979947,1000.00,12,0,1,-90.630,-3.543,6.325,1081.603,0.254,1.059
1.497000,979948,1000.00,12,0,1,-69.852,15.008,6.590,1079.561,-1.386,1.073
1.498000,979949,1000.00,12,0,1,-57.313,25.330,7.449,1080.426,-0.882,1.080
1.499000,979950,1000.00,12,0,1,-69.348,12.457,7.652,1080.810,0.190,1.081
1.500000,979951,1000.00,12,0,1,-76.650,-0.232,7.650,1081.170,0.364,1.082
1.501000,979952,1000.00,12,0,1,-76.001,1.263,7.652,1081.507,0.843,1.088
1.502000,979953,1000.00,12,0,1,-71.269,3.959,7.672,1082.011,1.238,1.078
1.503000,979954,1000.00,12,0,1,-70.645,5.941,7.717,1082.516,1.526,1.088
1.504000,979955,1000.00,12,0,1,-78.355,-1.259,7.715,1081.531,0.764,1.084
1.505000,979956,1000.00,12,0,1,-82.511,-5.155,7.738,1080.474,-0.623,1.071
1.506000,979957,1000.00,12,0,1,-85.826,-5.595,7.774,1080.234,-0.642,1.046
1.507000,979958,1000.00,12,0,1,-82.391,-2.416,7.781,1080.618,-0.408,1.025
1.508000,979959,1000.00,12,0,1,-80.613,2.279,7.787,1081.507,0.487,1.018
1.509000,979960,1000.00,12,0,1,-85.562,-2.069,7.791,1081.627,0.532,1.020
1.510000,979961,1000.00,12,0,1,-83.568,-0.809,7.784,1081.867,0.459,1.019
1.511000,979962,1000.00,12,0,1,-80.301,3.168,7.796,1081.363,0.019,0.971
1.512000,979963,1000.00,12,0,1,-80.373,2.166,7.790,1080.954,-0.647,0.974
1.513000,979964,1000.00,12,0,1,-76.386,3.985,7.810,1081.915,0.123,0.974
1.514000,979965,1000.00,12,0,1,-75.065,4.502,7.835,1080.906,-0.432,0.958
1.515000,979966,1000.00,12,0,1,-75.737,1.395,7.836,1081.074,-0.826,0.962
1.516000,979967,1000.00,12,0,1,-76.001,-0.284,7.836,1080.065,-0.973,0.954
1.517000,979968,1000.00,12,0,1,-77.683,-2.978,7.847,1079.153,-2.084,0.986
1.518000,979969,1000.00,12,0,1,-77.515,-3.994,7.867,1080.642,-0.397,0.987
1.519000,979970,1000.00,12,0,1,-75.713,-2.445,7.872,1080.882,0.364,0.962
1.520000,979971,1000.00,12,0,1,-75.737,-2.374,7.878,1080.762,0.063,0.919
1.521000,979972,1000.00,12,0,1,-77.010,-3.264,7.879,1080.090,-0.136,0.893
1.522000,979973,1000.00,12,0,1,-76.770,-2.613,7.875,1079.753,-0.598,0.892
1.523000,979974,1000.00,12,0,1,-77.443,-1.810,7.828,1081.002,0.693,0.869
1.524000,979975,1000.00,12,0,1,-79.869,-2.879,7.716,1079.945,0.184,0.864
1.525000,979976,1000.00,12,0,1,-79.292,-1.386,7.647,1081.483,0.768,0.870
1.526000,979977,1000.00,12,0,1,-80.854,-0.609,7.625,1080.354,0.760,0.855
1.527000,979978,1000.00,12,0,1,-81.286,-0.631,7.611,1078.624,-1.664,0.872
1.528000,979979,1000.00,12,0,1,-80.565,1.496,7.469,1079.393,-0.654,0.841
1.529000,979980,1000.00,12,0,1,-80.493,1.895,7.209,1080.570,0.502,0.844
1.530000,979981,1000.00,12,0,1,-83.160,0.080,6.789,1081.675,1.363,0.849
1.531000,979982,1000.00,12,0,1,-82.751,-0.414,6.624,1081.675,1.349,0.870
1.532000,979983,1000.00,12,0,1,-80.974,1.418,6.574,1079.633,-0.686,0.865
1.533000,979984,1000.00,12,0,1,-80.517,1.022,6.573,1079.633,-1.060,0.877
1.534000,979985,1000.00,12,0,1,-78.692,1.339,6.504,1081.531,0.810,0.881
1.535000,979986,1000.00,12,0,1,-75.545,3.021,6.233,1082.251,1.589,0.888
1.536000,979987,1000.00,12,0,1,-73.984,2.992,5.974,1081.026,0.324,0.872
1.537000,979988,1000.00,12,0,1,-72.398,2.657,5.969,1079.921,-0.829,0.879
1.538000,979989,1000.00,12,0,1,-72.879,1.183,5.909,1079.897,-0.782,0.884
1.539000,979990,1000.00,12,0,1,-71.389,0.851,5.900,1080.354,-0.127,0.839
1.540000,979991,1000.00,12,0,1,-71.461,0.874,5.900,1081.315,0.749,0.846
1.541000,979992,1000.00,12,0,1,-70.501,0.676,5.886,1079.945,-0.024,0.841
1.542000,979993,1000.00,12,0,1,-68.195,3.018,5.762,1080.882,0.103,0.839
1.543000,979994,1000.00,12,0,1,-69.516,2.229,5.455,1080.522,0.663,0.819
1.544000,979995,1000.00,12,0,1,-70.861,0.730,5.333,1081.026,0.292,0.820
1.545000,979996,1000.00,12,0,1,-69.612,2.420,5.184,1079.393,-0.327,0.816
1.546000,979997,1000.00,12,0,1,-68.795,3.635,5.185,1079.921,-0.807,0.823
1.547000,979998,1000.00,12,0,1,-72.398,1.131,4.733,1080.065,0.199,0.800
1.548000,979999,1000.00,12,0,1,-77.779,-3.691,3.138,1080.690,0.130,0.790
1.549000,980000,1000.00,12,0,1,-77.923,-3.622,2.646,1079.609,-0.309,0.791
1.550000,980001,1000.00,12,0,1,-77.539,-2.034,2.662,1080.906,0.046,0.789
1.551000,980002,1000.00,12,0,1,-84.072,-6.960,2.832,1079.825,-0.073,0.780
1.552000,980003,1000.00,12,0,1,-81.406,-6.141,2.909,1080.114,-0.729,0.767
1.553000,980004,1000.00,12,0,1,-73.647,2.178,2.802,1079.441,-0.548,0.740
1.554000,980005,1000.00,12,0,1,-68.363,5.518,2.903,1078.384,-1.791,0.775
1.555000,980006,1000.00,12,0,1,-72.326,1.413,2.817,1080.882,0.322,0.771
1.556000,980007,1000.00,12,0,1,-75.785,-4.604,2.781,1081.002,1.339,0.789
1.557000,980008,1000.00,12,0,1,-75.881,-4.864,2.845,1078.744,-1.237,0.806
1.558000,980009,1000.00,12,0,1,-74.008,-3.745,2.875,1080.810,0.441,0.805
1.559000,980010,1000.00,12,0,1,-68.291,0.891,2.863,1082.708,2.593,0.882
1.560000,980011,1000.00,12,0,1,-64.952,4.264,2.924,1079.249,-0.244,0.880
1.561000,980012,1000.00,12,0,1,-73.119,-2.742,2.915,1079.225,-1.328,0.900
1.562000,980013,1000.00,12,0,1,-71.341,-3.208,2.934,1079.801,0.317,0.896
1.563000,980014,1000.00,12,0,1,-69.180,1.901,2.892,1080.378,0.301,0.897
1.564000,980015,1000.00,12,0,1,-71.582,-0.329,2.822,1079.825,0.396,0.897
1.565000,980016,1000.00,12,0,1,-75.617,-2.397,2.835,1080.834,0.617,0.893
1.566000,980017,1000.00,12,0,1,-76.530,-2.508,2.857,1079.633,0.266,0.884
1.567000,980018,1000.00,12,0,1,-82.007,-4.626,2.900,1080.258,-0.128,0.833
1.568000,980019,1000.00,12,0,1,-82.727,-5.145,2.937,1081.507,1.475,0.857
1.569000,980020,1000.00,12,0,1,-85.442,-4.315,2.979,1079.321,-0.490,0.858
1.570000,980021,1000.00,12,0,1,-85.682,-4.557,3.030,1079.585,-1.057,0.871
1.571000,980022,1000.00,12,0,1,-83.015,-0.606,2.995,1080.378,0.364,0.872
1.572000,980023,1000.00,12,0,1,-79.388,2.572,2.995,1081.699,0.863,0.877
1.573000,980024,1000.00,12,0,1,-76.194,4.789,3.060,1081.819,1.399,0.894
1.574000,980025,1000.00,12,0,1,-73.071,6.201,3.157,1081.435,0.336,0.894
1.575000,980026,1000.00,12,0,1,-73.263,4.417,3.212,1081.074,0.137,0.888
1.576000,980027,1000.00,12,0,1,-70.837,4.069,3.262,1080.858,-0.312,0.883
1.577000,980028,1000.00,12,0,1,-72.807,1.719,3.270,1080.306,-0.623,0.855
1.578000,980029,1000.00,12,0,1,-74.584,-2.050,3.276,1082.275,0.748,0.857
1.579000,980030,1000.00,12,0,1,-75.377,-2.703,3.287,1081.170,0.565,0.858
1.580000,980031,1000.00,12,0,1,-71.005,0.328,3.287,1078.864,-2.059,0.885
1.581000,980032,1000.00,12,0,1,-69.996,2.596,3.307,1078.168,-2.302,0.923
1.582000,980033,1000.00,12,0,1,-71.437,0.754,3.303,1079.393,-0.970,0.928
1.583000,980034,1000.00,12,0,1,-73.455,-0.206,3.300,1080.065,0.149,0.917
1.584000,980035,1000.00,12,0,1,-72.807,0.780,3.296,1080.522,0.507,0.912
1.585000,980036,1000.00,12,0,1,-69.972,4.281,3.324,1078.744,-0.730,0.890
1.586000,980037,1000.00,12,0,1,-75.689,1.150,3.301,1081.315,0.680,0.894
1.587000,980038,1000.00,12,0,1,-84.240,-6.669,3.413,1081.747,2.102,0.935
1.588000,980039,1000.00,12,0,1,-81.574,-3.483,3.444,1079.465,-0.725,0.934
1.589000,980040,1000.00,12,0,1,-75.881,3.573,3.479,1079.825,-0.680,0.939
1.590000,980041,1000.00,12,0,1,-74.680,4.897,3.545,1080.474,0.244,0.933
1.591000,980042,1000.00,12,0,1,-79.532,0.289,3.544,1081.675,0.839,0.941
1.592000,980043,1000.00,12,0,1,-80.565,-2.341,3.533,1081.795,1.245,0.957
1.593000,980044,1000.00,12,0,1,-80.205,-1.689,3.527,1080.858,-0.134,0.953
1.594000,980045,1000.00,12,0,1,-76.482,0.013,3.526,1080.834,-0.193,0.952
1.595000,980046,1000.00,12,0,1,-74.584,1.659,3.517,1079.825,-0.927,0.960
1.596000,980047,1000.00,12,0,1,-71.437,2.109,3.492,1078.864,-1.795,0.986
1.597000,980048,1000.00,12,0,1,-69.924,2.836,3.511,1079.369,-1.114,0.999
1.598000,980049,1000.00,12,0,1,-72.711,-1.029,3.475,1080.402,0.133,0.999
1.599000,980050,1000.00,12,0,1,-73.479,-2.986,3.463,1079.273,-0.433,0.999
1.600000,980051,1000.00,12,0,1,-72.639,-1.814,3.461,1080.930,0.473,1.002
1.601000,980052,1000.00,12,0,1,-71.846,-1.060,3.321,1083.308,3.128,1.095
1.602000,980053,1000.00,12,0,1,-72.422,-0.551,3.207,1081.026,1.091,1.101
1.603000,980054,1000.00,12,0,1,-73.840,-1.279,3.197,1080.714,-0.165,1.099
1.604000,980055,1000.00,12,0,1,-73.287,0.238,3.101,1080.162,0.036,1.069
1.605000,980056,1000.00,12,0,1,-77.683,-1.621,3.103,1080.810,-0.116,1.068
1.606000,980057,1000.00,12,0,1,-88.012,-9.254,3.304,1082.564,1.777,1.081
1.607000,980058,1000.00,12,0,1,-93.464,-12.463,3.681,1080.954,0.340,1.068
1.608000,980059,1000.00,12,0,1,-90.918,-7.270,3.785,1080.666,-0.696,1.070
1.609000,980060,1000.00,12,0,1,-81.454,2.941,3.805,1080.642,-0.264,1.006
1.610000,980061,1000.00,12,0,1,-74.728,10.407,4.035,1079.993,-1.140,1.019
1.611000,980062,1000.00,12,0,1,-80.013,5.375,4.088,1079.465,-1.379,1.020
1.612000,980063,1000.00,12,0,1,-74.248,6.343,4.161,1079.729,-1.191,1.033
1.613000,980064,1000.00,12,0,1,-59.307,18.881,4.936,1081.315,0.340,1.033
1.614000,980065,1000.00,12,0,1,-62.310,14.525,5.347,1080.402,-0.031,1.031
1.615000,980066,1000.00,12,0,1,-71.630,0.882,5.337,1083.236,1.441,1.048
1.616000,980067,1000.00,12,0,1,-74.800,-4.007,5.356,1081.002,0.910,1.055
1.617000,980068,1000.00,12,0,1,-72.903,-3.643,5.340,1079.033,-2.393,1.108
1.618000,980069,1000.00,12,0,1,-66.922,1.052,5.293,1080.114,-0.564,1.091
1.619000,980070,1000.00,12,0,1,-62.238,4.783,5.301,1081.555,0.670,1.093
