# FW/GUI: v9.6.1-multi17-dual (PyQt5)
# StartTime: 2026-04-03 16:25:24
# Slot: 13
# DeviceID: 13
# Label: EMG13
# IP: 192.168.137.206
# TCP: 3333
# DeviceFW: EMG_FW_v9.6_MULTI17_DUALCH_RUNTIMECFG_CHEN
# IMU1_RefTime = format(imu_ms) = relative since power-on Time (IMU acquisition time)
IMU1_RefTime,ax_g,ay_g,az_g,gx_dps,gy_dps,gz_dps,mx_uT,my_uT,mz_uT,temp_C,qw,qx,qy,qz
'00:17:17.714,0.059570,0.029297,1.003418,0.365854,1.341463,-0.548781,-4.800000,17.556250,19.343750,31.024,0.56832444,-0.00977929,-0.02883409,-0.82224102
'00:17:17.724,0.061523,0.029785,1.002930,0.365854,1.341463,-0.548781,-4.800000,17.556250,19.343750,31.039,0.56833085,-0.00979121,-0.02885054,-0.82223587
'00:17:17.734,0.061035,0.028320,1.004883,0.365854,1.341463,-0.548781,-4.912500,17.718750,19.462500,31.024,0.56833311,-0.00980113,-0.02885062,-0.82223419
'00:17:17.744,0.059570,0.030273,1.004883,0.304878,1.341463,-0.548781,-4.912500,17.718750,19.462500,31.008,0.56833493,-0.00979826,-0.02885168,-0.82223292
'00:17:17.754,0.061035,0.027832,1.005371,0.365854,1.280488,-0.548781,-4.906250,17.656250,19.418751,30.993,0.56833625,-0.00981362,-0.02885089,-0.82223186
'00:17:17.764,0.059082,0.030762,1.003906,0.426829,1.402439,-0.609756,-4.906250,17.656250,19.418751,31.008,0.56833296,-0.00979499,-0.02885803,-0.82223410
'00:17:17.774,0.059570,0.031738,1.001465,0.243902,1.280488,-0.548781,-4.837500,17.537500,19.362501,31.054,0.56833554,-0.00979630,-0.02886901,-0.82223192
'00:17:17.784,0.060059,0.028809,1.004883,0.304878,1.341463,-0.548781,-4.837500,17.537500,19.362501,31.084,0.56833892,-0.00980370,-0.02886505,-0.82222963
'00:17:17.794,0.060059,0.028809,1.002930,0.365854,1.341463,-0.609756,-4.781250,17.531250,19.375000,31.039,0.56834168,-0.00981170,-0.02887055,-0.82222744
'00:17:17.804,0.057617,0.028320,1.003418,0.304878,1.341463,-0.548781,-4.781250,17.531250,19.375000,31.008,0.56834893,-0.00981095,-0.02885900,-0.82222284
'00:17:17.814,0.058594,0.030273,1.003906,0.365854,1.341463,-0.548781,-4.781250,17.512501,19.350000,31.039,0.56835545,-0.00980448,-0.02886638,-0.82221815
'00:17:17.824,0.059570,0.029785,1.004395,0.304878,1.341463,-0.609756,-4.781250,17.512501,19.350000,30.993,0.56835758,-0.00980821,-0.02887013,-0.82221650
'00:17:17.834,0.060059,0.029297,1.005859,0.365854,1.341463,-0.548781,-4.937500,17.731251,19.462500,31.039,0.56835811,-0.00980706,-0.02886953,-0.82221617
'00:17:17.844,0.059570,0.028320,1.002930,0.365854,1.402439,-0.548781,-4.937500,17.731251,19.462500,30.993,0.56835899,-0.00980331,-0.02885970,-0.82221595
'00:17:17.856,0.059082,0.029785,1.003906,0.365854,1.280488,-0.548781,-5.100000,17.925001,19.656250,30.993,0.56835071,-0.00979142,-0.02885284,-0.82222206
'00:17:17.864,0.060547,0.030762,1.004883,0.365854,1.341463,-0.548781,-5.100000,17.925001,19.656250,31.039,0.56834518,-0.00978337,-0.02885446,-0.82222592
'00:17:17.874,0.060059,0.029785,1.003906,0.304878,1.341463,-0.548781,-4.843750,17.668751,19.400000,31.054,0.56835089,-0.00978885,-0.02885922,-0.82222174
'00:17:17.884,0.060059,0.029785,1.005859,0.365854,1.341463,-0.548781,-4.806250,17.475000,19.362501,30.993,0.56835480,-0.00979034,-0.02886584,-0.82221879
'00:17:17.894,0.059570,0.028320,1.004883,0.304878,1.341463,-0.548781,-4.806250,17.475000,19.362501,31.069,0.56835895,-0.00979809,-0.02885811,-0.82221610
'00:17:17.905,0.059082,0.028809,1.004395,0.365854,1.341463,-0.609756,-4.800000,17.556250,19.281250,31.039,0.56836164,-0.00979940,-0.02885873,-0.82221420
'00:17:17.914,0.059082,0.031250,1.002930,0.365854,1.280488,-0.548781,-4.800000,17.556250,19.281250,31.084,0.56836715,-0.00979614,-0.02887487,-0.82220986
'00:17:17.924,0.057617,0.029785,1.004883,0.365854,1.341463,-0.548781,-4.825000,17.518751,19.312500,31.084,0.56837100,-0.00978342,-0.02887181,-0.82220746
'00:17:17.934,0.059570,0.030273,1.003418,0.304878,1.341463,-0.609756,-4.825000,17.518751,19.312500,31.084,0.56837025,-0.00978297,-0.02887540,-0.82220786
'00:17:17.944,0.059082,0.029297,1.003418,0.365854,1.341463,-0.548781,-5.218750,18.050001,19.700001,31.039,0.56835847,-0.00976600,-0.02885812,-0.82221681
'00:17:17.955,0.059082,0.029785,1.004395,0.365854,1.341463,-0.548781,-5.218750,18.050001,19.700001,31.039,0.56834553,-0.00974540,-0.02884203,-0.82222657
'00:17:17.964,0.060059,0.029297,1.003418,0.304878,1.341463,-0.548781,-5.037500,17.868750,19.556250,31.024,0.56834258,-0.00974504,-0.02883491,-0.82222886
'00:17:17.974,0.058594,0.031250,1.004395,0.304878,1.341463,-0.609756,-5.037500,17.868750,19.556250,30.993,0.56833460,-0.00972875,-0.02883210,-0.82223467
'00:17:17.984,0.061035,0.028320,1.003906,0.304878,1.341463,-0.548781,-4.793750,17.537500,19.350000,31.024,0.56834133,-0.00974746,-0.02883370,-0.82222974
'00:17:17.994,0.060059,0.027832,1.004395,0.365854,1.341463,-0.609756,-4.793750,17.537500,19.350000,31.024,0.56834384,-0.00975911,-0.02883290,-0.82222789
'00:17:18.004,0.060059,0.029785,1.002930,0.304878,1.280488,-0.548781,-4.831250,17.525000,19.393751,31.054,0.56834696,-0.00976837,-0.02883901,-0.82222541
'00:17:18.014,0.060547,0.029785,1.003418,0.365854,1.341463,-0.548781,-4.831250,17.525000,19.393751,31.024,0.56835023,-0.00977268,-0.02884805,-0.82222278
'00:17:18.024,0.060059,0.028809,1.006836,0.304878,1.280488,-0.548781,-4.812500,17.568750,19.312500,31.069,0.56835621,-0.00978620,-0.02884951,-0.82221844
'00:17:18.034,0.059570,0.029785,1.002930,0.365854,1.341463,-0.609756,-4.812500,17.568750,19.312500,30.993,0.56835776,-0.00978625,-0.02885750,-0.82221709
'00:17:18.044,0.058594,0.031250,1.004395,0.243902,1.341463,-0.548781,-5.175000,18.075001,19.656250,31.069,0.56834918,-0.00976775,-0.02884423,-0.82222370
'00:17:18.054,0.061035,0.027344,1.005371,0.365854,1.341463,-0.548781,-5.175000,18.075001,19.656250,31.024,0.56834155,-0.00977133,-0.02882734,-0.82222952
'00:17:18.064,0.058105,0.029785,1.003418,0.365854,1.341463,-0.609756,-5.100000,17.956251,19.662500,31.024,0.56833132,-0.00975269,-0.02881649,-0.82223719
'00:17:18.074,0.058594,0.030762,0.999512,0.365854,1.341463,-0.609756,-5.100000,17.956251,19.662500,31.039,0.56832094,-0.00973406,-0.02881473,-0.82224465
'00:17:18.084,0.060059,0.029785,1.005371,0.304878,1.341463,-0.548781,-4.806250,17.531250,19.356251,31.054,0.56832644,-0.00974043,-0.02881947,-0.82224061
'00:17:18.094,0.060059,0.029297,1.004883,0.304878,1.341463,-0.548781,-4.806250,17.531250,19.356251,31.024,0.56833200,-0.00974871,-0.02882153,-0.82223660
'00:17:18.104,0.060547,0.028320,1.002930,0.365854,1.341463,-0.548781,-4.781250,17.543751,19.250000,31.039,0.56834024,-0.00976215,-0.02882752,-0.82223053
'00:17:18.114,0.059082,0.029785,1.003906,0.365854,1.341463,-0.548781,-4.781250,17.543751,19.250000,31.039,0.56834818,-0.00976131,-0.02883563,-0.82222477
'00:17:18.124,0.059082,0.030273,1.005859,0.365854,1.341463,-0.609756,-4.787500,17.537500,19.350000,31.054,0.56835061,-0.00975777,-0.02884476,-0.82222281
'00:17:18.134,0.060547,0.030273,1.002930,0.304878,1.341463,-0.548781,-5.037500,17.918751,19.537500,31.024,0.56834832,-0.00975678,-0.02884549,-0.82222438
'00:17:18.144,0.062012,0.028809,1.002441,0.304878,1.341463,-0.609756,-5.037500,17.918751,19.537500,31.008,0.56834191,-0.00976932,-0.02884386,-0.82222872
'00:17:18.154,0.061523,0.028320,1.003906,0.365854,1.402439,-0.548781,-5.050000,17.850000,19.606251,31.054,0.56833749,-0.00977197,-0.02883566,-0.82223203
'00:17:18.164,0.059082,0.031738,1.001953,0.365854,1.341463,-0.609756,-5.050000,17.850000,19.606251,31.054,0.56832790,-0.00975265,-0.02884122,-0.82223869
'00:17:18.174,0.058594,0.030273,1.003906,0.304878,1.280488,-0.487805,-4.806250,17.606251,19.400000,31.039,0.56833906,-0.00975461,-0.02884784,-0.82223072
'00:17:18.184,0.059570,0.028809,1.007324,0.304878,1.280488,-0.548781,-4.806250,17.606251,19.400000,31.024,0.56834609,-0.00976681,-0.02884847,-0.82222570
'00:17:18.194,0.058594,0.027832,1.002930,0.365854,1.341463,-0.548781,-4.825000,17.593750,19.418751,31.039,0.56835180,-0.00976951,-0.02884095,-0.82222198
'00:17:18.204,0.059570,0.029785,1.002930,0.365854,1.341463,-0.609756,-4.825000,17.593750,19.418751,31.008,0.56835268,-0.00976972,-0.02884849,-0.82222110
'00:17:18.214,0.058594,0.031738,1.003906,0.365854,1.280488,-0.548781,-4.843750,17.550001,19.337500,31.039,0.56835539,-0.00975916,-0.02886345,-0.82221883
'00:17:18.224,0.059570,0.029785,1.004883,0.304878,1.341463,-0.548781,-4.843750,17.550001,19.337500,31.054,0.56835857,-0.00976025,-0.02886310,-0.82221664
'00:17:18.234,0.059570,0.028809,1.004883,0.365854,1.341463,-0.548781,-4.937500,17.693750,19.418751,31.069,0.56835860,-0.00975863,-0.02885768,-0.82221683
'00:17:18.244,0.060059,0.028320,1.004883,0.365854,1.341463,-0.609756,-4.937500,17.693750,19.418751,31.069,0.56835435,-0.00976145,-0.02885153,-0.82221994
'00:17:18.254,0.060059,0.030273,1.002930,0.365854,1.341463,-0.548781,-5.168750,17.962500,19.625000,31.024,0.56834403,-0.00974797,-0.02884571,-0.82222744
'00:17:18.264,0.059570,0.029297,1.003906,0.365854,1.280488,-0.548781,-5.168750,17.962500,19.625000,31.054,0.56833384,-0.00973999,-0.02883546,-0.82223494
'00:17:18.274,0.059570,0.028320,1.004395,0.304878,1.341463,-0.548781,-4.968750,17.831251,19.525000,31.054,0.56833475,-0.00974410,-0.02882435,-0.82223465
'00:17:18.284,0.060059,0.029785,1.003906,0.365854,1.341463,-0.609756,-4.968750,17.831251,19.525000,30.993,0.56833102,-0.00974209,-0.02882809,-0.82223712
'00:17:18.294,0.059082,0.029785,1.002441,0.365854,1.341463,-0.609756,-4.806250,17.506250,19.375000,31.069,0.56833147,-0.00974002,-0.02883372,-0.82223664
'00:17:18.304,0.059082,0.030273,1.004395,0.304878,1.341463,-0.548781,-4.806250,17.506250,19.375000,31.054,0.56833614,-0.00973880,-0.02883685,-0.82223332
'00:17:18.314,0.059570,0.029297,1.004883,0.365854,1.341463,-0.487805,-4.850000,17.593750,19.375000,31.024,0.56834444,-0.00973968,-0.02883907,-0.82222749
'00:17:18.324,0.060059,0.029297,1.004883,0.304878,1.341463,-0.548781,-4.850000,17.593750,19.375000,30.978,0.56834827,-0.00974608,-0.02883880,-0.82222478
'00:17:18.334,0.060059,0.028809,1.002930,0.365854,1.341463,-0.548781,-4.825000,17.525000,19.287500,31.039,0.56835268,-0.00975203,-0.02884138,-0.82222157
'00:17:18.344,0.059570,0.029785,1.002930,0.304878,1.341463,-0.548781,-4.825000,17.525000,19.287500,31.084,0.56835682,-0.00975436,-0.02884317,-0.82221861
'00:17:18.354,0.060059,0.028809,1.003906,0.365854,1.341463,-0.548781,-4.900000,17.581251,19.325001,31.024,0.56835718,-0.00975620,-0.02884072,-0.82221843
'00:17:18.365,0.060547,0.030273,1.002930,0.365854,1.280488,-0.548781,-4.900000,17.581251,19.325001,31.069,0.56835704,-0.00975991,-0.02885293,-0.82221806
'00:17:18.374,0.060547,0.029785,1.003906,0.365854,1.341463,-0.548781,-5.075000,17.887501,19.550001,31.024,0.56835212,-0.00975542,-0.02885137,-0.82222156
'00:17:18.384,0.058594,0.029785,1.003906,0.365854,1.341463,-0.548781,-5.075000,17.887501,19.550001,31.054,0.56834673,-0.00973991,-0.02884227,-0.82222579
'00:17:18.394,0.059082,0.029785,1.004883,0.304878,1.280488,-0.548781,-4.837500,17.568750,19.387501,31.054,0.56835054,-0.00974381,-0.02884428,-0.82222304
'00:17:18.404,0.058594,0.029785,1.003906,0.365854,1.341463,-0.609756,-4.793750,17.556250,19.343750,31.069,0.56835313,-0.00973999,-0.02884937,-0.82222112
'00:17:18.414,0.060547,0.030273,1.003418,0.304878,1.341463,-0.548781,-4.793750,17.556250,19.343750,31.069,0.56835983,-0.00974838,-0.02886048,-0.82221600
'00:17:18.424,0.060547,0.030273,1.003418,0.304878,1.341463,-0.548781,-4.800000,17.550001,19.393751,31.069,0.56836567,-0.00975630,-0.02887062,-0.82221151
'00:17:18.434,0.059082,0.029785,1.004883,0.365854,1.341463,-0.609756,-4.800000,17.550001,19.393751,31.069,0.56836733,-0.00975437,-0.02887594,-0.82221020
'00:17:18.444,0.059570,0.028809,1.004883,0.365854,1.341463,-0.548781,-5.012500,17.825001,19.531250,31.054,0.56836485,-0.00975042,-0.02886750,-0.82221226
'00:17:18.454,0.060547,0.028809,1.003906,0.304878,1.280488,-0.548781,-5.012500,17.825001,19.531250,31.024,0.56836215,-0.00975947,-0.02886196,-0.82221421
'00:17:18.464,0.060059,0.028809,1.002930,0.304878,1.341463,-0.548781,-5.125000,18.000000,19.712500,31.024,0.56835545,-0.00975786,-0.02884735,-0.82221937
'00:17:18.474,0.059570,0.029785,1.004395,0.304878,1.341463,-0.548781,-5.125000,18.000000,19.712500,31.024,0.56834862,-0.00974959,-0.02883600,-0.82222459
'00:17:18.484,0.060059,0.029297,1.003418,0.304878,1.341463,-0.548781,-4.843750,17.593750,19.356251,31.039,0.56835292,-0.00975648,-0.02883686,-0.82222150
'00:17:18.494,0.059570,0.029297,1.002930,0.304878,1.341463,-0.548781,-4.843750,17.593750,19.356251,31.054,0.56835721,-0.00976066,-0.02883598,-0.82221852
'00:17:18.504,0.059570,0.029785,1.003418,0.365854,1.341463,-0.609756,-4.787500,17.518751,19.343750,31.039,0.56835926,-0.00976197,-0.02884472,-0.82221678
'00:17:18.514,0.059082,0.029785,1.004883,0.365854,1.341463,-0.548781,-4.787500,17.518751,19.343750,31.084,0.56836569,-0.00976037,-0.02885078,-0.82221215
'00:17:18.524,0.057617,0.029785,1.004395,0.365854,1.341463,-0.548781,-4.812500,17.581251,19.312500,31.054,0.56837201,-0.00974999,-0.02885088,-0.82220790
'00:17:18.534,0.059570,0.029785,1.004395,0.365854,1.280488,-0.609756,-4.812500,17.581251,19.312500,31.024,0.56837372,-0.00975478,-0.02886159,-0.82220628
'00:17:18.544,0.060547,0.028320,1.004883,0.365854,1.341463,-0.548781,-4.831250,17.506250,19.343750,31.054,0.56837698,-0.00976420,-0.02886096,-0.82220394
'00:17:18.554,0.059082,0.029297,1.004395,0.365854,1.341463,-0.548781,-4.831250,17.506250,19.343750,31.024,0.56838006,-0.00976164,-0.02886037,-0.82220186
'00:17:18.564,0.058594,0.029785,1.004395,0.365854,1.341463,-0.548781,-5.156250,18.006250,19.662500,31.039,0.56837147,-0.00974310,-0.02884739,-0.82220847
'00:17:18.574,0.060059,0.029785,1.003906,0.365854,1.341463,-0.609756,-5.156250,18.006250,19.662500,31.024,0.56835857,-0.00973276,-0.02884046,-0.82221776
'00:17:18.584,0.059082,0.029297,1.003906,0.304878,1.280488,-0.548781,-4.900000,17.687500,19.443750,31.024,0.56836071,-0.00973684,-0.02883800,-0.82221631
'00:17:18.594,0.060547,0.029297,1.003418,0.365854,1.341463,-0.609756,-4.900000,17.687500,19.443750,31.054,0.56835862,-0.00974148,-0.02884278,-0.82221753
'00:17:18.604,0.059570,0.028809,1.004883,0.304878,1.341463,-0.548781,-4.812500,17.468750,19.356251,31.024,0.56836223,-0.00974758,-0.02883766,-0.82221515
'00:17:18.614,0.060059,0.030762,1.004395,0.365854,1.341463,-0.548781,-4.812500,17.468750,19.356251,31.054,0.56836544,-0.00974567,-0.02885017,-0.82221252
'00:17:18.625,0.060059,0.029297,1.003906,0.365854,1.341463,-0.548781,-4.793750,17.450001,19.318750,31.039,0.56837039,-0.00975092,-0.02885597,-0.82220882
'00:17:18.634,0.058594,0.029297,1.003418,0.365854,1.280488,-0.609756,-4.793750,17.450001,19.318750,31.039,0.56837039,-0.00975167,-0.02885842,-0.82220873
'00:17:18.644,0.061035,0.029297,1.004395,0.365854,1.341463,-0.548781,-4.862500,17.537500,19.350000,31.099,0.56837199,-0.00975863,-0.02886376,-0.82220735
'00:17:18.654,0.061523,0.030273,1.004395,0.304878,1.341463,-0.548781,-5.031250,17.856251,19.568750,31.008,0.56836841,-0.00976214,-0.02886614,-0.82220970
'00:17:18.664,0.060059,0.029785,1.004883,0.365854,1.341463,-0.548781,-5.031250,17.856251,19.568750,31.008,0.56836503,-0.00975639,-0.02886439,-0.82221217
'00:17:18.676,0.059570,0.029297,1.003906,0.304878,1.280488,-0.548781,-5.012500,17.843750,19.493750,31.024,0.56836241,-0.00975868,-0.02885727,-0.82221420
'00:17:18.684,0.059570,0.029297,1.004395,0.304878,1.280488,-0.548781,-5.012500,17.843750,19.493750,31.008,0.56836069,-0.00976011,-0.02885246,-0.82221555
'00:17:18.694,0.058594,0.029785,1.002930,0.304878,1.341463,-0.548781,-4.781250,17.500000,19.350000,31.069,0.56836701,-0.00975938,-0.02885292,-0.82221117
'00:17:18.704,0.059570,0.028809,1.003906,0.365854,1.341463,-0.548781,-4.781250,17.500000,19.350000,31.024,0.56837355,-0.00976472,-0.02885557,-0.82220649
'00:17:18.714,0.059570,0.029785,1.004883,0.304878,1.341463,-0.609756,-4.875000,17.543751,19.400000,31.054,0.56836972,-0.00976371,-0.02885258,-0.82220925
'00:17:18.724,0.059082,0.029785,1.003418,0.304878,1.341463,-0.548781,-4.875000,17.543751,19.400000,31.069,0.56837030,-0.00976049,-0.02884830,-0.82220905
'00:17:18.734,0.059570,0.029785,1.004883,0.304878,1.280488,-0.548781,-4.906250,17.662500,19.393751,31.084,0.56837142,-0.00976383,-0.02884891,-0.82220821
'00:17:18.744,0.059082,0.029785,1.004395,0.304878,1.341463,-0.548781,-4.906250,17.662500,19.393751,31.008,0.56837269,-0.00976016,-0.02884479,-0.82220752
'00:17:18.754,0.060059,0.029297,1.004395,0.365854,1.341463,-0.487805,-5.062500,17.893751,19.643751,31.039,0.56837228,-0.00975549,-0.02883915,-0.82220805
'00:17:18.764,0.060059,0.029297,1.002930,0.365854,1.341463,-0.548781,-5.062500,17.893751,19.643751,31.039,0.56836751,-0.00975105,-0.02883424,-0.82221158
'00:17:18.774,0.060059,0.029785,1.003906,0.365854,1.341463,-0.548781,-4.975000,17.693750,19.493750,31.039,0.56836449,-0.00974664,-0.02883393,-0.82221373
'00:17:18.784,0.060059,0.028809,1.003418,0.365854,1.341463,-0.548781,-4.975000,17.693750,19.493750,30.993,0.56836168,-0.00974620,-0.02882836,-0.82221587
'00:17:18.794,0.059570,0.029785,1.003418,0.304878,1.280488,-0.548781,-4.906250,17.643751,19.356251,31.024,0.56836259,-0.00974976,-0.02882957,-0.82221516
'00:17:18.804,0.059570,0.028320,1.003906,0.365854,1.280488,-0.548781,-4.906250,17.643751,19.356251,31.069,0.56836385,-0.00975584,-0.02882669,-0.82221432
'00:17:18.814,0.059082,0.029297,1.004395,0.304878,1.341463,-0.548781,-4.800000,17.537500,19.393751,31.039,0.56836971,-0.00975903,-0.02882544,-0.82221027
'00:17:18.826,0.059082,0.029297,1.003906,0.304878,1.280488,-0.609756,-4.800000,17.537500,19.393751,31.084,0.56837128,-0.00976797,-0.02882784,-0.82220899
'00:17:18.834,0.060059,0.028809,1.005371,0.365854,1.280488,-0.548781,-4.825000,17.631250,19.312500,30.993,0.56837657,-0.00977671,-0.02883361,-0.82220503
'00:17:18.844,0.059570,0.029297,1.004395,0.304878,1.280488,-0.548781,-4.825000,17.631250,19.312500,30.993,0.56838299,-0.00978611,-0.02883758,-0.82220034
'00:17:18.854,0.059570,0.029297,1.003418,0.365854,1.341463,-0.548781,-4.718750,17.518751,19.293751,31.008,0.56839444,-0.00979320,-0.02884888,-0.82219194
'00:17:18.864,0.059082,0.029785,1.003418,0.304878,1.341463,-0.609756,-4.718750,17.518751,19.293751,31.024,0.56840132,-0.00979835,-0.02885652,-0.82218686
'00:17:18.874,0.059570,0.030273,1.002930,0.304878,1.341463,-0.548781,-5.287500,18.237501,19.818750,31.039,0.56838859,-0.00978216,-0.02884164,-0.82219637
'00:17:18.885,0.061035,0.029785,1.003418,0.365854,1.280488,-0.548781,-5.287500,18.237501,19.818750,31.054,0.56837468,-0.00977672,-0.02883663,-0.82220623
'00:17:18.894,0.060059,0.029785,1.004883,0.365854,1.341463,-0.548781,-4.943750,17.675001,19.443750,31.024,0.56837360,-0.00977351,-0.02883777,-0.82220698
'00:17:18.905,0.060547,0.028320,1.005371,0.304878,1.280488,-0.548781,-4.850000,17.537500,19.350000,31.039,0.56837633,-0.00979082,-0.02883500,-0.82220498
'00:17:18.914,0.061035,0.028320,1.003906,0.365854,1.280488,-0.548781,-4.850000,17.537500,19.350000,31.069,0.56837855,-0.00980474,-0.02883888,-0.82220315
'00:17:18.924,0.059570,0.031738,1.002930,0.365854,1.341463,-0.548781,-4.787500,17.481251,19.356251,31.054,0.56838344,-0.00979734,-0.02885778,-0.82219919
'00:17:18.934,0.058594,0.029297,1.004883,0.243902,1.341463,-0.548781,-4.787500,17.481251,19.356251,31.039,0.56838877,-0.00979987,-0.02884911,-0.82219578
'00:17:18.944,0.060547,0.028320,1.005859,0.365854,1.402439,-0.548781,-4.818750,17.556250,19.268751,31.039,0.56839445,-0.00980520,-0.02884754,-0.82219184
'00:17:18.954,0.060059,0.029297,1.001953,0.365854,1.280488,-0.609756,-4.818750,17.556250,19.268751,31.024,0.56839522,-0.00981337,-0.02885723,-0.82219087
'00:17:18.964,0.057617,0.031250,1.001465,0.365854,1.280488,-0.548781,-5.081250,17.981251,19.643751,31.008,0.56839052,-0.00979185,-0.02885774,-0.82219436
'00:17:18.974,0.059082,0.031250,1.003906,0.304878,1.280488,-0.487805,-5.081250,17.981251,19.643751,31.039,0.56839017,-0.00978138,-0.02885847,-0.82219470
'00:17:18.984,0.059082,0.029785,1.004883,0.304878,1.280488,-0.548781,-5.075000,17.981251,19.631250,31.039,0.56838626,-0.00977669,-0.02885124,-0.82219772
'00:17:18.994,0.060059,0.027832,1.006348,0.304878,1.341463,-0.548781,-5.075000,17.981251,19.631250,31.084,0.56838291,-0.00978021,-0.02883344,-0.82220061
'00:17:19.004,0.060059,0.028320,1.003906,0.304878,1.341463,-0.609756,-4.812500,17.581251,19.375000,31.069,0.56838469,-0.00979195,-0.02883058,-0.82219934
'00:17:19.014,0.060059,0.029785,1.003418,0.365854,1.341463,-0.548781,-4.812500,17.581251,19.375000,31.054,0.56839056,-0.00979497,-0.02884056,-0.82219490
'00:17:19.024,0.059082,0.030762,1.003418,0.365854,1.280488,-0.548781,-4.812500,17.556250,19.293751,31.054,0.56839581,-0.00979246,-0.02885472,-0.82219080
'00:17:19.034,0.060547,0.030762,1.004395,0.365854,1.341463,-0.548781,-4.812500,17.556250,19.293751,31.024,0.56840113,-0.00979346,-0.02887085,-0.82218655
'00:17:19.044,0.059570,0.029297,1.003418,0.304878,1.341463,-0.548781,-4.825000,17.587500,19.350000,31.054,0.56840632,-0.00979783,-0.02887032,-0.82218292
'00:17:19.054,0.058594,0.029297,1.003418,0.365854,1.341463,-0.548781,-4.825000,17.587500,19.350000,31.024,0.56841159,-0.00979368,-0.02887037,-0.82217933
'00:17:19.065,0.058105,0.029785,1.003906,0.426829,1.341463,-0.548781,-5.125000,18.037500,19.668751,31.054,0.56840506,-0.00976895,-0.02886205,-0.82218443
'00:17:19.074,0.059082,0.029785,1.003906,0.365854,1.341463,-0.548781,-5.125000,18.037500,19.668751,30.993,0.56839973,-0.00975657,-0.02885482,-0.82218851
'00:17:19.084,0.059570,0.029297,1.004883,0.365854,1.341463,-0.548781,-5.037500,17.775000,19.468750,31.039,0.56839447,-0.00974832,-0.02884642,-0.82219254
'00:17:19.094,0.059082,0.029297,1.004883,0.304878,1.341463,-0.609756,-5.037500,17.775000,19.468750,31.039,0.56838485,-0.00974042,-0.02883201,-0.82219979
'00:17:19.106,0.059570,0.029297,1.003418,0.365854,1.341463,-0.548781,-4.762500,17.481251,19.400000,31.024,0.56839337,-0.00974626,-0.02884022,-0.82219355
'00:17:19.114,0.060547,0.029297,1.004395,0.365854,1.341463,-0.609756,-4.762500,17.481251,19.400000,31.054,0.56839549,-0.00975410,-0.02884833,-0.82219171
'00:17:19.124,0.061035,0.028809,1.003906,0.365854,1.341463,-0.548781,-4.775000,17.587500,19.337500,31.069,0.56840445,-0.00976907,-0.02885926,-0.82218495
'00:17:19.134,0.061035,0.029785,1.003418,0.304878,1.341463,-0.609756,-4.775000,17.587500,19.337500,31.099,0.56840871,-0.00978289,-0.02887136,-0.82218142
'00:17:19.146,0.060059,0.029297,1.002930,0.365854,1.341463,-0.548781,-4.831250,17.487501,19.381250,31.008,0.56841143,-0.00978604,-0.02887485,-0.82217938
'00:17:19.154,0.060059,0.029297,1.002930,0.365854,1.341463,-0.548781,-4.831250,17.487501,19.381250,31.008,0.56841322,-0.00978809,-0.02887712,-0.82217803
'00:17:19.164,0.059082,0.029297,1.002930,0.365854,1.341463,-0.548781,-5.031250,17.850000,19.550001,31.054,0.56840968,-0.00977864,-0.02886921,-0.82218087
'00:17:19.174,0.059570,0.029785,1.003906,0.365854,1.341463,-0.609756,-5.031250,17.850000,19.550001,31.054,0.56840170,-0.00976978,-0.02886572,-0.82218662
'00:17:19.185,0.059082,0.028809,1.005859,0.365854,1.341463,-0.609756,-5.125000,18.006250,19.675001,30.978,0.56838979,-0.00975769,-0.02884926,-0.82219557
'00:17:19.194,0.059082,0.028809,1.005859,0.365854,1.341463,-0.609756,-4.900000,17.637501,19.337500,30.978,0.56838726,-0.00975461,-0.02884406,-0.82219754
'00:17:19.204,0.060059,0.028809,1.003906,0.304878,1.341463,-0.548781,-4.900000,17.637501,19.337500,31.024,0.56838875,-0.00976018,-0.02883846,-0.82219664
'00:17:19.214,0.059082,0.029297,1.004395,0.365854,1.341463,-0.548781,-4.787500,17.537500,19.318750,31.039,0.56839575,-0.00976076,-0.02884246,-0.82219165
'00:17:19.227,0.058105,0.029297,1.004395,0.304878,1.341463,-0.548781,-4.787500,17.537500,19.318750,31.084,0.56840479,-0.00975833,-0.02883694,-0.82218562
'00:17:19.234,0.058105,0.029297,1.004395,0.304878,1.341463,-0.548781,-4.781250,17.456251,19.387501,31.084,0.56840840,-0.00975663,-0.02883282,-0.82218330
'00:17:19.244,0.060547,0.029785,1.005371,0.304878,1.341463,-0.548781,-4.781250,17.456251,19.387501,31.099,0.56841335,-0.00976571,-0.02883891,-0.82217955
'00:17:19.254,0.060547,0.028320,1.003418,0.365854,1.341463,-0.548781,-4.806250,17.518751,19.343750,31.024,0.56841853,-0.00977695,-0.02884133,-0.82217575
'00:17:19.265,0.061523,0.028809,1.003418,0.304878,1.280488,-0.548781,-4.806250,17.518751,19.343750,31.054,0.56842380,-0.00980104,-0.02884963,-0.82217153
'00:17:19.274,0.060547,0.029297,1.004883,0.365854,1.280488,-0.548781,-5.156250,18.068750,19.706251,31.054,0.56841697,-0.00979963,-0.02884592,-0.82217640
'00:17:19.284,0.058594,0.029785,1.005371,0.304878,1.402439,-0.548781,-5.156250,18.068750,19.706251,31.084,0.56840961,-0.00977986,-0.02882660,-0.82218240
'00:17:19.294,0.059570,0.027832,1.005371,0.304878,1.341463,-0.548781,-5.050000,17.812500,19.593750,31.069,0.56840412,-0.00977996,-0.02880546,-0.82218694
'00:17:19.306,0.059570,0.028320,1.004395,0.304878,1.402439,-0.609756,-5.050000,17.812500,19.593750,31.069,0.56839241,-0.00977270,-0.02878069,-0.82219599
'00:17:19.314,0.060059,0.029297,1.002441,0.182927,1.219512,-0.609756,-4.806250,17.518751,19.387501,31.024,0.56839251,-0.00979090,-0.02878098,-0.82219569
'00:17:19.324,0.060547,0.028320,1.003906,0.304878,1.280488,-0.548781,-4.806250,17.518751,19.387501,31.024,0.56839743,-0.00980935,-0.02878273,-0.82219200
'00:17:19.334,0.059570,0.028809,1.003906,0.426829,1.463415,-0.548781,-4.831250,17.512501,19.362501,31.069,0.56840101,-0.00979928,-0.02878102,-0.82218971
'00:17:19.347,0.058594,0.029785,1.005371,0.365854,1.402439,-0.609756,-4.831250,17.512501,19.362501,31.054,0.56839953,-0.00978336,-0.02877870,-0.82219100
'00:17:19.354,0.059570,0.028320,1.003906,0.182927,1.158537,-0.548781,-4.806250,17.487501,19.362501,31.084,0.56840227,-0.00980255,-0.02877491,-0.82218901
'00:17:19.364,0.060059,0.029785,1.003906,0.121951,1.097561,-0.548781,-4.806250,17.487501,19.362501,31.024,0.56840561,-0.00983399,-0.02877840,-0.82218621
'00:17:19.374,0.061035,0.029297,1.002930,0.304878,1.219512,-0.548781,-5.118750,17.943750,19.556250,31.054,0.56839809,-0.00984262,-0.02877685,-0.82219136
'00:17:19.385,0.060547,0.029785,1.004883,0.365854,1.341463,-0.548781,-5.118750,17.943750,19.556250,31.024,0.56839015,-0.00983365,-0.02877345,-0.82219707
'00:17:19.394,0.059082,0.029785,1.003906,0.182927,1.219512,-0.548781,-5.243750,18.225000,19.775000,31.069,0.56838098,-0.00983313,-0.02875708,-0.82220399
'00:17:19.406,0.059082,0.030762,1.003906,0.121951,1.158537,-0.548781,-4.768750,17.537500,19.337500,31.024,0.56838974,-0.00985755,-0.02876522,-0.82219736
'00:17:19.414,0.059570,0.029297,1.004395,0.182927,1.158537,-0.548781,-4.768750,17.537500,19.337500,31.039,0.56839578,-0.00987781,-0.02876867,-0.82219282
'00:17:19.426,0.060059,0.028809,1.003906,0.243902,1.280488,-0.548781,-4.768750,17.537500,19.337500,31.054,0.56840529,-0.00989936,-0.02877086,-0.82218591
'00:17:19.434,0.059570,0.029297,1.004883,0.365854,1.341463,-0.548781,-4.793750,17.493750,19.375000,31.054,0.56840936,-0.00989960,-0.02877472,-0.82218296
'00:17:19.444,0.064453,0.024902,0.999023,0.914634,1.829268,-0.548781,-4.762500,17.556250,19.356251,31.024,0.56842048,-0.00988600,-0.02879482,-0.82217473
'00:17:19.454,0.058594,0.031250,1.005859,1.280488,2.378049,-0.670732,-4.762500,17.556250,19.356251,31.024,0.56842354,-0.00975587,-0.02882448,-0.82217313
'00:17:19.466,0.062012,0.028320,1.002441,-0.548781,0.304878,-0.426829,-5.062500,17.912500,19.593750,31.069,0.56842501,-0.00991178,-0.02880483,-0.82217093
'00:17:19.474,0.062988,0.025879,1.000977,0.365854,1.402439,-0.548781,-5.062500,17.912500,19.593750,31.069,0.56842200,-0.00992646,-0.02879336,-0.82217324
'00:17:19.484,0.061035,0.029297,1.004395,1.158537,2.256098,-0.670732,-5.081250,17.837500,19.593750,31.084,0.56840871,-0.00981727,-0.02880084,-0.82218348
'00:17:19.494,0.058594,0.030273,1.007324,-0.304878,0.609756,-0.487805,-5.081250,17.837500,19.593750,31.084,0.56840323,-0.00988304,-0.02877996,-0.82218721
'00:17:19.504,0.061523,0.026367,1.000977,0.365854,1.341463,-0.548781,-4.900000,17.668751,19.481251,31.084,0.56840518,-0.00990284,-0.02877287,-0.82218587
'00:17:19.514,0.057617,0.032227,1.005371,0.975610,2.012195,-0.670732,-4.900000,17.668751,19.481251,31.008,0.56839950,-0.00979826,-0.02879275,-0.82219036
'00:17:19.524,0.062012,0.026855,1.000488,-0.121951,0.792683,-0.487805,-4.837500,17.575001,19.425001,31.039,0.56840636,-0.00988636,-0.02878531,-0.82218482
'00:17:19.534,0.060547,0.028320,1.003418,0.792683,1.829268,-0.609756,-4.837500,17.575001,19.425001,31.024,0.56840748,-0.00983868,-0.02879362,-0.82218432
'00:17:19.546,0.059082,0.029297,1.004395,-0.121951,0.792683,-0.487805,-4.768750,17.543751,19.356251,31.039,0.56842039,-0.00991597,-0.02879152,-0.82217454
'00:17:19.554,0.060547,0.029297,1.002930,0.670732,1.646341,-0.548781,-4.768750,17.543751,19.356251,31.039,0.56842756,-0.00989280,-0.02880667,-0.82216934
'00:17:19.564,0.059570,0.029785,1.004883,0.000000,0.975610,-0.487805,-4.912500,17.668751,19.506250,31.024,0.56843093,-0.00993116,-0.02880013,-0.82216678
'00:17:19.574,0.061523,0.028809,1.004395,0.609756,1.646341,-0.609756,-4.912500,17.668751,19.506250,31.024,0.56842783,-0.00990503,-0.02880638,-0.82216901
'00:17:19.586,0.060547,0.028809,1.003906,0.060976,1.036585,-0.548781,-5.068750,17.900000,19.606251,31.054,0.56842038,-0.00994600,-0.02879077,-0.82217422
'00:17:19.594,0.061523,0.028320,1.003418,0.548781,1.646341,-0.609756,-5.068750,17.900000,19.606251,31.069,0.56841352,-0.00992426,-0.02878531,-0.82217942
'00:17:19.604,0.062012,0.028809,1.002930,0.182927,1.097561,-0.548781,-5.075000,17.831251,19.600000,31.039,0.56840557,-0.00995464,-0.02878220,-0.82218465
'00:17:19.614,0.059082,0.030762,1.004883,0.426829,1.463415,-0.609756,-5.075000,17.831251,19.600000,31.024,0.56839404,-0.00992221,-0.02877747,-0.82219318
'00:17:19.625,0.060059,0.029297,1.002441,0.304878,1.341463,-0.548781,-4.787500,17.487501,19.318750,31.039,0.56840008,-0.00992922,-0.02878153,-0.82218877
'00:17:19.634,0.057617,0.031250,1.005371,0.243902,1.219512,-0.548781,-4.787500,17.487501,19.318750,31.054,0.56840441,-0.00992567,-0.02878670,-0.82218564
'00:17:19.644,0.058594,0.029297,1.003418,0.487805,1.463415,-0.548781,-4.837500,17.587500,19.362501,31.024,0.56840909,-0.00990421,-0.02878960,-0.82218257
'00:17:19.654,0.058594,0.029785,1.003906,0.243902,1.280488,-0.548781,-4.837500,17.587500,19.362501,31.099,0.56841301,-0.00990624,-0.02878663,-0.82217993
'00:17:19.664,0.059082,0.030273,1.004883,0.304878,1.341463,-0.548781,-4.768750,17.500000,19.381250,31.054,0.56841967,-0.00990447,-0.02879258,-0.82217515
'00:17:19.674,0.060547,0.028320,1.005371,0.365854,1.402439,-0.548781,-4.768750,17.500000,19.381250,31.084,0.56842685,-0.00991109,-0.02879410,-0.82217005
'00:17:19.684,0.060059,0.028320,1.004395,0.304878,1.280488,-0.609756,-4.950000,17.825001,19.468750,31.054,0.56842405,-0.00992020,-0.02878943,-0.82217203
'00:17:19.695,0.060059,0.029785,1.003906,0.426829,1.402439,-0.609756,-5.062500,17.950001,19.656250,31.069,0.56841511,-0.00990283,-0.02878998,-0.82217841
'00:17:19.705,0.061035,0.028809,1.003906,0.365854,1.341463,-0.548781,-5.062500,17.950001,19.656250,31.039,0.56841137,-0.00990394,-0.02878740,-0.82218107
'00:17:19.714,0.059570,0.030273,1.004883,0.304878,1.280488,-0.609756,-4.825000,17.537500,19.318750,31.069,0.56841077,-0.00990583,-0.02879416,-0.82218122
'00:17:19.724,0.060547,0.028320,1.003906,0.365854,1.402439,-0.548781,-4.825000,17.537500,19.318750,31.008,0.56841519,-0.00990954,-0.02879293,-0.82217817
'00:17:19.734,0.060059,0.028320,1.002930,0.304878,1.341463,-0.609756,-4.818750,17.518751,19.293751,31.008,0.56841512,-0.00991800,-0.02878899,-0.82217825
'00:17:19.747,0.059570,0.029785,1.004395,0.365854,1.341463,-0.548781,-4.818750,17.518751,19.293751,31.054,0.56842041,-0.00991372,-0.02879714,-0.82217436
'00:17:19.754,0.059570,0.029297,1.004395,0.365854,1.341463,-0.548781,-4.868750,17.581251,19.268751,31.054,0.56842199,-0.00991119,-0.02879788,-0.82217327
'00:17:19.766,0.061035,0.028320,1.003906,0.304878,1.341463,-0.548781,-4.868750,17.581251,19.268751,31.054,0.56842482,-0.00992484,-0.02879427,-0.82217128
'00:17:19.774,0.061035,0.027832,1.003418,0.304878,1.341463,-0.609756,-5.050000,17.900000,19.575001,31.069,0.56841838,-0.00993069,-0.02878441,-0.82217600
'00:17:19.784,0.060059,0.029785,1.003906,0.243902,1.280488,-0.609756,-5.050000,17.900000,19.575001,31.054,0.56840979,-0.00993241,-0.02877787,-0.82218215
'00:17:19.794,0.060059,0.028809,1.004883,0.365854,1.341463,-0.609756,-4.968750,17.712500,19.443750,31.039,0.56840333,-0.00992917,-0.02877331,-0.82218682
'00:17:19.805,0.060547,0.028320,1.003906,0.365854,1.341463,-0.609756,-4.968750,17.712500,19.443750,31.069,0.56839634,-0.00993094,-0.02876786,-0.82219182
'00:17:19.814,0.059082,0.028320,1.003906,0.365854,1.341463,-0.548781,-4.887500,17.618750,19.375000,31.099,0.56839790,-0.00992838,-0.02876208,-0.82219098
'00:17:19.824,0.060059,0.029785,1.003418,0.365854,1.341463,-0.548781,-4.887500,17.618750,19.375000,31.008,0.56839929,-0.00992533,-0.02876796,-0.82218984
'00:17:19.835,0.059570,0.029785,1.004883,0.304878,1.280488,-0.548781,-4.837500,17.531250,19.343750,31.024,0.56840229,-0.00992877,-0.02877217,-0.82218758
'00:17:19.844,0.059082,0.028809,1.003906,0.304878,1.341463,-0.548781,-4.837500,17.531250,19.343750,31.039,0.56840505,-0.00992879,-0.02876648,-0.82218587
'00:17:19.854,0.060547,0.028809,1.003418,0.365854,1.280488,-0.548781,-4.793750,17.518751,19.343750,31.008,0.56841071,-0.00994093,-0.02877662,-0.82218146
'00:17:19.865,0.060059,0.030273,1.003418,0.304878,1.280488,-0.548781,-4.793750,17.518751,19.343750,31.008,0.56841649,-0.00994802,-0.02878982,-0.82217691
'00:17:19.874,0.058105,0.029785,1.003418,0.365854,1.341463,-0.548781,-4.806250,17.543751,19.356251,31.024,0.56842123,-0.00993865,-0.02879193,-0.82217368
'00:17:19.884,0.059570,0.030273,1.003418,0.243902,1.219512,-0.548781,-4.806250,17.543751,19.356251,31.039,0.56842592,-0.00994936,-0.02879999,-0.82217002
'00:17:19.894,0.058105,0.028809,1.005371,0.365854,1.341463,-0.548781,-5.156250,18.087500,19.762501,31.024,0.56841867,-0.00993024,-0.02878155,-0.82217591
'00:17:19.904,0.058105,0.028809,1.005371,0.365854,1.341463,-0.548781,-5.156250,18.087500,19.762501,31.024,0.56841151,-0.00991144,-0.02876346,-0.82218172
'00:17:19.914,0.059082,0.028320,1.005859,0.365854,1.280488,-0.609756,-4.962500,17.687500,19.531250,31.039,0.56840457,-0.00990950,-0.02875490,-0.82218684
'00:17:19.924,0.059570,0.029785,1.004883,0.365854,1.341463,-0.548781,-4.962500,17.687500,19.531250,31.024,0.56840186,-0.00990059,-0.02875395,-0.82218886
'00:17:19.934,0.059570,0.028320,1.005859,0.365854,1.341463,-0.548781,-4.787500,17.425001,19.306250,31.069,0.56840628,-0.00990379,-0.02875210,-0.82218583
'00:17:19.944,0.060547,0.028809,1.004883,0.365854,1.280488,-0.609756,-4.787500,17.425001,19.306250,31.069,0.56840601,-0.00991484,-0.02876029,-0.82218560
'00:17:19.955,0.060059,0.030273,1.000977,0.365854,1.280488,-0.548781,-4.800000,17.468750,19.356251,31.039,0.56841008,-0.00991852,-0.02877785,-0.82218212
'00:17:19.964,0.060059,0.030273,1.000977,0.365854,1.280488,-0.548781,-4.800000,17.543751,19.356251,31.039,0.56841497,-0.00992237,-0.02879356,-0.82217814
'00:17:19.974,0.060059,0.030762,1.001953,0.304878,1.280488,-0.548781,-4.800000,17.543751,19.356251,30.993,0.56842020,-0.00992744,-0.02880874,-0.82217393
'00:17:19.984,0.059082,0.030762,1.002441,0.304878,1.280488,-0.609756,-5.037500,17.975000,19.656250,31.024,0.56841369,-0.00991927,-0.02881101,-0.82217845
'00:17:19.994,0.060059,0.028809,1.004395,0.243902,1.219512,-0.548781,-5.037500,17.975000,19.656250,31.054,0.56841177,-0.00993129,-0.02880393,-0.82217989
'00:17:20.006,0.058105,0.027832,1.004883,0.365854,1.341463,-0.609756,-5.168750,18.056250,19.600000,31.039,0.56839707,-0.00991134,-0.02877434,-0.82219133
'00:17:20.014,0.059570,0.030273,1.006836,0.304878,1.280488,-0.548781,-5.168750,18.056250,19.600000,31.054,0.56839029,-0.00990295,-0.02876845,-0.82219632
'00:17:20.024,0.060547,0.028320,1.004883,0.426829,1.341463,-0.609756,-4.843750,17.568750,19.356251,31.069,0.56838965,-0.00990717,-0.02877398,-0.82219652
'00:17:20.034,0.061035,0.029297,1.005371,0.426829,1.280488,-0.548781,-4.843750,17.568750,19.356251,31.054,0.56839298,-0.00991460,-0.02878958,-0.82219358
'00:17:20.044,0.060059,0.029297,1.001953,0.426829,1.402439,-0.609756,-4.881250,17.606251,19.387501,31.039,0.56839037,-0.00990665,-0.02879443,-0.82219531
'00:17:20.054,0.060059,0.030273,1.003418,0.365854,1.280488,-0.548781,-4.881250,17.606251,19.387501,31.054,0.56839160,-0.00990660,-0.02880577,-0.82219406
'00:17:20.064,0.059570,0.030762,1.003418,0.304878,1.280488,-0.609756,-4.806250,17.450001,19.331251,31.039,0.56839001,-0.00990702,-0.02881573,-0.82219481
'00:17:20.074,0.060059,0.030273,1.003906,0.426829,1.280488,-0.548781,-4.806250,17.450001,19.331251,31.039,0.56839297,-0.00990606,-0.02883314,-0.82219216
'00:17:20.084,0.060059,0.029297,1.005371,0.365854,1.280488,-0.609756,-5.025000,17.831251,19.537500,31.054,0.56838485,-0.00990410,-0.02883172,-0.82219785
'00:17:20.094,0.061523,0.028320,1.004883,0.426829,1.341463,-0.548781,-5.025000,17.831251,19.537500,30.978,0.56838150,-0.00990678,-0.02883197,-0.82220012
'00:17:20.105,0.058594,0.029785,1.004883,0.365854,1.280488,-0.609756,-5.218750,18.137501,19.712500,31.008,0.56836547,-0.00988688,-0.02881944,-0.82221188
'00:17:20.114,0.059570,0.031250,1.002930,0.365854,1.402439,-0.609756,-5.218750,18.137501,19.712500,30.978,0.56835243,-0.00986314,-0.02881522,-0.82222133
'00:17:20.124,0.059570,0.030273,1.001465,0.243902,1.280488,-0.548781,-4.818750,17.562500,19.337500,31.039,0.56835721,-0.00987065,-0.02882053,-0.82221775
'00:17:20.136,0.059082,0.031738,1.001953,0.182927,1.158537,-0.548781,-4.818750,17.562500,19.337500,31.069,0.56836213,-0.00988329,-0.02883625,-0.82221365
'00:17:20.144,0.059082,0.028320,1.002930,0.182927,1.219512,-0.548781,-4.762500,17.525000,19.318750,30.993,0.56836858,-0.00990100,-0.02883106,-0.82220916
'00:17:20.154,0.060547,0.027832,1.005371,0.487805,1.402439,-0.487805,-4.762500,17.525000,19.318750,31.054,0.56838174,-0.00990431,-0.02883930,-0.82219973
'00:17:20.164,0.059570,0.029785,1.008301,0.304878,1.219512,-0.548781,-4.743750,17.500000,19.362501,31.084,0.56839004,-0.00991676,-0.02885030,-0.82219345
'00:17:20.174,0.062500,0.027832,1.005859,0.365854,1.280488,-0.548781,-4.743750,17.500000,19.362501,31.054,0.56839873,-0.00994604,-0.02886361,-0.82218663
'00:17:20.184,0.057617,0.030273,1.008301,0.426829,1.402439,-0.609756,-4.775000,17.518751,19.281250,31.024,0.56840163,-0.00992379,-0.02886720,-0.82218477
'00:17:20.194,0.061523,0.029297,1.001465,0.365854,1.280488,-0.548781,-4.775000,17.518751,19.281250,31.084,0.56840854,-0.00994070,-0.02888465,-0.82217917
'00:17:20.204,0.056641,0.031738,1.002441,0.487805,1.402439,-0.609756,-5.093750,17.931250,19.631250,31.069,0.56839753,-0.00989338,-0.02888370,-0.82218739
'00:17:20.214,0.060059,0.029297,0.997070,0.304878,1.280488,-0.548781,-4.931250,17.731251,19.462500,31.039,0.56839790,-0.00990047,-0.02888520,-0.82218699
'00:17:20.224,0.057617,0.031738,1.004883,0.304878,1.280488,-0.609756,-4.931250,17.731251,19.462500,31.054,0.56839351,-0.00988264,-0.02888798,-0.82219014
'00:17:20.234,0.060059,0.027832,1.005859,0.304878,1.280488,-0.548781,-4.881250,17.550001,19.318750,31.024,0.56839403,-0.00989384,-0.02887755,-0.82219002
'00:17:20.244,0.059570,0.030273,1.007812,0.304878,1.280488,-0.548781,-4.881250,17.550001,19.318750,31.084,0.56839406,-0.00989228,-0.02887835,-0.82218999
'00:17:20.254,0.061035,0.029297,1.006836,0.365854,1.402439,-0.548781,-4.812500,17.493750,19.400000,31.069,0.56839769,-0.00989476,-0.02888179,-0.82218733
'00:17:20.264,0.061035,0.029297,1.004883,0.304878,1.341463,-0.548781,-4.812500,17.493750,19.400000,31.069,0.56840107,-0.00990502,-0.02888458,-0.82218477
'00:17:20.274,0.059082,0.030762,1.000000,0.365854,1.280488,-0.609756,-4.856250,17.587500,19.362501,31.039,0.56839902,-0.00989923,-0.02889640,-0.82218584
'00:17:20.284,0.060059,0.031250,1.000000,0.365854,1.341463,-0.548781,-4.856250,17.587500,19.362501,31.054,0.56840134,-0.00989279,-0.02891149,-0.82218378
'00:17:20.294,0.060059,0.029785,1.002441,0.243902,1.280488,-0.548781,-5.212500,18.137501,19.762501,31.054,0.56839102,-0.00988978,-0.02889676,-0.82219148
'00:17:20.304,0.059570,0.027832,1.005859,0.365854,1.341463,-0.609756,-5.212500,18.137501,19.762501,31.084,0.56837707,-0.00988038,-0.02887418,-0.82220202
'00:17:20.316,0.059570,0.028320,1.008301,0.426829,1.280488,-0.548781,-5.087500,17.837500,19.531250,31.039,0.56836813,-0.00987128,-0.02886153,-0.82220876
'00:17:20.324,0.058594,0.030273,1.005859,0.365854,1.341463,-0.548781,-5.087500,17.837500,19.531250,31.069,0.56836198,-0.00985445,-0.02885380,-0.82221348
'00:17:20.334,0.059082,0.029297,1.004395,0.365854,1.402439,-0.609756,-4.831250,17.568750,19.400000,31.069,0.56836199,-0.00984707,-0.02885164,-0.82221364
'00:17:20.344,0.059570,0.030273,1.002441,0.304878,1.341463,-0.548781,-4.831250,17.568750,19.400000,31.039,0.56836593,-0.00984662,-0.02885634,-0.82221075
'00:17:20.354,0.059082,0.030762,1.001465,0.304878,1.341463,-0.609756,-4.762500,17.568750,19.418751,31.054,0.56837013,-0.00984585,-0.02886768,-0.82220747
'00:17:20.364,0.059082,0.030273,0.999512,0.365854,1.341463,-0.548781,-4.762500,17.568750,19.418751,31.069,0.56837880,-0.00984454,-0.02888114,-0.82220101
'00:17:20.374,0.060059,0.029785,1.002441,0.243902,1.219512,-0.487805,-4.793750,17.525000,19.350000,31.054,0.56838852,-0.00986216,-0.02888804,-0.82219384
'00:17:20.384,0.060059,0.029785,1.006836,0.365854,1.341463,-0.609756,-4.793750,17.525000,19.350000,31.054,0.56838988,-0.00986344,-0.02889582,-0.82219261
'00:17:20.394,0.061035,0.027344,1.007324,0.365854,1.341463,-0.609756,-5.043750,17.812500,19.550001,31.024,0.56838053,-0.00986871,-0.02888065,-0.82219954
'00:17:20.404,0.061523,0.028809,1.004883,0.365854,1.341463,-0.548781,-5.043750,17.812500,19.550001,31.039,0.56837527,-0.00987166,-0.02887663,-0.82220329
'00:17:20.414,0.060547,0.029785,1.004883,0.365854,1.341463,-0.548781,-5.212500,18.081251,19.768751,31.054,0.56836406,-0.00986004,-0.02886781,-0.82221148
'00:17:20.424,0.061035,0.029785,1.001953,0.304878,1.341463,-0.548781,-5.212500,18.081251,19.768751,31.039,0.56835285,-0.00985493,-0.02885780,-0.82221965
'00:17:20.434,0.059082,0.030273,1.001465,0.304878,1.280488,-0.548781,-4.756250,17.493750,19.293751,31.024,0.56836057,-0.00985954,-0.02886829,-0.82221388
'00:17:20.444,0.058594,0.029785,1.000977,0.304878,1.280488,-0.548781,-4.756250,17.493750,19.293751,31.039,0.56836837,-0.00986335,-0.02887408,-0.82220824
'00:17:20.454,0.058105,0.030273,1.003906,0.365854,1.280488,-0.548781,-4.793750,17.543751,19.343750,31.084,0.56837446,-0.00985730,-0.02888197,-0.82220383
'00:17:20.464,0.058594,0.029785,1.006836,0.304878,1.280488,-0.487805,-4.793750,17.543751,19.343750,31.024,0.56838496,-0.00985853,-0.02888325,-0.82219652
'00:17:20.474,0.059570,0.029297,1.006348,0.365854,1.402439,-0.548781,-4.768750,17.562500,19.362501,31.024,0.56839358,-0.00985709,-0.02888642,-0.82219046
'00:17:20.484,0.060547,0.028809,1.005859,0.304878,1.341463,-0.548781,-4.787500,17.500000,19.306250,31.084,0.56839946,-0.00986828,-0.02888652,-0.82218626
'00:17:20.494,0.060059,0.028809,1.004395,0.304878,1.341463,-0.548781,-4.787500,17.500000,19.306250,31.054,0.56840531,-0.00987690,-0.02888527,-0.82218215
'00:17:20.504,0.059570,0.030762,1.001953,0.365854,1.341463,-0.548781,-5.306250,18.243750,19.812500,31.039,0.56839129,-0.00985388,-0.02887604,-0.82219245
'00:17:20.516,0.060547,0.030273,1.001465,0.365854,1.341463,-0.548781,-5.306250,18.243750,19.812500,31.039,0.56837468,-0.00983536,-0.02886666,-0.82220448
'00:17:20.524,0.060059,0.030273,1.003418,0.304878,1.341463,-0.548781,-4.912500,17.762501,19.425001,31.084,0.56837689,-0.00983532,-0.02886999,-0.82220283
'00:17:20.534,0.060059,0.029785,1.003418,0.365854,1.341463,-0.548781,-4.912500,17.762501,19.425001,31.008,0.56837979,-0.00983415,-0.02887573,-0.82220064
'00:17:20.544,0.060547,0.028809,1.005859,0.304878,1.341463,-0.548781,-4.825000,17.550001,19.337500,31.069,0.56838421,-0.00984418,-0.02887429,-0.82219752
'00:17:20.554,0.060059,0.028320,1.007324,0.426829,1.341463,-0.548781,-4.825000,17.550001,19.337500,31.024,0.56838885,-0.00984691,-0.02887637,-0.82219421
'00:17:20.564,0.059570,0.027832,1.004883,0.365854,1.280488,-0.609756,-4.825000,17.593750,19.375000,31.084,0.56838986,-0.00985728,-0.02887436,-0.82219345
'00:17:20.574,0.059570,0.029785,1.005859,0.426829,1.341463,-0.609756,-4.825000,17.593750,19.375000,31.069,0.56839067,-0.00985223,-0.02888438,-0.82219260
'00:17:20.584,0.059082,0.029785,1.003906,0.365854,1.341463,-0.548781,-4.800000,17.568750,19.325001,30.993,0.56839714,-0.00984917,-0.02889019,-0.82218796
'00:17:20.594,0.059082,0.030762,1.001953,0.365854,1.341463,-0.609756,-4.800000,17.568750,19.325001,31.024,0.56839899,-0.00984252,-0.02890225,-0.82218634
'00:17:20.604,0.059082,0.031250,1.001953,0.365854,1.341463,-0.548781,-5.131250,17.987501,19.681250,31.008,0.56839094,-0.00982137,-0.02890066,-0.82219221
'00:17:20.614,0.060059,0.030762,1.001953,0.365854,1.341463,-0.609756,-5.131250,17.987501,19.681250,31.039,0.56837866,-0.00980760,-0.02890020,-0.82220088
'00:17:20.624,0.060547,0.028320,1.003418,0.365854,1.280488,-0.487805,-5.268750,18.206251,19.800001,31.024,0.56837113,-0.00980588,-0.02888547,-0.82220663
'00:17:20.634,0.060547,0.028320,1.003418,0.365854,1.280488,-0.487805,-5.268750,18.206251,19.800001,31.024,0.56836365,-0.00980423,-0.02887100,-0.82221232
'00:17:20.644,0.060547,0.028809,1.006348,0.365854,1.341463,-0.548781,-4.775000,17.506250,19.325001,31.069,0.56837075,-0.00981414,-0.02887681,-0.82220709
'00:17:20.654,0.061035,0.028320,1.007324,0.365854,1.402439,-0.609756,-4.775000,17.506250,19.325001,31.054,0.56837367,-0.00982373,-0.02887824,-0.82220491
'00:17:20.664,0.062012,0.029297,1.006348,0.365854,1.280488,-0.609756,-4.768750,17.500000,19.306250,31.069,0.56837636,-0.00984391,-0.02889573,-0.82220219
'00:17:20.674,0.060547,0.030762,1.003418,0.426829,1.402439,-0.609756,-4.768750,17.500000,19.306250,31.099,0.56837907,-0.00983876,-0.02891508,-0.82219970
'00:17:20.684,0.058594,0.030762,0.999512,0.304878,1.341463,-0.609756,-4.818750,17.575001,19.350000,31.024,0.56837963,-0.00983209,-0.02892017,-0.82219922
'00:17:20.694,0.058594,0.031250,0.999512,0.365854,1.280488,-0.548781,-4.818750,17.575001,19.350000,31.008,0.56838435,-0.00982509,-0.02893529,-0.82219550
'00:17:20.704,0.058105,0.029785,1.000000,0.365854,1.280488,-0.548781,-5.012500,17.800001,19.500000,31.084,0.56838077,-0.00981307,-0.02892997,-0.82219831
'00:17:20.714,0.057129,0.029785,1.002930,0.243902,1.280488,-0.487805,-5.012500,17.800001,19.500000,31.099,0.56838154,-0.00980148,-0.02891108,-0.82219858
'00:17:20.725,0.059570,0.028809,1.008301,0.243902,1.280488,-0.609756,-5.212500,18.068750,19.725000,31.114,0.56836431,-0.00979825,-0.02888307,-0.82221152
'00:17:20.734,0.060059,0.027832,1.008789,0.304878,1.280488,-0.548781,-4.881250,17.637501,19.456251,31.054,0.56836638,-0.00981045,-0.02887452,-0.82221024
'00:17:20.744,0.061035,0.027832,1.007324,0.426829,1.280488,-0.548781,-4.881250,17.637501,19.456251,31.084,0.56836872,-0.00982346,-0.02887819,-0.82220834
'00:17:20.754,0.060547,0.028809,1.005371,0.304878,1.341463,-0.609756,-4.781250,17.550001,19.362501,31.008,0.56837176,-0.00983645,-0.02888037,-0.82220600
'00:17:20.764,0.059082,0.029297,1.001953,0.365854,1.341463,-0.548781,-4.781250,17.550001,19.362501,31.084,0.56837913,-0.00983704,-0.02888526,-0.82220073
'00:17:20.774,0.057617,0.032227,1.000488,0.365854,1.341463,-0.548781,-4.781250,17.531250,19.387501,31.054,0.56838532,-0.00981782,-0.02890117,-0.82219612
'00:17:20.784,0.059082,0.030762,0.999512,0.365854,1.341463,-0.548781,-4.781250,17.531250,19.387501,31.054,0.56839175,-0.00981313,-0.02891454,-0.82219126
'00:17:20.794,0.061035,0.029297,1.001953,0.243902,1.219512,-0.548781,-4.956250,17.718750,19.481251,31.099,0.56838996,-0.00983146,-0.02891390,-0.82219231
'00:17:20.804,0.061523,0.030273,1.006348,0.365854,1.280488,-0.609756,-4.956250,17.718750,19.481251,31.069,0.56838384,-0.00983687,-0.02892459,-0.82219610
'00:17:20.814,0.061523,0.028320,1.007324,0.243902,1.341463,-0.548781,-5.118750,17.993750,19.643751,31.039,0.56837740,-0.00984588,-0.02890606,-0.82220108
'00:17:20.824,0.060547,0.028320,1.006348,0.304878,1.341463,-0.609756,-5.118750,17.993750,19.643751,31.054,0.56836671,-0.00984658,-0.02888896,-0.82220907
'00:17:20.834,0.059082,0.028320,1.004395,0.243902,1.280488,-0.548781,-5.012500,17.868750,19.556250,31.039,0.56836482,-0.00985163,-0.02887102,-0.82221095
'00:17:20.844,0.056152,0.030762,1.001465,0.426829,1.402439,-0.609756,-5.012500,17.868750,19.556250,31.008,0.56835859,-0.00981368,-0.02886404,-0.82221595
'00:17:20.856,0.058594,0.031738,1.001953,0.365854,1.402439,-0.548781,-4.800000,17.581251,19.387501,31.069,0.56836633,-0.00979397,-0.02888019,-0.82221027
'00:17:20.864,0.058105,0.030762,1.002930,0.365854,1.341463,-0.548781,-4.800000,17.581251,19.387501,31.054,0.56837155,-0.00978529,-0.02888688,-0.82220653
'00:17:20.875,0.059570,0.031738,1.004395,0.243902,1.341463,-0.548781,-4.812500,17.593750,19.418751,31.054,0.56837753,-0.00978394,-0.02889722,-0.82220205
'00:17:20.884,0.061523,0.029297,1.004883,0.304878,1.341463,-0.548781,-4.812500,17.593750,19.418751,31.008,0.56838284,-0.00979841,-0.02890356,-0.82219798
'00:17:20.894,0.063965,0.027832,1.005859,0.243902,1.280488,-0.548781,-4.806250,17.487501,19.381250,31.114,0.56838675,-0.00983941,-0.02890784,-0.82219464
'00:17:20.904,0.062500,0.027832,1.007324,0.304878,1.341463,-0.548781,-4.806250,17.487501,19.381250,31.039,0.56839085,-0.00986402,-0.02890709,-0.82219154
'00:17:20.914,0.060059,0.028809,1.005371,0.304878,1.341463,-0.548781,-4.856250,17.656250,19.400000,31.039,0.56839523,-0.00987063,-0.02890335,-0.82218856
'00:17:20.924,0.059570,0.029785,1.000977,0.365854,1.341463,-0.609756,-4.856250,17.656250,19.400000,31.024,0.56839505,-0.00986838,-0.02890943,-0.82218850
'00:17:20.934,0.058594,0.032227,1.002441,0.304878,1.280488,-0.609756,-4.943750,17.725000,19.456251,31.008,0.56838955,-0.00985414,-0.02891824,-0.82219216
'00:17:20.944,0.059082,0.030762,1.002930,0.304878,1.341463,-0.609756,-4.943750,17.725000,19.456251,31.084,0.56838453,-0.00984406,-0.02891738,-0.82219578
'00:17:20.954,0.058594,0.030273,1.005371,0.243902,1.341463,-0.548781,-4.781250,17.512501,19.350000,31.054,0.56839067,-0.00984261,-0.02891429,-0.82219166
'00:17:20.964,0.058594,0.028809,1.005859,0.243902,1.280488,-0.548781,-4.781250,17.512501,19.350000,31.054,0.56839696,-0.00985124,-0.02890572,-0.82218751
'00:17:20.975,0.060059,0.027832,1.006836,0.304878,1.341463,-0.548781,-4.775000,17.543751,19.343750,31.084,0.56840559,-0.00986626,-0.02889902,-0.82218161
'00:17:20.984,0.061035,0.027344,1.003418,0.304878,1.341463,-0.548781,-4.775000,17.543751,19.343750,31.054,0.56841263,-0.00988561,-0.02889569,-0.82217662
'00:17:20.994,0.059570,0.031738,1.004883,0.243902,1.341463,-0.609756,-4.818750,17.506250,19.400000,31.008,0.56841093,-0.00988080,-0.02890192,-0.82217764
'00:17:21.004,0.060547,0.030762,1.001953,0.243902,1.280488,-0.609756,-5.212500,18.062500,19.837500,31.084,0.56839399,-0.00987594,-0.02889280,-0.82218972
'00:17:21.014,0.062012,0.030273,1.000000,0.548781,1.524390,-0.548781,-5.212500,18.062500,19.837500,31.054,0.56838244,-0.00984903,-0.02889722,-0.82219788
'00:17:21.024,0.060547,0.031250,1.003418,0.060976,1.097561,-0.548781,-5.062500,17.931250,19.600000,31.054,0.56837713,-0.00987108,-0.02889495,-0.82220137
'00:17:21.034,0.063477,0.027832,1.006348,0.304878,1.341463,-0.548781,-5.062500,17.931250,19.600000,31.054,0.56837326,-0.00989155,-0.02888906,-0.82220400
'00:17:21.044,0.059082,0.029297,1.010254,0.304878,1.341463,-0.548781,-4.893750,17.606251,19.418751,31.039,0.56837379,-0.00988659,-0.02887855,-0.82220406
'00:17:21.054,0.059082,0.028320,1.007812,0.121951,1.097561,-0.548781,-4.893750,17.606251,19.418751,31.054,0.56837377,-0.00991259,-0.02886264,-0.82220432
'00:17:21.064,0.059082,0.028320,1.002441,0.365854,1.341463,-0.548781,-4.806250,17.581251,19.375000,31.069,0.56838017,-0.00991471,-0.02886069,-0.82219994
'00:17:21.074,0.056641,0.029785,1.000000,0.609756,1.585366,-0.609756,-4.806250,17.581251,19.375000,30.993,0.56838277,-0.00986814,-0.02886399,-0.82219858
'00:17:21.085,0.054688,0.033691,1.002441,0.487805,1.463415,-0.609756,-4.862500,17.543751,19.356251,31.054,0.56837919,-0.00979999,-0.02887393,-0.82220153
'00:17:21.094,0.060547,0.029297,1.000977,0.426829,1.463415,-0.548781,-4.862500,17.543751,19.356251,30.978,0.56838093,-0.00979331,-0.02887656,-0.82220031
'00:17:21.104,0.059082,0.031738,1.002930,0.121951,1.158537,-0.548781,-4.925000,17.718750,19.462500,31.008,0.56838078,-0.00980379,-0.02887918,-0.82220020
'00:17:21.114,0.059570,0.030762,1.006836,0.365854,1.402439,-0.548781,-4.925000,17.718750,19.462500,31.039,0.56838166,-0.00979025,-0.02888195,-0.82219965
'00:17:21.124,0.063477,0.027832,1.006348,0.304878,1.219512,-0.487805,-5.137500,18.012501,19.656250,31.039,0.56837870,-0.00981761,-0.02887863,-0.82220149
'00:17:21.134,0.062012,0.027832,1.006836,0.365854,1.341463,-0.548781,-5.137500,18.012501,19.656250,31.039,0.56837173,-0.00982473,-0.02886802,-0.82220660
'00:17:21.144,0.062012,0.026855,1.002441,0.487805,1.402439,-0.609756,-4.862500,17.612501,19.443750,31.054,0.56837091,-0.00983669,-0.02887115,-0.82220691
'00:17:21.154,0.058105,0.029297,1.001953,0.365854,1.280488,-0.548781,-4.862500,17.612501,19.443750,31.054,0.56837365,-0.00983231,-0.02887038,-0.82220510
'00:17:21.164,0.059570,0.032227,0.999512,0.487805,1.524390,-0.609756,-4.831250,17.581251,19.387501,31.039,0.56837370,-0.00980272,-0.02889148,-0.82220467
'00:17:21.174,0.061035,0.030273,1.000488,0.243902,1.280488,-0.548781,-4.831250,17.581251,19.387501,31.008,0.56837769,-0.00981890,-0.02890098,-0.82220139
'00:17:21.184,0.058105,0.032227,1.004883,0.182927,1.219512,-0.548781,-4.825000,17.518751,19.343750,30.993,0.56838027,-0.00981672,-0.02890602,-0.82219945
'00:17:21.196,0.058594,0.030273,1.006836,0.243902,1.341463,-0.609756,-4.825000,17.518751,19.343750,31.054,0.56837904,-0.00981184,-0.02889805,-0.82220064
'00:17:21.204,0.060547,0.027344,1.006836,0.304878,1.341463,-0.609756,-4.962500,17.693750,19.450001,31.084,0.56837411,-0.00981946,-0.02888391,-0.82220446
'00:17:21.214,0.060547,0.025879,1.006348,0.304878,1.280488,-0.548781,-4.962500,17.693750,19.450001,31.054,0.56837248,-0.00983918,-0.02886144,-0.82220613
'00:17:21.224,0.059082,0.028809,1.006836,0.426829,1.341463,-0.609756,-5.087500,17.900000,19.625000,31.084,0.56836191,-0.00982460,-0.02885085,-0.82221399
'00:17:21.234,0.059082,0.031738,1.001465,0.487805,1.463415,-0.609756,-5.087500,17.900000,19.625000,31.054,0.56835112,-0.00978832,-0.02885721,-0.82222166
'00:17:21.244,0.060547,0.031250,0.999023,0.304878,1.280488,-0.609756,-5.050000,17.806250,19.525000,31.024,0.56834057,-0.00978581,-0.02886417,-0.82222874
'00:17:21.254,0.059570,0.032227,1.000977,0.182927,1.219512,-0.548781,-4.756250,17.512501,19.306250,31.084,0.56834813,-0.00979727,-0.02888266,-0.82222273
'00:17:21.264,0.060547,0.030762,1.003906,0.243902,1.341463,-0.609756,-4.756250,17.512501,19.306250,31.084,0.56835190,-0.00980722,-0.02889340,-0.82221962
'00:17:21.275,0.060547,0.026855,1.005371,0.243902,1.280488,-0.548781,-4.800000,17.506250,19.312500,31.099,0.56835799,-0.00983641,-0.02887925,-0.82221556
'00:17:21.284,0.060547,0.026367,1.009766,0.304878,1.219512,-0.548781,-4.800000,17.506250,19.312500,31.069,0.56836296,-0.00986193,-0.02887047,-0.82221213
'00:17:21.294,0.059082,0.027832,1.008789,0.426829,1.341463,-0.609756,-4.781250,17.537500,19.381250,31.039,0.56836600,-0.00986320,-0.02886855,-0.82221008
'00:17:21.304,0.060059,0.029785,1.003418,0.487805,1.341463,-0.548781,-4.781250,17.537500,19.381250,31.084,0.56837295,-0.00986045,-0.02888800,-0.82220462
'00:17:21.314,0.059570,0.032227,1.000000,0.365854,1.402439,-0.548781,-5.143750,17.987501,19.625000,31.054,0.56836430,-0.00983324,-0.02889091,-0.82221083
'00:17:21.324,0.057129,0.032227,0.998047,0.304878,1.341463,-0.548781,-5.143750,17.987501,19.625000,31.069,0.56835554,-0.00980087,-0.02888403,-0.82221751
'00:17:21.336,0.060059,0.031738,0.997559,0.243902,1.280488,-0.548781,-5.106250,17.993750,19.662500,31.054,0.56834792,-0.00979588,-0.02888816,-0.82222269
'00:17:21.344,0.061035,0.030273,1.004395,0.121951,1.280488,-0.548781,-5.106250,17.993750,19.662500,31.054,0.56834304,-0.00980508,-0.02887815,-0.82222631
'00:17:21.354,0.061523,0.027344,1.009766,0.243902,1.219512,-0.548781,-4.825000,17.543751,19.343750,31.069,0.56834739,-0.00983755,-0.02887231,-0.82222312
'00:17:21.364,0.062012,0.025879,1.011719,0.304878,1.280488,-0.548781,-4.825000,17.543751,19.343750,31.099,0.56835218,-0.00987004,-0.02886073,-0.82221983
'00:17:21.374,0.060547,0.027344,1.007324,0.487805,1.402439,-0.548781,-4.818750,17.518751,19.356251,31.084,0.56835689,-0.00987163,-0.02886047,-0.82221656
'00:17:21.384,0.060547,0.027344,1.007324,0.487805,1.402439,-0.548781,-4.818750,17.518751,19.356251,31.084,0.56836159,-0.00987320,-0.02886020,-0.82221330
'00:17:21.394,0.057617,0.030762,1.002930,0.426829,1.402439,-0.548781,-4.787500,17.500000,19.318750,31.069,0.56836747,-0.00985051,-0.02886741,-0.82220925
'00:17:21.404,0.057617,0.033203,0.999023,0.426829,1.402439,-0.548781,-4.787500,17.500000,19.318750,31.084,0.56837280,-0.00981919,-0.02889005,-0.82220515
'00:17:21.414,0.057617,0.033203,0.998047,0.426829,1.402439,-0.548781,-4.850000,17.581251,19.356251,31.084,0.56837552,-0.00978600,-0.02890964,-0.82220298
'00:17:21.424,0.058594,0.030273,1.000977,0.243902,1.280488,-0.487805,-4.850000,17.581251,19.356251,31.054,0.56838280,-0.00978769,-0.02890779,-0.82219799
'00:17:21.435,0.061523,0.029297,1.006836,0.304878,1.280488,-0.548781,-5.137500,18.012501,19.606251,31.024,0.56837481,-0.00979489,-0.02890115,-0.82220366
'00:17:21.444,0.061035,0.028809,1.009277,0.304878,1.280488,-0.548781,-5.137500,18.012501,19.606251,31.054,0.56836840,-0.00979956,-0.02889092,-0.82220839
'00:17:21.454,0.063477,0.027344,1.008789,0.304878,1.341463,-0.609756,-4.912500,17.637501,19.443750,31.084,0.56836433,-0.00982708,-0.02888629,-0.82221104
'00:17:21.464,0.062500,0.026855,1.007812,0.487805,1.463415,-0.548781,-4.912500,17.637501,19.443750,31.084,0.56836519,-0.00983337,-0.02888265,-0.82221050
'00:17:21.475,0.060547,0.027832,1.002930,0.487805,1.463415,-0.609756,-4.700000,17.487501,19.306250,31.054,0.56837417,-0.00983731,-0.02889322,-0.82220387
'00:17:21.484,0.055176,0.032227,0.996582,0.548781,1.463415,-0.548781,-4.700000,17.487501,19.306250,30.993,0.56838477,-0.00979595,-0.02891167,-0.82219639
'00:17:21.494,0.056641,0.035156,0.998047,0.243902,1.341463,-0.609756,-4.818750,17.525000,19.337500,31.039,0.56838330,-0.00976405,-0.02892940,-0.82219717
'00:17:21.504,0.057129,0.033203,1.000977,0.182927,1.280488,-0.548781,-4.818750,17.525000,19.337500,31.039,0.56838646,-0.00975013,-0.02893504,-0.82219495
'00:17:21.516,0.059082,0.029297,1.007812,0.182927,1.158537,-0.548781,-4.762500,17.487501,19.287500,31.084,0.56839481,-0.00977749,-0.02893248,-0.82218894
'00:17:21.524,0.061523,0.025391,1.010742,0.304878,1.280488,-0.548781,-5.137500,17.918751,19.662500,31.084,0.56838767,-0.00979311,-0.02890697,-0.82219459
'00:17:21.534,0.063965,0.025391,1.008789,0.365854,1.341463,-0.548781,-5.137500,17.918751,19.662500,31.039,0.56837892,-0.00981857,-0.02888679,-0.82220104
'00:17:21.544,0.063477,0.028320,1.004395,0.426829,1.402439,-0.609756,-5.068750,17.893751,19.600000,31.084,0.56836964,-0.00982699,-0.02888899,-0.82220728
'00:17:21.557,0.062012,0.031250,0.998535,0.365854,1.463415,-0.609756,-5.068750,17.893751,19.600000,31.024,0.56835693,-0.00981280,-0.02889924,-0.82221588
'00:17:21.564,0.063965,0.032227,0.998535,0.304878,1.402439,-0.609756,-4.850000,17.543751,19.375000,31.054,0.56835504,-0.00982072,-0.02891923,-0.82221639
'00:17:21.574,0.059570,0.030762,1.000488,0.243902,1.219512,-0.548781,-4.850000,17.543751,19.375000,31.069,0.56835665,-0.00982926,-0.02892610,-0.82221492
'00:17:21.584,0.058594,0.030273,1.005859,0.304878,1.341463,-0.609756,-4.806250,17.500000,19.425001,31.084,0.56835621,-0.00982330,-0.02892474,-0.82221535
'00:17:21.596,0.058105,0.027832,1.007812,0.304878,1.280488,-0.609756,-4.806250,17.500000,19.425001,31.054,0.56835617,-0.00982932,-0.02890686,-0.82221593
'00:17:21.605,0.057129,0.027344,1.007812,0.365854,1.280488,-0.548781,-4.781250,17.487501,19.306250,31.039,0.56836203,-0.00982900,-0.02889350,-0.82221236
'00:17:21.614,0.053223,0.029297,1.004883,0.426829,1.463415,-0.609756,-4.781250,17.487501,19.306250,31.054,0.56836415,-0.00978785,-0.02887338,-0.82221209
'00:17:21.624,0.054199,0.030762,1.001465,0.426829,1.402439,-0.548781,-5.125000,17.937500,19.593750,31.069,0.56835635,-0.00973495,-0.02885216,-0.82221885
'00:17:21.635,0.057617,0.033203,0.999023,0.304878,1.341463,-0.548781,-5.125000,17.937500,19.593750,31.024,0.56834701,-0.00969994,-0.02885337,-0.82222568
'00:17:21.644,0.060547,0.034668,0.998535,0.304878,1.341463,-0.487805,-5.068750,17.893751,19.556250,31.024,0.56834562,-0.00968356,-0.02887484,-0.82222608
'00:17:21.654,0.063477,0.031738,1.004395,0.182927,1.280488,-0.487805,-5.068750,17.893751,19.556250,31.024,0.56834441,-0.00970196,-0.02888500,-0.82222635
'00:17:21.664,0.066406,0.025879,1.008789,0.243902,1.219512,-0.548781,-4.812500,17.512501,19.318750,31.054,0.56834922,-0.00976858,-0.02889030,-0.82222205
'00:17:21.675,0.066895,0.025879,1.008789,0.304878,1.341463,-0.548781,-4.812500,17.512501,19.318750,31.084,0.56835472,-0.00983066,-0.02889609,-0.82221730
'00:17:21.684,0.065430,0.026367,1.008301,0.426829,1.341463,-0.670732,-4.825000,17.543751,19.312500,31.084,0.56835120,-0.00986583,-0.02890603,-0.82221896
'00:17:21.694,0.061523,0.027832,1.006348,0.487805,1.402439,-0.609756,-4.825000,17.543751,19.312500,31.084,0.56835167,-0.00987072,-0.02891225,-0.82221836
'00:17:21.704,0.057129,0.030273,1.001953,0.426829,1.402439,-0.609756,-4.793750,17.481251,19.343750,31.054,0.56835224,-0.00984664,-0.02891337,-0.82221822
'00:17:21.716,0.052734,0.032715,0.999023,0.304878,1.280488,-0.609756,-4.793750,17.481251,19.343750,31.008,0.56835197,-0.00979502,-0.02890899,-0.82221917
'00:17:21.724,0.052734,0.033203,0.999512,0.304878,1.341463,-0.548781,-4.850000,17.556250,19.387501,31.039,0.56835355,-0.00975457,-0.02890368,-0.82221875
'00:17:21.734,0.054199,0.032715,1.001953,0.182927,1.280488,-0.548781,-4.850000,17.556250,19.387501,31.054,0.56835543,-0.00972487,-0.02889345,-0.82221816
'00:17:21.744,0.057617,0.030273,1.004883,0.304878,1.280488,-0.548781,-5.068750,17.950001,19.637501,31.054,0.56835126,-0.00971111,-0.02888270,-0.82222158
'00:17:21.756,0.062012,0.026855,1.009766,0.365854,1.280488,-0.548781,-5.068750,17.950001,19.637501,31.039,0.56834712,-0.00973436,-0.02887033,-0.82222460
'00:17:21.764,0.064941,0.026855,1.008301,0.426829,1.341463,-0.548781,-4.837500,17.568750,19.400000,31.008,0.56835061,-0.00976341,-0.02887982,-0.82222151
'00:17:21.774,0.065918,0.027832,1.006348,0.426829,1.402439,-0.609756,-4.775000,17.500000,19.331251,31.024,0.56835341,-0.00979953,-0.02890191,-0.82221837
'00:17:21.784,0.065430,0.029785,1.001953,0.365854,1.402439,-0.548781,-4.775000,17.500000,19.331251,31.084,0.56835998,-0.00982900,-0.02893013,-0.82221249
'00:17:21.797,0.063477,0.032227,0.998535,0.304878,1.341463,-0.548781,-4.756250,17.481251,19.387501,31.054,0.56836830,-0.00985228,-0.02897591,-0.82220484
'00:17:21.804,0.060547,0.030273,0.999023,0.304878,1.341463,-0.548781,-4.756250,17.481251,19.387501,31.054,0.56837308,-0.00985847,-0.02898408,-0.82220118
'00:17:21.814,0.057617,0.031250,1.001953,0.243902,1.280488,-0.548781,-4.812500,17.525000,19.393751,31.069,0.56837667,-0.00985081,-0.02898380,-0.82219880
'00:17:21.824,0.057129,0.029297,1.005371,0.243902,1.219512,-0.609756,-4.812500,17.525000,19.393751,31.114,0.56837620,-0.00985179,-0.02897218,-0.82219952
'00:17:21.836,0.057129,0.028320,1.008301,0.304878,1.280488,-0.548781,-5.168750,18.050001,19.687500,31.039,0.56836577,-0.00983278,-0.02893465,-0.82220828
'00:17:21.844,0.057129,0.028809,1.007324,0.304878,1.341463,-0.548781,-5.168750,18.050001,19.687500,31.069,0.56835896,-0.00981557,-0.02891017,-0.82221405
'00:17:21.854,0.057129,0.030762,1.004395,0.365854,1.341463,-0.609756,-5.168750,18.062500,19.762501,31.069,0.56834579,-0.00978458,-0.02889641,-0.82222401
'00:17:21.864,0.058594,0.030762,1.002930,0.365854,1.402439,-0.548781,-5.168750,18.062500,19.762501,31.054,0.56833723,-0.00975818,-0.02888603,-0.82223061
'00:17:21.877,0.061035,0.031250,1.000000,0.304878,1.280488,-0.548781,-4.825000,17.537500,19.437500,30.993,0.56834140,-0.00977137,-0.02891110,-0.82222668
'00:17:21.884,0.062500,0.031250,1.000488,0.304878,1.280488,-0.548781,-4.825000,17.537500,19.437500,31.039,0.56834355,-0.00978391,-0.02892811,-0.82222445
'00:17:21.894,0.062988,0.029785,1.002930,0.243902,1.280488,-0.548781,-4.831250,17.531250,19.325001,31.039,0.56834672,-0.00981165,-0.02893981,-0.82222152
'00:17:21.904,0.061523,0.027832,1.009277,0.304878,1.280488,-0.548781,-4.831250,17.531250,19.325001,31.024,0.56835038,-0.00983410,-0.02893649,-0.82221884
'00:17:21.916,0.062012,0.028320,1.008301,0.365854,1.341463,-0.548781,-4.768750,17.537500,19.287500,31.039,0.56836041,-0.00985759,-0.02894628,-0.82221128
'00:17:21.924,0.061035,0.027832,1.007324,0.426829,1.341463,-0.609756,-4.768750,17.537500,19.287500,31.024,0.56836368,-0.00986782,-0.02895126,-0.82220872
'00:17:21.934,0.059570,0.029297,1.004883,0.426829,1.402439,-0.548781,-4.818750,17.575001,19.393751,31.114,0.56836894,-0.00986064,-0.02895462,-0.82220505
'00:17:21.945,0.056152,0.031738,0.998535,0.365854,1.402439,-0.609756,-4.818750,17.575001,19.393751,31.008,0.56836934,-0.00982573,-0.02895697,-0.82220511
'00:17:21.956,0.055664,0.032715,0.995605,0.365854,1.341463,-0.548781,-4.981250,17.812500,19.562500,31.069,0.56836729,-0.00978338,-0.02895993,-0.82220693
'00:17:21.964,0.057129,0.032715,1.000000,0.243902,1.280488,-0.548781,-4.981250,17.812500,19.562500,31.084,0.56836565,-0.00976729,-0.02896064,-0.82220823
'00:17:21.974,0.060547,0.026855,1.006348,0.243902,1.341463,-0.548781,-4.787500,17.568750,19.400000,31.054,0.56837324,-0.00979163,-0.02894552,-0.82220322
'00:17:21.984,0.060059,0.023926,1.011230,0.365854,1.280488,-0.548781,-4.787500,17.568750,19.400000,31.069,0.56838140,-0.00982157,-0.02892200,-0.82219805
'00:17:21.996,0.061523,0.023926,1.010742,0.426829,1.280488,-0.548781,-4.743750,17.500000,19.331251,31.024,0.56839320,-0.00986508,-0.02890870,-0.82218984
'00:17:22.004,0.060547,0.030273,1.006348,0.365854,1.341463,-0.609756,-4.743750,17.500000,19.331251,31.024,0.56839654,-0.00986892,-0.02892124,-0.82218705
'00:17:22.014,0.059082,0.034180,1.004395,0.365854,1.402439,-0.548781,-4.793750,17.556250,19.375000,31.024,0.56840202,-0.00984399,-0.02894821,-0.82218261
'00:17:22.024,0.060547,0.033203,0.999512,0.426829,1.402439,-0.548781,-4.793750,17.556250,19.375000,31.039,0.56840764,-0.00982938,-0.02898128,-0.82217773
'00:17:22.037,0.061523,0.029297,0.995605,0.365854,1.341463,-0.609756,-5.062500,17.981251,19.618750,31.054,0.56839776,-0.00983543,-0.02898550,-0.82218434
'00:17:22.044,0.061523,0.028809,0.998535,0.243902,1.219512,-0.548781,-5.131250,17.987501,19.637501,31.054,0.56839216,-0.00984725,-0.02897960,-0.82218828
'00:17:22.054,0.061523,0.028320,1.005371,0.243902,1.280488,-0.548781,-5.131250,17.987501,19.637501,31.039,0.56838447,-0.00985996,-0.02896288,-0.82219403
'00:17:22.064,0.062500,0.028320,1.005859,0.243902,1.341463,-0.609756,-4.843750,17.587500,19.381250,31.084,0.56838368,-0.00988441,-0.02895972,-0.82219440
'00:17:22.074,0.062988,0.027344,1.010254,0.243902,1.219512,-0.609756,-4.843750,17.587500,19.381250,31.039,0.56838275,-0.00992267,-0.02895726,-0.82219466
'00:17:22.084,0.056641,0.029785,1.006836,0.304878,1.341463,-0.609756,-4.806250,17.568750,19.387501,31.039,0.56838398,-0.00990687,-0.02894617,-0.82219439
'00:17:22.094,0.055664,0.029785,1.003418,0.365854,1.463415,-0.609756,-4.806250,17.568750,19.387501,31.129,0.56838563,-0.00987475,-0.02893111,-0.82219417
'00:17:22.104,0.056641,0.029785,0.998535,0.365854,1.341463,-0.548781,-4.818750,17.556250,19.312500,31.114,0.56839048,-0.00985742,-0.02892702,-0.82219117
'00:17:22.116,0.056641,0.029785,0.998535,0.365854,1.341463,-0.548781,-4.818750,17.556250,19.312500,31.114,0.56839633,-0.00983693,-0.02892221,-0.82218754
'00:17:22.124,0.056641,0.032227,0.999512,0.365854,1.341463,-0.548781,-4.837500,17.618750,19.418751,31.114,0.56839962,-0.00981558,-0.02892974,-0.82218526
'00:17:22.134,0.057129,0.030762,1.000977,0.304878,1.341463,-0.609756,-4.837500,17.618750,19.418751,31.054,0.56839964,-0.00980033,-0.02892770,-0.82218550
'00:17:22.144,0.059570,0.029297,1.004395,0.243902,1.341463,-0.548781,-5.131250,17.950001,19.731251,31.024,0.56839085,-0.00979507,-0.02890601,-0.82219240
'00:17:22.154,0.062500,0.028809,1.005859,0.243902,1.280488,-0.548781,-5.131250,17.950001,19.731251,31.054,0.56838202,-0.00981176,-0.02889558,-0.82219867
'00:17:22.165,0.062012,0.028320,1.008789,0.243902,1.280488,-0.548781,-5.168750,18.068750,19.781250,31.008,0.56837257,-0.00982783,-0.02887801,-0.82220563
'00:17:22.174,0.062988,0.028809,1.005859,0.365854,1.402439,-0.609756,-5.168750,18.068750,19.781250,31.069,0.56836118,-0.00983101,-0.02887312,-0.82221364
'00:17:22.184,0.062500,0.028320,1.003906,0.365854,1.341463,-0.548781,-4.806250,17.537500,19.287500,31.069,0.56836694,-0.00985201,-0.02888296,-0.82220906
'00:17:22.196,0.062500,0.027832,1.001953,0.487805,1.402439,-0.609756,-4.806250,17.537500,19.287500,31.054,0.56836893,-0.00986694,-0.02889905,-0.82220694
'00:17:22.205,0.058594,0.031250,1.000000,0.426829,1.402439,-0.548781,-4.812500,17.575001,19.412500,31.024,0.56837368,-0.00985001,-0.02891160,-0.82220342
'00:17:22.214,0.057617,0.031250,0.999512,0.304878,1.280488,-0.609756,-4.812500,17.575001,19.412500,31.084,0.56837414,-0.00984160,-0.02891835,-0.82220296
'00:17:22.224,0.055664,0.030762,1.004883,0.182927,1.219512,-0.670732,-4.793750,17.506250,19.400000,31.039,0.56836997,-0.00983265,-0.02890734,-0.82220634
'00:17:22.236,0.055176,0.033203,1.008789,0.121951,1.219512,-0.609756,-4.793750,17.506250,19.400000,31.039,0.56836963,-0.00981010,-0.02890166,-0.82220704
'00:17:22.244,0.058105,0.027344,1.008789,0.304878,1.402439,-0.609756,-4.925000,17.737501,19.500000,31.039,0.56836763,-0.00980563,-0.02887997,-0.82220924
'00:17:22.254,0.060059,0.026855,1.005859,0.365854,1.341463,-0.548781,-4.925000,17.737501,19.500000,31.084,0.56836946,-0.00981491,-0.02886647,-0.82220834
'00:17:22.264,0.061035,0.027832,1.006836,0.365854,1.280488,-0.548781,-4.993750,17.750000,19.518751,31.024,0.56836646,-0.00982583,-0.02886009,-0.82221051
'00:17:22.276,0.061523,0.028809,1.003906,0.487805,1.341463,-0.548781,-4.993750,17.750000,19.518751,31.054,0.56836288,-0.00982570,-0.02886957,-0.82221265
'00:17:22.285,0.062500,0.028809,1.001953,0.426829,1.402439,-0.609756,-4.812500,17.518751,19.387501,31.069,0.56836304,-0.00983634,-0.02888190,-0.82221197
'00:17:22.294,0.061523,0.029785,0.998535,0.304878,1.341463,-0.609756,-4.818750,17.518751,19.325001,31.099,0.56836262,-0.00984802,-0.02889140,-0.82221180
'00:17:22.305,0.060059,0.031250,0.999512,0.304878,1.341463,-0.609756,-4.818750,17.518751,19.325001,31.084,0.56836178,-0.00984654,-0.02890533,-0.82221190
'00:17:22.316,0.059082,0.032715,1.000000,0.243902,1.280488,-0.548781,-4.843750,17.475000,19.306250,31.024,0.56836222,-0.00983849,-0.02891896,-0.82221121
'00:17:22.324,0.059570,0.030762,1.004395,0.243902,1.219512,-0.548781,-4.843750,17.475000,19.306250,31.024,0.56836277,-0.00984383,-0.02892234,-0.82221066
'00:17:22.334,0.059082,0.030273,1.007812,0.182927,1.280488,-0.487805,-5.118750,17.856251,19.662500,31.024,0.56835693,-0.00983770,-0.02890046,-0.82221554
'00:17:22.344,0.060547,0.027344,1.009277,0.304878,1.341463,-0.609756,-5.118750,17.856251,19.662500,31.069,0.56834325,-0.00983987,-0.02887355,-0.82222591
'00:17:22.354,0.061523,0.026855,1.006348,0.304878,1.341463,-0.548781,-5.087500,17.918751,19.587500,31.054,0.56833793,-0.00985249,-0.02885329,-0.82223014
'00:17:22.364,0.059570,0.029785,1.003418,0.365854,1.341463,-0.548781,-5.087500,17.918751,19.587500,31.084,0.56833213,-0.00984078,-0.02884766,-0.82223450
'00:17:22.374,0.060059,0.031738,1.001465,0.304878,1.341463,-0.548781,-4.856250,17.637501,19.468750,31.054,0.56833545,-0.00983726,-0.02886268,-0.82223171
'00:17:22.384,0.061523,0.030762,1.000000,0.365854,1.341463,-0.548781,-4.856250,17.637501,19.468750,31.054,0.56833894,-0.00984303,-0.02888251,-0.82222854
'00:17:22.394,0.059570,0.030273,1.000977,0.304878,1.280488,-0.548781,-4.862500,17.556250,19.343750,31.084,0.56834051,-0.00984511,-0.02888777,-0.82222724
'00:17:22.404,0.059570,0.026367,1.003418,0.304878,1.341463,-0.548781,-4.862500,17.556250,19.343750,31.069,0.56834306,-0.00985755,-0.02886686,-0.82222606
'00:17:22.414,0.058105,0.025879,1.008301,0.304878,1.280488,-0.548781,-4.825000,17.575001,19.456251,31.039,0.56834824,-0.00986988,-0.02884187,-0.82222321
'00:17:22.424,0.056641,0.029785,1.008789,0.426829,1.402439,-0.548781,-4.825000,17.575001,19.456251,30.978,0.56835308,-0.00984363,-0.02883629,-0.82222038
'00:17:22.434,0.056641,0.031738,1.007324,0.365854,1.402439,-0.609756,-4.793750,17.531250,19.312500,31.084,0.56835487,-0.00981422,-0.02883996,-0.82221937
'00:17:22.444,0.058105,0.031738,1.003418,0.365854,1.341463,-0.609756,-4.793750,17.531250,19.312500,31.054,0.56835645,-0.00979854,-0.02885387,-0.82221797
'00:17:22.454,0.060547,0.029297,1.001465,0.365854,1.341463,-0.487805,-5.200000,18.125000,19.762501,31.069,0.56835177,-0.00979212,-0.02884616,-0.82222155
'00:17:22.464,0.061035,0.027832,0.997559,0.426829,1.341463,-0.548781,-5.200000,18.125000,19.762501,31.054,0.56834308,-0.00979174,-0.02883830,-0.82222784
'00:17:22.474,0.064453,0.031250,1.002441,0.243902,1.280488,-0.548781,-4.981250,17.812500,19.575001,31.099,0.56834136,-0.00981723,-0.02885989,-0.82222797
'00:17:22.484,0.065430,0.028809,1.005371,0.243902,1.280488,-0.548781,-4.981250,17.812500,19.575001,31.054,0.56834005,-0.00985635,-0.02886997,-0.82222805
'00:17:22.494,0.063477,0.028809,1.008789,0.304878,1.280488,-0.609756,-4.806250,17.468750,19.375000,31.039,0.56833916,-0.00988603,-0.02888130,-0.82222791
'00:17:22.504,0.060547,0.026367,1.010254,0.304878,1.341463,-0.609756,-4.806250,17.468750,19.375000,31.008,0.56833899,-0.00990401,-0.02886368,-0.82222843
'00:17:22.514,0.056152,0.027832,1.006348,0.426829,1.341463,-0.609756,-4.731250,17.487501,19.275000,31.039,0.56834494,-0.00989104,-0.02885438,-0.82222480
'00:17:22.524,0.053711,0.029785,1.003906,0.365854,1.341463,-0.609756,-4.731250,17.487501,19.275000,31.084,0.56835052,-0.00986024,-0.02884340,-0.82222170
'00:17:22.534,0.051758,0.034180,0.999023,0.365854,1.341463,-0.548781,-4.787500,17.518751,19.325001,31.039,0.56835612,-0.00979941,-0.02884823,-0.82221838
'00:17:22.544,0.055176,0.034668,1.000488,0.304878,1.280488,-0.548781,-4.787500,17.518751,19.325001,31.069,0.56836139,-0.00976413,-0.02886732,-0.82221449
'00:17:22.554,0.058105,0.032227,0.999512,0.304878,1.341463,-0.548781,-5.150000,18.031250,19.662500,31.039,0.56835326,-0.00973824,-0.02886455,-0.82222052
'00:17:22.564,0.062012,0.031250,1.003906,0.243902,1.219512,-0.487805,-5.093750,17.950001,19.637501,31.008,0.56835130,-0.00975079,-0.02887345,-0.82222141
'00:17:22.574,0.065430,0.026367,1.007812,0.243902,1.280488,-0.548781,-5.093750,17.950001,19.637501,31.084,0.56834601,-0.00979468,-0.02886356,-0.82222489
'00:17:22.584,0.067383,0.024902,1.011719,0.304878,1.280488,-0.609756,-4.806250,17.512501,19.318750,31.099,0.56834712,-0.00986102,-0.02886802,-0.82222317
'00:17:22.594,0.065430,0.025879,1.007324,0.426829,1.402439,-0.609756,-4.806250,17.512501,19.318750,31.084,0.56834838,-0.00989847,-0.02887477,-0.82222161
'00:17:22.604,0.061035,0.030762,1.002441,0.487805,1.402439,-0.609756,-4.875000,17.625000,19.412500,31.054,0.56834627,-0.00988798,-0.02889549,-0.82222247
'00:17:22.614,0.058105,0.032715,1.000000,0.365854,1.280488,-0.548781,-4.875000,17.625000,19.412500,31.008,0.56834776,-0.00986911,-0.02891391,-0.82222102
'00:17:22.624,0.055176,0.035156,1.000000,0.365854,1.402439,-0.609756,-4.812500,17.500000,19.437500,31.054,0.56834600,-0.00981717,-0.02893055,-0.82222228
'00:17:22.634,0.056641,0.030762,1.000488,0.243902,1.341463,-0.548781,-4.812500,17.500000,19.437500,31.069,0.56834934,-0.00980239,-0.02892152,-0.82222046
'00:17:22.644,0.056152,0.026855,1.005859,0.182927,1.219512,-0.548781,-4.843750,17.593750,19.375000,31.054,0.56835357,-0.00981057,-0.02888819,-0.82221861
'00:17:22.654,0.056641,0.026855,1.011719,0.365854,1.280488,-0.548781,-4.843750,17.593750,19.375000,31.084,0.56835817,-0.00980675,-0.02886522,-0.82221628
'00:17:22.664,0.057617,0.027344,1.010742,0.426829,1.341463,-0.548781,-4.981250,17.750000,19.487501,31.054,0.56835662,-0.00979348,-0.02884402,-0.82221825
'00:17:22.674,0.062012,0.029785,1.005371,0.487805,1.402439,-0.609756,-4.981250,17.750000,19.487501,31.054,0.56835031,-0.00978859,-0.02885705,-0.82222222
'00:17:22.684,0.061523,0.031250,1.000488,0.365854,1.402439,-0.548781,-4.825000,17.631250,19.400000,31.008,0.56835620,-0.00979027,-0.02887898,-0.82221736
'00:17:22.694,0.063965,0.031738,0.998047,0.304878,1.280488,-0.548781,-4.825000,17.631250,19.400000,31.039,0.56836142,-0.00981567,-0.02891531,-0.82221217
'00:17:22.704,0.063965,0.029297,0.999512,0.304878,1.341463,-0.548781,-4.850000,17.487501,19.381250,31.069,0.56836216,-0.00984204,-0.02892821,-0.82221089
'00:17:22.714,0.064941,0.027344,1.004395,0.243902,1.219512,-0.548781,-4.850000,17.487501,19.381250,31.069,0.56836288,-0.00989155,-0.02893324,-0.82220962
'00:17:22.724,0.062988,0.026855,1.009766,0.304878,1.280488,-0.609756,-4.750000,17.525000,19.318750,31.024,0.56836768,-0.00992935,-0.02893601,-0.82220575
'00:17:22.734,0.059082,0.027832,1.009277,0.304878,1.280488,-0.609756,-4.750000,17.525000,19.318750,31.084,0.56837237,-0.00994137,-0.02892929,-0.82220260
'00:17:22.744,0.057617,0.029785,1.007812,0.365854,1.341463,-0.609756,-4.775000,17.512501,19.331251,31.054,0.56837477,-0.00992858,-0.02892768,-0.82220115
'00:17:22.754,0.054199,0.031250,1.000977,0.426829,1.402439,-0.609756,-4.775000,17.512501,19.331251,31.084,0.56837714,-0.00988486,-0.02892513,-0.82220013
'00:17:22.764,0.055176,0.034180,0.999512,0.365854,1.341463,-0.548781,-5.056250,17.850000,19.625000,31.054,0.56837048,-0.00983270,-0.02892805,-0.82220526
'00:17:22.774,0.056641,0.032227,1.000488,0.243902,1.280488,-0.548781,-5.056250,17.850000,19.625000,31.039,0.56836407,-0.00980737,-0.02891958,-0.82221029
'00:17:22.784,0.058594,0.031250,0.998535,0.243902,1.341463,-0.548781,-5.006250,17.737501,19.500000,31.024,0.56835927,-0.00979413,-0.02891247,-0.82221401
'00:17:22.794,0.060547,0.028809,1.000977,0.243902,1.280488,-0.548781,-5.006250,17.737501,19.500000,31.024,0.56835485,-0.00980523,-0.02890136,-0.82221733
'00:17:22.804,0.061523,0.029297,1.006836,0.243902,1.280488,-0.548781,-4.806250,17.475000,19.256250,31.069,0.56835888,-0.00982624,-0.02890426,-0.82221419
'00:17:22.814,0.063477,0.026367,1.011230,0.243902,1.280488,-0.548781,-4.825000,17.500000,19.381250,31.008,0.56836218,-0.00986762,-0.02889513,-0.82221173
'00:17:22.824,0.063477,0.025879,1.008301,0.426829,1.463415,-0.548781,-4.825000,17.500000,19.381250,31.024,0.56836610,-0.00988880,-0.02888850,-0.82220900
'00:17:22.834,0.061523,0.028320,1.004883,0.426829,1.402439,-0.548781,-4.787500,17.456251,19.356251,31.099,0.56837106,-0.00989628,-0.02889452,-0.82220527
'00:17:22.844,0.058594,0.030273,1.000977,0.487805,1.402439,-0.548781,-4.787500,17.456251,19.356251,31.084,0.56837570,-0.00987740,-0.02890610,-0.82220188
'00:17:22.854,0.057617,0.032715,0.998535,0.365854,1.341463,-0.609756,-5.143750,18.056250,19.750000,31.054,0.56836347,-0.00984299,-0.02890901,-0.82221065
'00:17:22.864,0.057617,0.032715,0.998535,0.365854,1.341463,-0.609756,-5.143750,18.056250,19.750000,31.054,0.56835133,-0.00980912,-0.02891196,-0.82221934
'00:17:22.874,0.057129,0.032715,0.999512,0.243902,1.280488,-0.548781,-4.993750,17.743750,19.525000,31.024,0.56834706,-0.00978708,-0.02891131,-0.82222258
'00:17:22.884,0.056641,0.030762,1.003906,0.243902,1.219512,-0.548781,-4.993750,17.743750,19.525000,31.084,0.56834314,-0.00977384,-0.02889912,-0.82222587
'00:17:22.894,0.057129,0.028320,1.006348,0.304878,1.341463,-0.548781,-4.856250,17.693750,19.418751,31.069,0.56834888,-0.00976807,-0.02888223,-0.82222257
'00:17:22.904,0.061523,0.025879,1.009277,0.243902,1.280488,-0.548781,-4.856250,17.693750,19.418751,31.069,0.56835479,-0.00980278,-0.02886634,-0.82221863
'00:17:22.914,0.063965,0.026367,1.011719,0.426829,1.341463,-0.548781,-4.856250,17.537500,19.275000,31.054,0.56835767,-0.00983166,-0.02886845,-0.82221622
'00:17:22.924,0.063965,0.027832,1.004883,0.426829,1.341463,-0.548781,-4.856250,17.537500,19.275000,30.993,0.56836014,-0.00985608,-0.02888134,-0.82221377
'00:17:22.934,0.062012,0.031250,1.000000,0.365854,1.341463,-0.609756,-4.800000,17.518751,19.375000,31.084,0.56836046,-0.00986365,-0.02890728,-0.82221254
'00:17:22.944,0.060547,0.032227,0.999512,0.365854,1.341463,-0.548781,-4.800000,17.518751,19.375000,31.084,0.56836493,-0.00985931,-0.02893284,-0.82220860
'00:17:22.954,0.060059,0.033203,0.999023,0.304878,1.341463,-0.609756,-5.093750,17.900000,19.681250,31.054,0.56835246,-0.00984007,-0.02894303,-0.82221710
'00:17:22.964,0.058594,0.030273,1.001953,0.243902,1.280488,-0.548781,-5.093750,17.900000,19.681250,30.963,0.56834488,-0.00983142,-0.02892859,-0.82222295
'00:17:22.974,0.057617,0.028809,1.005859,0.304878,1.341463,-0.548781,-5.212500,18.162500,19.762501,31.008,0.56833586,-0.00981222,-0.02889993,-0.82223042
'00:17:22.984,0.056152,0.027832,1.006836,0.365854,1.341463,-0.609756,-5.212500,18.162500,19.762501,31.099,0.56832286,-0.00978577,-0.02886493,-0.82224095
'00:17:22.994,0.058105,0.028320,1.006836,0.365854,1.402439,-0.548781,-4.781250,17.537500,19.412500,31.099,0.56833044,-0.00978030,-0.02885556,-0.82223610
'00:17:23.004,0.057129,0.030273,1.004883,0.304878,1.402439,-0.548781,-4.781250,17.537500,19.412500,31.039,0.56833758,-0.00976511,-0.02885008,-0.82223154
'00:17:23.014,0.059082,0.031738,1.003418,0.365854,1.402439,-0.548781,-4.806250,17.500000,19.350000,31.084,0.56834199,-0.00975032,-0.02886285,-0.82222822
'00:17:23.024,0.061035,0.031738,1.000000,0.304878,1.402439,-0.548781,-4.806250,17.500000,19.350000,31.039,0.56834623,-0.00975032,-0.02888000,-0.82222469
'00:17:23.034,0.062012,0.030273,1.001953,0.304878,1.341463,-0.548781,-4.775000,17.518751,19.325001,31.024,0.56835329,-0.00976754,-0.02889748,-0.82221899
'00:17:23.044,0.062988,0.029297,1.002441,0.365854,1.341463,-0.548781,-4.775000,17.518751,19.325001,31.039,0.56836048,-0.00979055,-0.02891699,-0.82221306
'00:17:23.054,0.063477,0.028320,1.005859,0.304878,1.280488,-0.548781,-5.087500,17.881250,19.618750,31.039,0.56835361,-0.00981278,-0.02891374,-0.82221766
'00:17:23.064,0.062500,0.027832,1.008789,0.304878,1.341463,-0.609756,-5.087500,17.881250,19.618750,31.054,0.56834266,-0.00982614,-0.02890003,-0.82222555
'00:17:23.075,0.061035,0.028320,1.006836,0.365854,1.402439,-0.609756,-4.987500,17.812500,19.575001,31.069,0.56833660,-0.00982765,-0.02889091,-0.82223004
'00:17:23.084,0.060059,0.029785,1.003418,0.426829,1.402439,-0.609756,-4.887500,17.731251,19.387501,31.039,0.56833658,-0.00982086,-0.02889831,-0.82222987
'00:17:23.094,0.057129,0.031738,1.002441,0.365854,1.402439,-0.609756,-4.887500,17.731251,19.387501,31.069,0.56833619,-0.00979284,-0.02890219,-0.82223034
'00:17:23.104,0.055664,0.030762,1.001465,0.426829,1.402439,-0.609756,-4.781250,17.518751,19.250000,31.054,0.56833910,-0.00976109,-0.02890308,-0.82222868
'00:17:23.114,0.056641,0.029297,1.000488,0.304878,1.402439,-0.548781,-4.781250,17.518751,19.250000,31.084,0.56834658,-0.00974748,-0.02889105,-0.82222409
'00:17:23.125,0.056641,0.031250,1.002441,0.365854,1.402439,-0.609756,-4.800000,17.556250,19.400000,31.024,0.56834848,-0.00971996,-0.02889326,-0.82222302
'00:17:23.134,0.057617,0.028809,1.002930,0.304878,1.341463,-0.487805,-4.800000,17.556250,19.400000,31.024,0.56835820,-0.00971832,-0.02888446,-0.82221664
'00:17:23.144,0.061035,0.030273,1.007324,0.243902,1.280488,-0.609756,-4.812500,17.581251,19.325001,31.054,0.56835966,-0.00973517,-0.02889316,-0.82221512
'00:17:23.154,0.062012,0.029297,1.006836,0.365854,1.402439,-0.609756,-4.812500,17.581251,19.325001,31.084,0.56836164,-0.00974624,-0.02890281,-0.82221329
'00:17:23.164,0.062988,0.027832,1.004395,0.304878,1.341463,-0.548781,-5.062500,17.843750,19.556250,31.054,0.56835617,-0.00976514,-0.02889399,-0.82221715
'00:17:23.174,0.061523,0.030762,1.003418,0.304878,1.463415,-0.548781,-5.062500,17.843750,19.556250,31.039,0.56835043,-0.00975609,-0.02889036,-0.82222135
'00:17:23.184,0.062500,0.028809,1.002441,0.365854,1.341463,-0.548781,-5.062500,17.968750,19.706251,31.054,0.56834715,-0.00976809,-0.02889308,-0.82222338
'00:17:23.194,0.061035,0.029297,1.000488,0.365854,1.463415,-0.548781,-5.062500,17.968750,19.706251,31.039,0.56834409,-0.00976175,-0.02888764,-0.82222576
'00:17:23.205,0.060059,0.031250,1.002441,0.000000,1.097561,-0.548781,-4.800000,17.575001,19.337500,31.008,0.56835023,-0.00979928,-0.02889283,-0.82222089
'00:17:23.214,0.060059,0.028320,1.003906,0.060976,1.097561,-0.548781,-4.800000,17.575001,19.337500,31.084,0.56835579,-0.00983684,-0.02888536,-0.82221686
'00:17:23.224,0.059082,0.028320,1.003418,0.731707,1.768293,-0.609756,-4.787500,17.556250,19.418751,31.099,0.56835991,-0.00979200,-0.02888870,-0.82221443
'00:17:23.234,0.055176,0.033203,1.010254,0.060976,1.036585,-0.548781,-4.787500,17.556250,19.418751,31.069,0.56836520,-0.00979108,-0.02889011,-0.82221074
'00:17:23.244,0.060547,0.028320,1.004883,0.243902,1.341463,-0.609756,-4.775000,17.525000,19.337500,31.084,0.56836829,-0.00980958,-0.02888516,-0.82220855
'00:17:23.254,0.056641,0.030762,1.006836,0.670732,1.768293,-0.609756,-4.775000,17.525000,19.337500,31.024,0.56837245,-0.00974426,-0.02888765,-0.82220637
'00:17:23.264,0.060059,0.027832,1.001465,-0.060976,0.975610,-0.548781,-5.093750,17.981251,19.662500,31.054,0.56836650,-0.00979266,-0.02886166,-0.82221082
'00:17:23.274,0.060059,0.027832,1.001465,0.487805,1.463415,-0.609756,-5.093750,17.981251,19.662500,31.084,0.56835784,-0.00977809,-0.02885124,-0.82221734
'00:17:23.286,0.057129,0.030762,1.004395,0.487805,1.524390,-0.548781,-5.243750,18.137501,19.743750,31.054,0.56834446,-0.00971522,-0.02883123,-0.82222804
'00:17:23.294,0.059082,0.029785,1.005371,0.000000,1.097561,-0.609756,-5.243750,18.137501,19.743750,31.114,0.56833113,-0.00972904,-0.02880854,-0.82223788
'00:17:23.304,0.062012,0.028320,1.002441,0.121951,1.036585,-0.548781,-4.812500,17.500000,19.362501,31.084,0.56833469,-0.00978279,-0.02881449,-0.82223458
'00:17:23.314,0.060547,0.029297,1.003906,0.304878,1.341463,-0.548781,-4.812500,17.500000,19.362501,31.054,0.56833892,-0.00979253,-0.02881754,-0.82223143
'00:17:23.325,0.061035,0.029785,1.003906,0.487805,1.524390,-0.609756,-4.781250,17.468750,19.356251,31.008,0.56834087,-0.00978101,-0.02883236,-0.82222970
'00:17:23.334,0.060059,0.029785,1.003906,0.487805,1.463415,-0.548781,-4.800000,17.500000,19.331251,31.039,0.56834588,-0.00977018,-0.02884294,-0.82222600
'00:17:23.344,0.060059,0.029785,1.003906,0.243902,1.341463,-0.548781,-4.800000,17.500000,19.331251,31.054,0.56835091,-0.00977910,-0.02884308,-0.82222241
'00:17:23.354,0.059082,0.028320,1.004395,0.304878,1.341463,-0.548781,-5.018750,17.868750,19.537500,31.084,0.56834913,-0.00977746,-0.02882699,-0.82222422
'00:17:23.365,0.059082,0.029297,1.002441,0.548781,1.585366,-0.609756,-5.018750,17.868750,19.537500,31.084,0.56834307,-0.00973934,-0.02882241,-0.82222902
'00:17:23.374,0.055176,0.031738,1.007324,0.426829,1.463415,-0.548781,-5.006250,17.868750,19.587500,31.039,0.56834201,-0.00969412,-0.02881416,-0.82223058
'00:17:23.384,0.060547,0.027344,1.002441,0.304878,1.341463,-0.609756,-5.006250,17.868750,19.587500,31.024,0.56833688,-0.00970676,-0.02880043,-0.82223446
'00:17:23.394,0.055176,0.033691,1.006836,0.243902,1.280488,-0.609756,-4.887500,17.768751,19.387501,31.024,0.56833703,-0.00967668,-0.02880601,-0.82223452
'00:17:23.407,0.059082,0.028809,1.001953,0.487805,1.463415,-0.609756,-4.887500,17.768751,19.387501,31.054,0.56833926,-0.00965945,-0.02881047,-0.82223302
'00:17:23.414,0.057617,0.030762,1.005371,0.182927,1.158537,-0.548781,-4.831250,17.550001,19.337500,31.114,0.56834184,-0.00966498,-0.02881036,-0.82223117
'00:17:23.424,0.059570,0.029297,1.003906,0.426829,1.524390,-0.548781,-4.831250,17.550001,19.337500,31.024,0.56834686,-0.00965138,-0.02880936,-0.82222790
'00:17:23.434,0.061035,0.027832,1.003906,0.182927,1.219512,-0.548781,-4.768750,17.537500,19.350000,31.054,0.56835518,-0.00968956,-0.02880792,-0.82222175
'00:17:23.445,0.062012,0.031250,1.004883,0.365854,1.402439,-0.609756,-4.768750,17.537500,19.350000,31.069,0.56835926,-0.00969718,-0.02883582,-0.82221786
'00:17:23.454,0.061523,0.028809,1.004395,0.243902,1.280488,-0.487805,-4.881250,17.556250,19.375000,31.039,0.56836378,-0.00971714,-0.02883413,-0.82221456
'00:17:23.464,0.060547,0.029785,1.004395,0.365854,1.402439,-0.548781,-4.881250,17.556250,19.375000,31.069,0.56836462,-0.00971489,-0.02883675,-0.82221391
'00:17:23.474,0.061035,0.030273,1.002441,0.365854,1.341463,-0.548781,-4.968750,17.718750,19.481251,31.084,0.56836259,-0.00971546,-0.02884464,-0.82221503
'00:17:23.488,0.059082,0.030762,1.003906,0.243902,1.280488,-0.609756,-4.968750,17.718750,19.481251,31.024,0.56835322,-0.00971251,-0.02884015,-0.82222170
'00:17:23.494,0.058594,0.029297,1.004395,0.365854,1.402439,-0.609756,-5.087500,18.018751,19.675001,31.024,0.56834860,-0.00970277,-0.02883244,-0.82222528
'00:17:23.504,0.059082,0.029297,1.003906,0.304878,1.280488,-0.548781,-5.087500,18.018751,19.675001,31.054,0.56834496,-0.00970140,-0.02882342,-0.82222813
'00:17:23.514,0.058594,0.029785,1.004883,0.304878,1.280488,-0.548781,-4.812500,17.600000,19.362501,31.024,0.56835150,-0.00970512,-0.02882670,-0.82222345
'00:17:23.526,0.058594,0.029785,1.004883,0.365854,1.341463,-0.548781,-4.812500,17.600000,19.362501,31.144,0.56835955,-0.00970062,-0.02883215,-0.82221775
'00:17:23.534,0.059082,0.028320,1.004395,0.243902,1.341463,-0.548781,-4.806250,17.531250,19.387501,31.054,0.56836400,-0.00970896,-0.02882271,-0.82221490
'00:17:23.544,0.061523,0.029785,1.002930,0.304878,1.402439,-0.548781,-4.806250,17.531250,19.387501,31.024,0.56836933,-0.00971993,-0.02883077,-0.82221081
'00:17:23.554,0.061523,0.029297,1.002930,0.304878,1.341463,-0.609756,-4.793750,17.487501,19.287500,31.054,0.56837044,-0.00973669,-0.02883910,-0.82220955
'00:17:23.564,0.061035,0.029297,1.003418,0.304878,1.341463,-0.548781,-4.793750,17.487501,19.287500,31.039,0.56837590,-0.00975054,-0.02884513,-0.82220540
'00:17:23.574,0.061523,0.028809,1.002930,0.365854,1.341463,-0.548781,-5.200000,18.200001,19.743750,31.024,0.56836878,-0.00975236,-0.02883988,-0.82221049
'00:17:23.584,0.060547,0.029785,1.002930,0.304878,1.341463,-0.609756,-5.200000,18.200001,19.743750,31.039,0.56835709,-0.00974810,-0.02883211,-0.82221889
'00:17:23.594,0.060547,0.029785,1.002930,0.304878,1.341463,-0.609756,-5.106250,17.912500,19.625000,31.039,0.56834545,-0.00974513,-0.02882487,-0.82222722
'00:17:23.606,0.059082,0.029297,1.004395,0.365854,1.341463,-0.548781,-4.850000,17.543751,19.325001,31.069,0.56834899,-0.00974177,-0.02882446,-0.82222483
'00:17:23.614,0.058105,0.029785,1.004883,0.304878,1.341463,-0.548781,-4.850000,17.543751,19.325001,31.024,0.56835125,-0.00973604,-0.02881972,-0.82222351
'00:17:23.624,0.058105,0.030273,1.004395,0.365854,1.341463,-0.548781,-4.837500,17.587500,19.337500,31.069,0.56835589,-0.00972554,-0.02882321,-0.82222030
'00:17:23.634,0.058594,0.030273,1.003418,0.304878,1.341463,-0.548781,-4.837500,17.587500,19.337500,31.099,0.56836045,-0.00972110,-0.02882455,-0.82221715
'00:17:23.646,0.058594,0.029785,1.002441,0.365854,1.341463,-0.548781,-4.793750,17.531250,19.312500,31.024,0.56836828,-0.00971697,-0.02883106,-0.82221156
'00:17:23.654,0.058594,0.029785,1.004883,0.304878,1.341463,-0.548781,-4.793750,17.531250,19.312500,31.024,0.56837345,-0.00971625,-0.02883102,-0.82220799
'00:17:23.664,0.059082,0.029297,1.004395,0.304878,1.341463,-0.548781,-5.006250,17.856251,19.556250,31.039,0.56837201,-0.00971235,-0.02882118,-0.82220938
'00:17:23.674,0.060059,0.029297,1.005859,0.304878,1.280488,-0.548781,-5.006250,17.856251,19.556250,31.069,0.56837043,-0.00971793,-0.02881769,-0.82221053
'00:17:23.685,0.060547,0.029785,1.003418,0.304878,1.341463,-0.548781,-4.912500,17.743750,19.450001,31.054,0.56837330,-0.00972476,-0.02882188,-0.82220832
'00:17:23.694,0.061035,0.029297,1.005371,0.426829,1.341463,-0.548781,-4.912500,17.743750,19.450001,31.084,0.56837581,-0.00972854,-0.02883160,-0.82220620
'00:17:23.704,0.060547,0.028809,1.004395,0.304878,1.280488,-0.548781,-4.893750,17.587500,19.456251,31.069,0.56837599,-0.00974159,-0.02882994,-0.82220598
'00:17:23.714,0.059570,0.029297,1.002441,0.304878,1.341463,-0.548781,-4.893750,17.587500,19.456251,31.069,0.56837621,-0.00974318,-0.02882502,-0.82220598
'00:17:23.724,0.060059,0.028809,1.001953,0.304878,1.280488,-0.548781,-4.812500,17.518751,19.343750,31.039,0.56838084,-0.00975759,-0.02882746,-0.82220252
'00:17:23.734,0.059082,0.028320,1.003418,0.304878,1.280488,-0.548781,-4.812500,17.518751,19.343750,31.024,0.56838558,-0.00976796,-0.02882267,-0.82219929
'00:17:23.744,0.058594,0.029785,1.004883,0.365854,1.341463,-0.609756,-4.875000,17.525000,19.362501,31.114,0.56838157,-0.00975814,-0.02882042,-0.82220226
'00:17:23.754,0.058594,0.029297,1.003906,0.304878,1.280488,-0.609756,-4.875000,17.525000,19.362501,31.084,0.56837748,-0.00975799,-0.02881450,-0.82220529
'00:17:23.764,0.058105,0.029297,1.004883,0.365854,1.280488,-0.609756,-4.781250,17.550001,19.318750,31.054,0.56838082,-0.00975793,-0.02881883,-0.82220283
'00:17:23.774,0.060059,0.029297,1.004883,0.365854,1.402439,-0.548781,-4.781250,17.550001,19.318750,31.084,0.56838874,-0.00976008,-0.02882453,-0.82219713
'00:17:23.784,0.059082,0.029297,1.003418,0.365854,1.341463,-0.609756,-5.106250,17.962500,19.625000,31.084,0.56837835,-0.00974833,-0.02881440,-0.82220481
'00:17:23.794,0.059082,0.029785,1.003418,0.304878,1.341463,-0.609756,-5.106250,17.962500,19.625000,31.039,0.56836789,-0.00973795,-0.02880283,-0.82221257
'00:17:23.804,0.060059,0.029785,1.003418,0.304878,1.341463,-0.609756,-5.006250,17.725000,19.518751,31.069,0.56835903,-0.00973539,-0.02879725,-0.82221892
'00:17:23.814,0.060059,0.029785,1.004883,0.304878,1.341463,-0.609756,-5.006250,17.725000,19.518751,31.084,0.56835024,-0.00973259,-0.02879121,-0.82222524
'00:17:23.824,0.061523,0.029785,1.003418,0.304878,1.280488,-0.548781,-4.812500,17.518751,19.343750,31.039,0.56835477,-0.00975122,-0.02880492,-0.82222141
'00:17:23.834,0.059082,0.030273,1.005371,0.365854,1.341463,-0.609756,-4.812500,17.518751,19.343750,31.114,0.56835508,-0.00974614,-0.02881234,-0.82222099
'00:17:23.844,0.060059,0.029785,1.004395,0.365854,1.341463,-0.548781,-4.787500,17.475000,19.318750,31.024,0.56836063,-0.00974971,-0.02882195,-0.82221678
'00:17:23.854,0.059570,0.029785,1.004883,0.304878,1.341463,-0.548781,-4.850000,17.581251,19.387501,31.024,0.56836399,-0.00975119,-0.02882243,-0.82221443
'00:17:23.864,0.058594,0.030273,1.004395,0.304878,1.341463,-0.548781,-4.850000,17.581251,19.387501,31.024,0.56836726,-0.00974542,-0.02882207,-0.82221225
'00:17:23.874,0.058594,0.028809,1.003418,0.304878,1.341463,-0.548781,-4.981250,17.806250,19.537500,31.084,0.56836651,-0.00974128,-0.02880884,-0.82221328
'00:17:23.884,0.057617,0.029785,1.004395,0.304878,1.280488,-0.548781,-4.981250,17.806250,19.537500,31.054,0.56836547,-0.00973223,-0.02880021,-0.82221440
'00:17:23.894,0.060059,0.029297,1.004395,0.304878,1.341463,-0.609756,-5.118750,17.950001,19.668751,31.054,0.56835388,-0.00972834,-0.02878820,-0.82222288
'00:17:23.904,0.060547,0.028809,1.004883,0.365854,1.341463,-0.609756,-5.118750,17.950001,19.668751,31.099,0.56834251,-0.00972596,-0.02877976,-0.82223107
'00:17:23.914,0.060547,0.028809,1.004883,0.304878,1.341463,-0.548781,-4.787500,17.593750,19.375000,31.084,0.56835091,-0.00974117,-0.02878448,-0.82222491
'00:17:23.924,0.060547,0.029785,1.004883,0.304878,1.341463,-0.548781,-4.787500,17.593750,19.375000,31.114,0.56835905,-0.00975227,-0.02879461,-0.82221880
'00:17:23.934,0.060059,0.029785,1.003418,0.365854,1.341463,-0.548781,-4.843750,17.556250,19.431250,31.024,0.56836213,-0.00975393,-0.02880216,-0.82221639
'00:17:23.944,0.059570,0.030273,1.003906,0.365854,1.280488,-0.548781,-4.843750,17.556250,19.431250,31.024,0.56836495,-0.00975517,-0.02881328,-0.82221403
'00:17:23.954,0.059570,0.028320,1.005371,0.304878,1.341463,-0.548781,-4.825000,17.606251,19.375000,31.084,0.56837100,-0.00976407,-0.02880798,-0.82220993
'00:17:23.964,0.061035,0.029297,1.004883,0.365854,1.341463,-0.548781,-4.825000,17.606251,19.375000,31.039,0.56837680,-0.00977414,-0.02881845,-0.82220544
'00:17:23.974,0.059082,0.029785,1.003906,0.365854,1.341463,-0.609756,-4.981250,17.762501,19.456251,31.024,0.56837074,-0.00976435,-0.02881594,-0.82220982
'00:17:23.984,0.060059,0.029785,1.003418,0.304878,1.341463,-0.609756,-4.981250,17.762501,19.456251,31.024,0.56836465,-0.00976320,-0.02881306,-0.82221416
'00:17:23.994,0.059570,0.029297,1.003906,0.365854,1.341463,-0.548781,-5.256250,18.231251,19.856251,31.039,0.56835416,-0.00974991,-0.02879968,-0.82222203
'00:17:24.004,0.058105,0.029297,1.004395,0.365854,1.341463,-0.609756,-5.256250,18.231251,19.856251,31.114,0.56833941,-0.00972870,-0.02878090,-0.82223313
'00:17:24.014,0.059570,0.028809,1.003906,0.304878,1.280488,-0.609756,-4.900000,17.662500,19.487501,31.069,0.56833668,-0.00973724,-0.02877794,-0.82223503
'00:17:24.024,0.058594,0.029297,1.004395,0.304878,1.341463,-0.548781,-4.900000,17.662500,19.487501,31.039,0.56833840,-0.00973403,-0.02877074,-0.82223413
'00:17:24.034,0.059082,0.029297,1.004395,0.304878,1.341463,-0.609756,-4.837500,17.531250,19.325001,31.054,0.56833764,-0.00973497,-0.02876767,-0.82223475
'00:17:24.044,0.060059,0.029297,1.003906,0.304878,1.341463,-0.548781,-4.837500,17.531250,19.325001,31.084,0.56834121,-0.00974156,-0.02876856,-0.82223217
'00:17:24.054,0.060547,0.029785,1.004883,0.304878,1.341463,-0.548781,-4.750000,17.481251,19.375000,31.084,0.56834936,-0.00975356,-0.02877930,-0.82222602
'00:17:24.064,0.059570,0.029785,1.003906,0.365854,1.280488,-0.548781,-4.750000,17.481251,19.375000,31.024,0.56835738,-0.00976145,-0.02879379,-0.82221987
'00:17:24.074,0.060547,0.029297,1.003906,0.365854,1.341463,-0.609756,-4.787500,17.512501,19.318750,31.084,0.56835953,-0.00976989,-0.02880394,-0.82221793
'00:17:24.084,0.061035,0.029297,1.004395,0.365854,1.341463,-0.609756,-4.787500,17.512501,19.318750,31.024,0.56836161,-0.00978077,-0.02881559,-0.82221595
'00:17:24.094,0.059570,0.028320,1.004395,0.304878,1.280488,-0.548781,-5.175000,18.018751,19.737501,31.069,0.56835196,-0.00977965,-0.02879631,-0.82222331
'00:17:24.104,0.059570,0.028320,1.004395,0.304878,1.341463,-0.609756,-5.175000,18.018751,19.737501,31.054,0.56833816,-0.00977408,-0.02877440,-0.82223369
'00:17:24.116,0.059082,0.029297,1.004883,0.365854,1.341463,-0.548781,-5.068750,17.781250,19.600000,31.099,0.56832926,-0.00975933,-0.02876076,-0.82224050
'00:17:24.124,0.059570,0.029297,1.003906,0.304878,1.341463,-0.548781,-4.800000,17.581251,19.325001,31.084,0.56833517,-0.00976458,-0.02876335,-0.82223625
'00:17:24.134,0.060059,0.030273,1.003906,0.304878,1.341463,-0.548781,-4.800000,17.581251,19.325001,31.008,0.56834230,-0.00976990,-0.02877394,-0.82223089
'00:17:24.144,0.059570,0.029297,1.003418,0.304878,1.341463,-0.548781,-4.862500,17.631250,19.450001,31.069,0.56834592,-0.00977355,-0.02877313,-0.82222838
'00:17:24.154,0.058594,0.029785,1.003906,0.304878,1.341463,-0.548781,-4.862500,17.631250,19.450001,31.039,0.56834946,-0.00976969,-0.02877112,-0.82222605
'00:17:24.164,0.057617,0.029785,1.004395,0.304878,1.341463,-0.609756,-4.837500,17.537500,19.362501,31.084,0.56834853,-0.00976019,-0.02876509,-0.82222701
'00:17:24.174,0.059570,0.029297,1.003906,0.304878,1.341463,-0.548781,-4.837500,17.537500,19.362501,31.084,0.56835204,-0.00976387,-0.02876412,-0.82222457
'00:17:24.184,0.060547,0.028809,1.003418,0.304878,1.341463,-0.548781,-5.181250,18.062500,19.687500,31.084,0.56834337,-0.00976246,-0.02875024,-0.82223107
'00:17:24.194,0.060547,0.029785,1.003418,0.243902,1.341463,-0.548781,-5.181250,18.062500,19.687500,31.084,0.56833451,-0.00976041,-0.02873761,-0.82223766
'00:17:24.204,0.060059,0.029297,1.004395,0.365854,1.341463,-0.548781,-5.250000,18.068750,19.750000,31.069,0.56832133,-0.00974779,-0.02872402,-0.82224740
'00:17:24.214,0.060547,0.029297,1.003418,0.365854,1.341463,-0.548781,-5.250000,18.068750,19.750000,30.963,0.56830822,-0.00973824,-0.02871293,-0.82225696
'00:17:24.224,0.060059,0.029785,1.004395,0.304878,1.341463,-0.548781,-4.862500,17.575001,19.362501,31.099,0.56831103,-0.00974211,-0.02871640,-0.82225485
'00:17:24.234,0.059082,0.029297,1.002441,0.304878,1.341463,-0.548781,-4.862500,17.575001,19.362501,31.099,0.56831394,-0.00974285,-0.02871404,-0.82225291
'00:17:24.244,0.059082,0.028809,1.003906,0.304878,1.341463,-0.548781,-4.787500,17.556250,19.268751,31.039,0.56832214,-0.00974927,-0.02871399,-0.82224717
'00:17:24.254,0.058594,0.030273,1.004395,0.365854,1.341463,-0.609756,-4.787500,17.556250,19.268751,31.054,0.56832570,-0.00974384,-0.02872455,-0.82224440
'00:17:24.264,0.059082,0.029785,1.004395,0.365854,1.341463,-0.609756,-4.850000,17.537500,19.350000,31.084,0.56832417,-0.00973920,-0.02872852,-0.82224537
'00:17:24.274,0.058105,0.029297,1.003906,0.365854,1.341463,-0.548781,-4.850000,17.537500,19.350000,31.054,0.56832715,-0.00973139,-0.02872603,-0.82224350
'00:17:24.284,0.059082,0.029297,1.003906,0.365854,1.341463,-0.548781,-5.012500,17.825001,19.531250,31.054,0.56832501,-0.00972379,-0.02872143,-0.82224522
'00:17:24.294,0.059570,0.029297,1.001953,0.365854,1.341463,-0.548781,-5.012500,17.825001,19.531250,31.069,0.56832288,-0.00971941,-0.02871954,-0.82224682
'00:17:24.304,0.061035,0.029785,1.003906,0.304878,1.280488,-0.548781,-5.056250,17.937500,19.581251,31.054,0.56831991,-0.00972724,-0.02872314,-0.82224865
'00:17:24.314,0.061035,0.029297,1.003418,0.365854,1.341463,-0.548781,-5.056250,17.937500,19.581251,31.024,0.56831723,-0.00972955,-0.02872551,-0.82225039
'00:17:24.324,0.060059,0.029785,1.004395,0.365854,1.280488,-0.609756,-4.956250,17.712500,19.456251,31.069,0.56831195,-0.00973117,-0.02873205,-0.82225379
'00:17:24.334,0.059082,0.029297,1.003418,0.304878,1.341463,-0.548781,-4.956250,17.712500,19.456251,31.039,0.56831128,-0.00972833,-0.02872495,-0.82225454
'00:17:24.344,0.059082,0.029297,1.003418,0.304878,1.341463,-0.548781,-4.881250,17.606251,19.325001,31.039,0.56831381,-0.00972824,-0.02872150,-0.82225291
'00:17:24.354,0.060547,0.029297,1.005371,0.365854,1.341463,-0.548781,-4.881250,17.606251,19.325001,31.069,0.56831635,-0.00973275,-0.02872731,-0.82225090
'00:17:24.364,0.060547,0.029297,1.002930,0.304878,1.341463,-0.609756,-4.812500,17.456251,19.325001,31.084,0.56831562,-0.00974279,-0.02873141,-0.82225114
'00:17:24.374,0.059082,0.029785,1.002930,0.365854,1.341463,-0.548781,-4.962500,17.800001,19.487501,31.069,0.56831636,-0.00973586,-0.02873315,-0.82225065
'00:17:24.384,0.058594,0.028809,1.002441,0.365854,1.402439,-0.548781,-4.962500,17.800001,19.487501,31.069,0.56831749,-0.00972588,-0.02872468,-0.82225029
'00:17:24.394,0.058594,0.029297,1.004883,0.365854,1.341463,-0.548781,-5.156250,18.000000,19.731251,31.069,0.56830909,-0.00971010,-0.02871090,-0.82225676
'00:17:24.406,0.058105,0.029785,1.003418,0.304878,1.341463,-0.609756,-5.156250,18.000000,19.731251,31.054,0.56829368,-0.00968986,-0.02869120,-0.82226833
'00:17:24.414,0.060059,0.028809,1.003418,0.304878,1.341463,-0.548781,-5.168750,18.025000,19.731251,31.039,0.56828693,-0.00968799,-0.02867970,-0.82227342
'00:17:24.424,0.060059,0.029297,1.004883,0.304878,1.341463,-0.548781,-5.168750,18.025000,19.731251,31.039,0.56827845,-0.00968354,-0.02866767,-0.82227975
'00:17:24.434,0.061035,0.029785,1.003906,0.304878,1.341463,-0.548781,-4.775000,17.568750,19.400000,31.069,0.56828728,-0.00969937,-0.02868270,-0.82227294
'00:17:24.444,0.061035,0.028320,1.004395,0.304878,1.341463,-0.548781,-4.775000,17.568750,19.400000,31.039,0.56829634,-0.00972060,-0.02868889,-0.82226621
'00:17:24.454,0.058594,0.029785,1.004395,0.304878,1.341463,-0.487805,-4.812500,17.543751,19.325001,31.084,0.56830659,-0.00971940,-0.02869036,-0.82225909
'00:17:24.464,0.060547,0.028809,1.004883,0.365854,1.341463,-0.548781,-4.812500,17.543751,19.325001,31.024,0.56831261,-0.00972954,-0.02869802,-0.82225454
'00:17:24.474,0.059082,0.029297,1.004395,0.304878,1.280488,-0.548781,-4.875000,17.493750,19.343750,30.993,0.56831271,-0.00973251,-0.02869532,-0.82225453
'00:17:24.484,0.059082,0.029297,1.003906,0.304878,1.341463,-0.548781,-4.875000,17.493750,19.343750,30.993,0.56831296,-0.00973117,-0.02868983,-0.82225457
'00:17:24.494,0.059570,0.030273,1.004395,0.365854,1.341463,-0.548781,-5.162500,18.081251,19.675001,31.008,0.56830611,-0.00971768,-0.02868754,-0.82225955
'00:17:24.504,0.059570,0.029297,1.003418,0.304878,1.341463,-0.548781,-5.162500,18.081251,19.675001,31.039,0.56829944,-0.00971136,-0.02867596,-0.82226463
'00:17:24.514,0.059570,0.030273,1.003418,0.365854,1.280488,-0.548781,-5.200000,18.100000,19.793751,31.069,0.56829003,-0.00970121,-0.02867477,-0.82227130
'00:17:24.524,0.059570,0.030762,1.003906,0.365854,1.402439,-0.548781,-5.200000,18.100000,19.793751,31.114,0.56828087,-0.00968051,-0.02867010,-0.82227803
'00:17:24.534,0.059570,0.029297,1.004395,0.304878,1.280488,-0.609756,-4.793750,17.556250,19.375000,31.008,0.56828384,-0.00969289,-0.02867779,-0.82227556
'00:17:24.544,0.059082,0.029297,1.004395,0.365854,1.341463,-0.548781,-4.793750,17.556250,19.375000,31.084,0.56829137,-0.00969511,-0.02868474,-0.82227010
'00:17:24.554,0.060059,0.029297,1.003906,0.304878,1.341463,-0.548781,-4.850000,17.562500,19.350000,31.054,0.56829508,-0.00970232,-0.02868693,-0.82226737
'00:17:24.564,0.060059,0.029785,1.004883,0.304878,1.280488,-0.609756,-4.850000,17.562500,19.350000,31.084,0.56829415,-0.00971149,-0.02869451,-0.82226764
'00:17:24.574,0.059570,0.028809,1.004883,0.365854,1.341463,-0.548781,-4.793750,17.506250,19.418751,31.008,0.56830028,-0.00971735,-0.02869872,-0.82226318
'00:17:24.584,0.059082,0.029297,1.004395,0.365854,1.341463,-0.548781,-4.793750,17.506250,19.418751,31.099,0.56830630,-0.00971856,-0.02870390,-0.82225883
'00:17:24.594,0.059570,0.030273,1.003906,0.304878,1.280488,-0.548781,-4.962500,17.818750,19.537500,31.069,0.56830709,-0.00972042,-0.02870935,-0.82225807
'00:17:24.604,0.060059,0.028809,1.003418,0.304878,1.341463,-0.609756,-4.962500,17.818750,19.537500,31.039,0.56830393,-0.00972619,-0.02870559,-0.82226032
'00:17:24.614,0.059570,0.028809,1.004395,0.304878,1.280488,-0.548781,-4.937500,17.775000,19.468750,31.008,0.56830598,-0.00973425,-0.02870363,-0.82225888
'00:17:24.624,0.060059,0.028809,1.003906,0.365854,1.341463,-0.548781,-4.937500,17.775000,19.468750,31.099,0.56830820,-0.00973756,-0.02870510,-0.82225725
'00:17:24.634,0.058105,0.029785,1.003906,0.365854,1.280488,-0.548781,-4.843750,17.531250,19.400000,31.069,0.56831109,-0.00973273,-0.02870904,-0.82225517
'00:17:24.644,0.058594,0.029297,1.004883,0.304878,1.341463,-0.548781,-4.825000,17.531250,19.293751,31.039,0.56831593,-0.00973191,-0.02870601,-0.82225194
'00:17:24.654,0.059570,0.028320,1.004395,0.365854,1.341463,-0.609756,-4.825000,17.531250,19.293751,31.024,0.56831660,-0.00973725,-0.02870587,-0.82225142
'00:17:24.664,0.059570,0.029297,1.003418,0.365854,1.341463,-0.609756,-4.887500,17.550001,19.350000,31.054,0.56831292,-0.00973547,-0.02870708,-0.82225395
'00:17:24.674,0.061035,0.029297,1.003906,0.365854,1.341463,-0.548781,-4.887500,17.550001,19.350000,31.054,0.56831357,-0.00974183,-0.02871366,-0.82225319
'00:17:24.684,0.060059,0.030273,1.004395,0.365854,1.341463,-0.609756,-4.981250,17.775000,19.487501,31.054,0.56830800,-0.00973648,-0.02871961,-0.82225689
'00:17:24.694,0.058594,0.030762,1.004395,0.365854,1.341463,-0.548781,-4.981250,17.775000,19.487501,31.054,0.56830677,-0.00972146,-0.02872257,-0.82225782
'00:17:24.704,0.060059,0.030762,1.003906,0.304878,1.280488,-0.609756,-5.087500,17.931250,19.662500,31.069,0.56829673,-0.00971839,-0.02872527,-0.82226470
'00:17:24.715,0.060547,0.029297,1.005371,0.304878,1.341463,-0.548781,-5.087500,17.931250,19.662500,31.099,0.56829104,-0.00971925,-0.02871730,-0.82226890
'00:17:24.724,0.060547,0.029785,1.005859,0.304878,1.341463,-0.548781,-4.900000,17.662500,19.381250,31.039,0.56829310,-0.00972422,-0.02872083,-0.82226730
'00:17:24.734,0.060547,0.029785,1.005371,0.365854,1.341463,-0.609756,-4.900000,17.662500,19.381250,31.084,0.56829104,-0.00972659,-0.02872929,-0.82226839
'00:17:24.744,0.059082,0.029297,1.003906,0.365854,1.341463,-0.548781,-4.831250,17.575001,19.393751,31.114,0.56829613,-0.00972628,-0.02873296,-0.82226475
'00:17:24.754,0.059570,0.029785,1.002930,0.365854,1.341463,-0.548781,-4.831250,17.575001,19.393751,31.024,0.56830106,-0.00972694,-0.02874161,-0.82226104
'00:17:24.764,0.060059,0.030273,1.004883,0.365854,1.341463,-0.548781,-4.781250,17.543751,19.281250,31.024,0.56830908,-0.00973026,-0.02875739,-0.82225490
'00:17:24.774,0.061035,0.029297,1.004395,0.304878,1.341463,-0.548781,-4.781250,17.543751,19.281250,31.084,0.56831714,-0.00974582,-0.02876693,-0.82224881
'00:17:24.784,0.059082,0.029785,1.004883,0.365854,1.341463,-0.548781,-4.843750,17.518751,19.400000,31.084,0.56831970,-0.00974141,-0.02876988,-0.82224699
'00:17:24.794,0.060059,0.028809,1.003906,0.304878,1.402439,-0.609756,-4.843750,17.518751,19.400000,31.024,0.56831816,-0.00974502,-0.02876407,-0.82224822
'00:17:24.804,0.059570,0.029297,1.004395,0.304878,1.341463,-0.548781,-4.900000,17.762501,19.500000,31.069,0.56832222,-0.00974857,-0.02876329,-0.82224540
'00:17:24.814,0.060547,0.028809,1.004883,0.304878,1.341463,-0.548781,-4.900000,17.762501,19.500000,31.069,0.56832634,-0.00975921,-0.02876332,-0.82224242
'00:17:24.824,0.060059,0.029785,1.004395,0.304878,1.341463,-0.548781,-5.037500,17.887501,19.606251,31.084,0.56832338,-0.00975708,-0.02875938,-0.82224463
'00:17:24.834,0.058105,0.029297,1.004883,0.304878,1.341463,-0.609756,-5.037500,17.887501,19.606251,31.084,0.56831624,-0.00974596,-0.02874520,-0.82225020
'00:17:24.844,0.058594,0.029297,1.003418,0.365854,1.341463,-0.548781,-4.806250,17.543751,19.356251,31.039,0.56832235,-0.00974365,-0.02874809,-0.82224590
'00:17:24.854,0.060059,0.029297,1.004395,0.304878,1.341463,-0.548781,-4.806250,17.543751,19.356251,31.084,0.56832834,-0.00975229,-0.02875182,-0.82224152
'00:17:24.864,0.060547,0.029297,1.005371,0.304878,1.341463,-0.609756,-4.843750,17.537500,19.362501,31.084,0.56832712,-0.00976071,-0.02875390,-0.82224219
'00:17:24.874,0.059082,0.029785,1.003418,0.365854,1.341463,-0.548781,-4.843750,17.537500,19.362501,31.084,0.56833024,-0.00975653,-0.02875815,-0.82223994
'00:17:24.884,0.059082,0.028809,1.002930,0.365854,1.341463,-0.609756,-4.831250,17.525000,19.362501,31.054,0.56832976,-0.00975680,-0.02875768,-0.82224028
'00:17:24.894,0.059082,0.029297,1.003418,0.365854,1.341463,-0.548781,-5.043750,17.925001,19.562500,31.084,0.56832762,-0.00974848,-0.02875269,-0.82224204
'00:17:24.904,0.060547,0.028809,1.004395,0.365854,1.402439,-0.609756,-5.043750,17.925001,19.562500,31.084,0.56832135,-0.00974542,-0.02874730,-0.82224660
'00:17:24.914,0.060059,0.029297,1.004395,0.365854,1.341463,-0.548781,-5.212500,18.093750,19.768751,31.084,0.56831116,-0.00973553,-0.02873690,-0.82225412
'00:17:24.924,0.059570,0.029297,1.003418,0.304878,1.341463,-0.548781,-5.212500,18.093750,19.768751,31.084,0.56830100,-0.00972642,-0.02872087,-0.82226181
'00:17:24.934,0.059570,0.029297,1.004395,0.426829,1.341463,-0.548781,-4.925000,17.637501,19.412500,31.084,0.56830103,-0.00972086,-0.02872492,-0.82226171
