Frame_Index,System_Time_s,Human_Readable
0,1775226327.7551017,16:25:27.755
1,1775226327.7640955,16:25:27.764
2,1775226327.7681222,16:25:27.768
3,1775226327.7797346,16:25:27.779
4,1775226327.7964966,16:25:27.796
5,1775226327.8004951,16:25:27.800
6,1775226327.8121233,16:25:27.812
7,1775226327.8151186,16:25:27.815
8,1775226327.830074,16:25:27.830
9,1775226327.8567462,16:25:27.856
10,1775226327.862168,16:25:27.862
11,1775226327.86533,16:25:27.865
12,1775226327.8750913,16:25:27.875
13,1775226327.8787382,16:25:27.878
14,1775226327.892801,16:25:27.892
15,1775226327.8958366,16:25:27.895
16,1775226327.9076357,16:25:27.907
17,1775226327.9244323,16:25:27.924
18,1775226327.927382,16:25:27.927
19,1775226327.940379,16:25:27.940
20,1775226327.9717355,16:25:27.971
21,1775226327.9768481,16:25:27.976
22,1775226328.0008755,16:25:28.000
23,1775226328.0043983,16:25:28.004
24,1775226328.007434,16:25:28.007
25,1775226328.0327022,16:25:28.032
26,1775226328.0389905,16:25:28.038
27,1775226328.0532553,16:25:28.053
28,1775226328.0752559,16:25:28.075
29,1775226328.100252,16:25:28.100
30,1775226328.1037815,16:25:28.103
31,1775226328.1157782,16:25:28.115
32,1775226328.1173737,16:25:28.117
33,1775226328.132112,16:25:28.132
34,1775226328.1360636,16:25:28.136
35,1775226328.147609,16:25:28.147
36,1775226328.1536071,16:25:28.153
37,1775226328.1725066,16:25:28.172
38,1775226328.1972237,16:25:28.197
39,1775226328.2012296,16:25:28.201
40,1775226328.2293236,16:25:28.229
41,1775226328.2443242,16:25:28.244
42,1775226328.247319,16:25:28.247
43,1775226328.2602057,16:25:28.260
44,1775226328.2652025,16:25:28.265
45,1775226328.2771916,16:25:28.277
46,1775226328.2952516,16:25:28.295
47,1775226328.3078332,16:25:28.307
48,1775226328.3245983,16:25:28.324
49,1775226328.3285437,16:25:28.328
50,1775226328.3401542,16:25:28.340
51,1775226328.3442068,16:25:28.344
52,1775226328.3563523,16:25:28.356
53,1775226328.3604066,16:25:28.360
54,1775226328.373783,16:25:28.373
55,1775226328.3777843,16:25:28.377
56,1775226328.4037135,16:25:28.403
57,1775226328.4119763,16:25:28.411
58,1775226328.4199777,16:25:28.419
59,1775226328.423011,16:25:28.423
60,1775226328.4368622,16:25:28.436
61,1775226328.4398954,16:25:28.439
62,1775226328.453074,16:25:28.453
63,1775226328.470308,16:25:28.470
64,1775226328.4732883,16:25:28.473
65,1775226328.4858117,16:25:28.485
66,1775226328.5068579,16:25:28.506
67,1775226328.5208669,16:25:28.520
68,1775226328.5551105,16:25:28.555
69,1775226328.5610683,16:25:28.561
70,1775226328.565065,16:25:28.565
71,1775226328.580801,16:25:28.580
72,1775226328.5979638,16:25:28.597
73,1775226328.610891,16:25:28.610
74,1775226328.6314955,16:25:28.631
75,1775226328.63846,16:25:28.638
76,1775226328.6665006,16:25:28.666
77,1775226328.671454,16:25:28.671
78,1775226328.6754975,16:25:28.675
79,1775226328.6784818,16:25:28.678
80,1775226328.6918054,16:25:28.691
81,1775226328.6948478,16:25:28.694
82,1775226328.7183862,16:25:28.718
83,1775226328.7245948,16:25:28.724
84,1775226328.7395635,16:25:28.739
85,1775226328.7415679,16:25:28.741
86,1775226328.7546184,16:25:28.754
87,1775226328.7576337,16:25:28.757
88,1775226328.7714584,16:25:28.771
89,1775226328.7738614,16:25:28.773
90,1775226328.7867076,16:25:28.786
91,1775226328.7900188,16:25:28.790
92,1775226328.8037672,16:25:28.803
93,1775226328.8073108,16:25:28.807
94,1775226328.8282824,16:25:28.828
95,1775226328.8312905,16:25:28.831
96,1775226328.836306,16:25:28.836
97,1775226328.8383622,16:25:28.838
98,1775226328.852038,16:25:28.852
99,1775226328.8688314,16:25:28.868
100,1775226328.8720088,16:25:28.872
101,1775226328.8842049,16:25:28.884
102,1775226328.8886645,16:25:28.888
103,1775226328.8997905,16:25:28.899
104,1775226328.9038582,16:25:28.903
105,1775226328.9158323,16:25:28.915
106,1775226328.920177,16:25:28.920
107,1775226328.9415243,16:25:28.941
108,1775226328.9475265,16:25:28.947
109,1775226328.9505172,16:25:28.950
110,1775226328.9644616,16:25:28.964
111,1775226328.9684563,16:25:28.968
112,1775226328.9800487,16:25:28.980
113,1775226328.9966528,16:25:28.996
114,1775226329.000134,16:25:29.000
115,1775226329.0126653,16:25:29.012
116,1775226329.0167236,16:25:29.016
117,1775226329.0286608,16:25:29.028
118,1775226329.032725,16:25:29.032
119,1775226329.0462365,16:25:29.046
120,1775226329.0632327,16:25:29.063
121,1775226329.0764952,16:25:29.076
122,1775226329.0795298,16:25:29.079
123,1775226329.0920284,16:25:29.092
124,1775226329.0960813,16:25:29.096
125,1775226329.1082368,16:25:29.108
126,1775226329.112231,16:25:29.112
127,1775226329.1243393,16:25:29.124
128,1775226329.1406608,16:25:29.140
129,1775226329.1683536,16:25:29.168
130,1775226329.1745703,16:25:29.174
131,1775226329.1785634,16:25:29.178
132,1775226329.1882834,16:25:29.188
133,1775226329.1902726,16:25:29.190
134,1775226329.2041798,16:25:29.204
135,1775226329.2078605,16:25:29.207
136,1775226329.219652,16:25:29.219
137,1775226329.239097,16:25:29.239
138,1775226329.2523427,16:25:29.252
139,1775226329.2789047,16:25:29.278
140,1775226329.2865238,16:25:29.286
141,1775226329.3029988,16:25:29.302
142,1775226329.3187034,16:25:29.318
143,1775226329.321706,16:25:29.321
144,1775226329.3316765,16:25:29.331
145,1775226329.3356686,16:25:29.335
146,1775226329.3484662,16:25:29.348
147,1775226329.3525143,16:25:29.352
148,1775226329.372464,16:25:29.372
149,1775226329.3893812,16:25:29.389
150,1775226329.3964472,16:25:29.396
151,1775226329.3993857,16:25:29.399
152,1775226329.4128418,16:25:29.412
153,1775226329.4158819,16:25:29.415
154,1775226329.4282646,16:25:29.428
155,1775226329.4323037,16:25:29.432
156,1775226329.444789,16:25:29.444
157,1775226329.4477973,16:25:29.447
158,1775226329.4598603,16:25:29.459
159,1775226329.4638813,16:25:29.463
160,1775226329.4808724,16:25:29.480
161,1775226329.4978924,16:25:29.497
162,1775226329.5079181,16:25:29.507
163,1775226329.511935,16:25:29.511
164,1775226329.5257175,16:25:29.525
165,1775226329.5407994,16:25:29.540
166,1775226329.5438795,16:25:29.543
167,1775226329.556292,16:25:29.556
168,1775226329.5602496,16:25:29.560
169,1775226329.5728571,16:25:29.572
170,1775226329.5948756,16:25:29.594
171,1775226329.603918,16:25:29.603
172,1775226329.6110718,16:25:29.611
173,1775226329.6201189,16:25:29.620
174,1775226329.6236346,16:25:29.623
175,1775226329.6367457,16:25:29.636
176,1775226329.640741,16:25:29.640
177,1775226329.6529326,16:25:29.652
178,1775226329.6684916,16:25:29.668
179,1775226329.6729572,16:25:29.672
180,1775226329.6850235,16:25:29.685
181,1775226329.68942,16:25:29.689
182,1775226329.7034535,16:25:29.703
183,1775226329.7203,16:25:29.720
184,1775226329.7318985,16:25:29.731
185,1775226329.7359598,16:25:29.735
186,1775226329.7478986,16:25:29.747
187,1775226329.7508907,16:25:29.750
188,1775226329.7644925,16:25:29.764
189,1775226329.7675707,16:25:29.767
190,1775226329.7802281,16:25:29.780
191,1775226329.7827446,16:25:29.782
192,1775226329.7956815,16:25:29.795
193,1775226329.8167014,16:25:29.816
194,1775226329.8266635,16:25:29.826
195,1775226329.8307045,16:25:29.830
196,1775226329.8446333,16:25:29.844
197,1775226329.847616,16:25:29.847
198,1775226329.860795,16:25:29.860
199,1775226329.863787,16:25:29.863
200,1775226329.8769498,16:25:29.876
201,1775226329.8800292,16:25:29.880
202,1775226329.892839,16:25:29.892
203,1775226329.895888,16:25:29.895
204,1775226329.9154534,16:25:29.915
205,1775226329.933472,16:25:29.933
206,1775226329.9394286,16:25:29.939
207,1775226329.9434202,16:25:29.943
208,1775226329.9557998,16:25:29.955
209,1775226329.9598174,16:25:29.959
210,1775226329.972854,16:25:29.972
211,1775226329.9757974,16:25:29.975
212,1775226329.9877594,16:25:29.987
213,1775226329.9918106,16:25:29.991
214,1775226330.0043848,16:25:30.004
215,1775226330.0080035,16:25:30.008
216,1775226330.0357654,16:25:30.035
217,1775226330.0447512,16:25:30.044
218,1775226330.052474,16:25:30.052
219,1775226330.0691874,16:25:30.069
220,1775226330.072225,16:25:30.072
221,1775226330.0844653,16:25:30.084
222,1775226330.088457,16:25:30.088
223,1775226330.1005032,16:25:30.100
224,1775226330.1055043,16:25:30.105
225,1775226330.1159844,16:25:30.115
226,1775226330.1219964,16:25:30.121
227,1775226330.1419284,16:25:30.141
228,1775226330.1527627,16:25:30.152
229,1775226330.1643784,16:25:30.164
230,1775226330.16737,16:25:30.167
231,1775226330.180651,16:25:30.180
232,1775226330.1835897,16:25:30.183
233,1775226330.1956732,16:25:30.195
234,1775226330.212385,16:25:30.212
235,1775226330.215376,16:25:30.215
236,1775226330.2306817,16:25:30.230
237,1775226330.2518694,16:25:30.251
238,1775226330.2633092,16:25:30.263
239,1775226330.2768402,16:25:30.276
240,1775226330.2808745,16:25:30.280
241,1775226330.2933087,16:25:30.293
242,1775226330.297382,16:25:30.297
243,1775226330.3078582,16:25:30.307
244,1775226330.3124688,16:25:30.312
245,1775226330.3238454,16:25:30.323
246,1775226330.3408465,16:25:30.340
247,1775226330.3449986,16:25:30.344
248,1775226330.3730643,16:25:30.373
249,1775226330.3770523,16:25:30.377
250,1775226330.3884647,16:25:30.388
251,1775226330.3915007,16:25:30.391
252,1775226330.4046974,16:25:30.404
253,1775226330.407683,16:25:30.407
254,1775226330.4202468,16:25:30.420
255,1775226330.4242408,16:25:30.424
256,1775226330.4373646,16:25:30.437
257,1775226330.4404259,16:25:30.440
258,1775226330.4529216,16:25:30.452
259,1775226330.473644,16:25:30.473
260,1775226330.4856,16:25:30.485
261,1775226330.490597,16:25:30.490
262,1775226330.4998066,16:25:30.499
263,1775226330.5038512,16:25:30.503
264,1775226330.5159323,16:25:30.515
265,1775226330.5189402,16:25:30.518
266,1775226330.5321176,16:25:30.532
267,1775226330.53548,16:25:30.535
268,1775226330.547994,16:25:30.547
269,1775226330.5509934,16:25:30.550
270,1775226330.571991,16:25:30.571
271,1775226330.5975685,16:25:30.597
272,1775226330.6115265,16:25:30.611
273,1775226330.6155248,16:25:30.615
274,1775226330.6291225,16:25:30.629
275,1775226330.6321676,16:25:30.632
276,1775226330.6443882,16:25:30.644
277,1775226330.6474278,16:25:30.647
278,1775226330.6600266,16:25:30.660
279,1775226330.6644473,16:25:30.664
280,1775226330.6777384,16:25:30.677
281,1775226330.6953967,16:25:30.695
282,1775226330.7004414,16:25:30.700
283,1775226330.7264833,16:25:30.726
284,1775226330.7402618,16:25:30.740
285,1775226330.744268,16:25:30.744
286,1775226330.7566762,16:25:30.756
287,1775226330.7606292,16:25:30.760
288,1775226330.772633,16:25:30.772
289,1775226330.7776287,16:25:30.777
290,1775226330.790627,16:25:30.790
291,1775226330.8077772,16:25:30.807
292,1775226330.8215737,16:25:30.821
293,1775226330.825608,16:25:30.825
294,1775226330.836848,16:25:30.836
295,1775226330.839829,16:25:30.839
296,1775226330.8518376,16:25:30.851
297,1775226330.8560019,16:25:30.856
298,1775226330.868441,16:25:30.868
299,1775226330.8864148,16:25:30.886
300,1775226330.9008248,16:25:30.900
301,1775226330.919376,16:25:30.919
302,1775226330.931953,16:25:30.931
303,1775226330.9360125,16:25:30.936
304,1775226330.9489617,16:25:30.948
305,1775226330.951965,16:25:30.951
306,1775226330.964778,16:25:30.964
307,1775226330.9677775,16:25:30.967
308,1775226330.9801111,16:25:30.980
309,1775226330.9831083,16:25:30.983
310,1775226330.9956174,16:25:30.995
311,1775226331.018777,16:25:31.018
312,1775226331.0277302,16:25:31.027
313,1775226331.0317283,16:25:31.031
314,1775226331.0441518,16:25:31.044
315,1775226331.0481389,16:25:31.048
316,1775226331.0606923,16:25:31.060
317,1775226331.0637388,16:25:31.063
318,1775226331.0768557,16:25:31.076
319,1775226331.0798311,16:25:31.079
320,1775226331.0919628,16:25:31.091
321,1775226331.096017,16:25:31.096
322,1775226331.1082084,16:25:31.108
323,1775226331.131999,16:25:31.131
324,1775226331.1360085,16:25:31.136
325,1775226331.1400127,16:25:31.140
326,1775226331.14301,16:25:31.143
327,1775226331.1565955,16:25:31.156
328,1775226331.1605926,16:25:31.160
329,1775226331.172731,16:25:31.172
330,1775226331.175777,16:25:31.175
331,1775226331.1880162,16:25:31.188
332,1775226331.1909623,16:25:31.190
333,1775226331.2042184,16:25:31.204
334,1775226331.2082725,16:25:31.208
335,1775226331.2286968,16:25:31.228
336,1775226331.2457561,16:25:31.245
337,1775226331.2527235,16:25:31.252
338,1775226331.2567558,16:25:31.256
339,1775226331.2686915,16:25:31.268
340,1775226331.2844572,16:25:31.284
341,1775226331.2885714,16:25:31.288
342,1775226331.3006494,16:25:31.300
343,1775226331.3046012,16:25:31.304
344,1775226331.3159533,16:25:31.315
345,1775226331.3199952,16:25:31.319
346,1775226331.3493812,16:25:31.349
347,1775226331.3583853,16:25:31.358
348,1775226331.3643901,16:25:31.364
349,1775226331.3673825,16:25:31.367
350,1775226331.3800116,16:25:31.380
351,1775226331.3963473,16:25:31.396
352,1775226331.399417,16:25:31.399
353,1775226331.4115417,16:25:31.411
354,1775226331.4159493,16:25:31.415
355,1775226331.4283152,16:25:31.428
