# FW/GUI: v9.6.1-multi17-dual (PyQt5)
# StartTime: 2026-04-03 16:24:07
# Slot: 13
# DeviceID: 13
# Label: EMG13
# IP: 192.168.137.206
# TCP: 3333
# DeviceFW: EMG_FW_v9.6_MULTI17_DUALCH_RUNTIMECFG_CHEN
# EMG column notes: EMG_t_s=seconds since this Start; sample_idx=device sample index (ADS frame index); fs=sample rate (SPS); gain=gain; flags=0x01(TEST) 0x02(SHORT) 0x04(RLD); emg_valid=1 valid / 0 invalid (spike-guard decision); ch1_raw_uV=raw uV (after spike guard); ch1_filt_uV=filtered uV; ch1_env_uV=envelope (RMS) uV
EMG_t_s,sample_idx,fs,gain,flags,emg_valid,ch1_raw_uV,ch1_filt_uV,ch1_env_uV,ch2_raw_uV,ch2_filt_uV,ch2_env_uV
0.000000,901651,1000.00,12,0,1,1233.125,-0.271,2.528,1062.651,-1.104,0.979
0.001000,901652,1000.00,12,0,1,1234.398,-0.606,2.470,1063.900,0.032,0.979
0.002000,901653,1000.00,12,0,1,1236.512,1.336,2.477,1063.587,0.214,0.897
0.003000,901654,1000.00,12,0,1,1236.512,0.942,2.465,1063.587,-0.028,0.896
0.004000,901655,1000.00,12,0,1,1235.167,-0.149,2.429,1063.467,0.133,0.876
0.005000,901656,1000.00,12,0,1,1232.309,-2.127,2.304,1064.788,1.081,0.889
0.006000,901657,1000.00,12,0,1,1231.708,-2.068,2.306,1063.731,0.640,0.875
0.007000,901658,1000.00,12,0,1,1232.717,0.364,2.224,1063.011,-0.538,0.868
0.008000,901659,1000.00,12,0,1,1230.459,-0.094,2.220,1063.371,0.060,0.868
0.009000,901660,1000.00,12,0,1,1229.979,-0.065,2.205,1063.275,0.094,0.868
0.010000,901661,1000.00,12,0,1,1228.657,0.525,2.122,1062.939,-0.248,0.868
0.011000,901662,1000.00,12,0,1,1224.069,-2.763,2.088,1064.596,1.075,0.871
0.012000,901663,1000.00,12,0,1,1222.076,-4.027,2.163,1062.026,-0.503,0.865
0.013000,901664,1000.00,12,0,1,1226.327,0.278,2.164,1062.410,-1.279,0.856
0.014000,901665,1000.00,12,0,1,1234.927,7.802,2.424,1064.092,1.120,0.864
0.015000,901666,1000.00,12,0,1,1237.953,10.064,2.810,1063.635,0.493,0.865
0.016000,901667,1000.00,12,0,1,1238.986,7.795,3.017,1062.458,-0.634,0.847
0.017000,901668,1000.00,12,0,1,1242.181,8.214,3.229,1063.635,0.145,0.809
0.018000,901669,1000.00,12,0,1,1237.641,2.656,3.229,1065.389,1.848,0.845
0.019000,901670,1000.00,12,0,1,1233.894,-3.934,3.277,1063.347,0.294,0.845
0.020000,901671,1000.00,12,0,1,1230.315,-6.888,3.416,1064.020,-0.195,0.819
0.021000,901672,1000.00,12,0,1,1230.867,-7.564,3.580,1064.668,1.247,0.837
0.022000,901673,1000.00,12,0,1,1233.437,-3.875,3.621,1062.386,-1.117,0.840
0.023000,901674,1000.00,12,0,1,1232.501,-3.990,3.664,1064.836,0.492,0.838
0.024000,901675,1000.00,12,0,1,1232.597,-3.512,3.697,1065.581,2.108,0.882
0.025000,901676,1000.00,12,0,1,1232.525,-1.935,3.705,1065.653,1.191,0.882
0.026000,901677,1000.00,12,0,1,1229.810,-3.157,3.727,1064.620,0.691,0.886
0.027000,901678,1000.00,12,0,1,1228.489,-3.034,3.733,1064.116,-0.447,0.880
0.028000,901679,1000.00,12,0,1,1226.760,-2.605,3.727,1064.500,0.164,0.880
0.029000,901680,1000.00,12,0,1,1225.102,-2.642,3.728,1064.188,-0.130,0.875
0.030000,901681,1000.00,12,0,1,1226.471,-0.218,3.727,1063.467,-0.810,0.872
0.031000,901682,1000.00,12,0,1,1227.913,2.410,3.743,1064.548,0.007,0.872
0.032000,901683,1000.00,12,0,1,1232.909,6.258,3.844,1065.797,1.235,0.887
0.033000,901684,1000.00,12,0,1,1230.483,5.227,3.911,1064.428,0.096,0.887
0.034000,901685,1000.00,12,0,1,1225.150,-1.707,3.876,1063.491,-1.293,0.904
0.035000,901686,1000.00,12,0,1,1223.925,-3.064,3.897,1063.659,-0.872,0.890
0.036000,901687,1000.00,12,0,1,1228.753,0.277,3.897,1062.723,-1.555,0.914
0.037000,901688,1000.00,12,0,1,1232.453,3.612,3.930,1064.380,-0.392,0.884
0.038000,901689,1000.00,12,0,1,1233.990,3.294,3.944,1066.013,1.539,0.910
0.039000,901690,1000.00,12,0,1,1234.374,2.321,3.941,1065.533,0.842,0.904
0.040000,901691,1000.00,12,0,1,1239.202,4.547,3.989,1063.924,-0.718,0.889
0.041000,901692,1000.00,12,0,1,1242.445,6.862,4.098,1064.164,-0.832,0.866
0.042000,901693,1000.00,12,0,1,1243.814,6.118,4.145,1062.434,-1.632,0.866
0.043000,901694,1000.00,12,0,1,1245.952,6.622,4.204,1063.083,-1.638,0.890
0.044000,901695,1000.00,12,0,1,1236.320,-1.121,4.207,1062.963,-0.626,0.894
0.045000,901696,1000.00,12,0,1,1227.889,-10.389,4.377,1062.626,-1.239,0.903
0.046000,901697,1000.00,12,0,1,1229.498,-6.797,4.402,1063.323,-0.181,0.901
0.047000,901698,1000.00,12,0,1,1230.219,-3.575,4.408,1063.203,-0.016,0.901
0.048000,901699,1000.00,12,0,1,1231.252,-1.450,4.398,1064.740,1.008,0.912
0.049000,901700,1000.00,12,0,1,1234.446,2.724,4.415,1064.524,1.436,0.930
0.050000,901701,1000.00,12,0,1,1232.861,2.507,4.429,1065.557,1.362,0.937
0.051000,901702,1000.00,12,0,1,1235.287,3.457,4.455,1065.101,1.595,0.963
0.052000,901703,1000.00,12,0,1,1228.753,-0.234,4.451,1062.939,-1.007,0.973
0.053000,901704,1000.00,12,0,1,1224.694,-6.411,4.541,1065.005,0.452,0.975
0.054000,901705,1000.00,12,0,1,1222.988,-5.965,4.618,1064.836,1.077,0.987
0.055000,901706,1000.00,12,0,1,1226.952,-3.702,4.638,1064.764,0.046,0.975
0.056000,901707,1000.00,12,0,1,1230.123,0.370,4.629,1064.668,0.437,0.973
0.057000,901708,1000.00,12,0,1,1230.771,-0.384,4.629,1065.101,0.214,0.970
0.058000,901709,1000.00,12,0,1,1238.362,4.360,4.670,1064.908,0.379,0.972
0.059000,901710,1000.00,12,0,1,1241.484,7.328,4.784,1064.500,-0.357,0.973
0.060000,901711,1000.00,12,0,1,1236.680,0.549,4.784,1063.011,-1.363,0.991
0.061000,901712,1000.00,12,0,1,1234.879,-2.398,4.780,1062.266,-2.149,1.026
0.062000,901713,1000.00,12,0,1,1232.885,-3.900,4.778,1064.164,-0.295,1.024
0.063000,901714,1000.00,12,0,1,1235.047,-2.296,4.788,1065.101,1.090,1.020
0.064000,901715,1000.00,12,0,1,1233.149,-1.824,4.667,1065.293,0.877,1.015
0.065000,901716,1000.00,12,0,1,1231.564,-3.389,4.470,1066.278,1.683,1.040
0.066000,901717,1000.00,12,0,1,1230.915,-1.825,4.340,1066.109,1.405,1.055
0.067000,901718,1000.00,12,0,1,1231.636,-0.269,4.182,1063.347,-1.048,1.065
0.068000,901719,1000.00,12,0,1,1232.453,2.079,4.175,1064.476,-0.833,1.039
0.069000,901720,1000.00,12,0,1,1232.164,2.672,4.155,1063.251,-0.660,1.043
0.070000,901721,1000.00,12,0,1,1227.913,-0.116,4.039,1062.506,-2.172,1.087
0.071000,901722,1000.00,12,0,1,1226.640,-1.440,3.900,1062.939,-0.961,1.081
0.072000,901723,1000.00,12,0,1,1228.994,1.355,3.866,1064.981,0.543,1.072
0.073000,901724,1000.00,12,0,1,1230.243,2.672,3.844,1064.044,0.467,1.072
0.074000,901725,1000.00,12,0,1,1229.474,1.272,3.816,1061.666,-2.113,1.072
0.075000,901726,1000.00,12,0,1,1231.804,2.008,3.816,1064.068,-0.269,1.059
0.076000,901727,1000.00,12,0,1,1233.774,3.017,3.814,1064.981,1.525,1.077
0.077000,901728,1000.00,12,0,1,1234.014,1.651,3.797,1063.779,-0.189,1.075
0.078000,901729,1000.00,12,0,1,1235.047,0.928,3.782,1062.362,-1.137,1.087
0.079000,901730,1000.00,12,0,1,1236.800,1.315,3.768,1063.731,-0.411,1.088
0.080000,901731,1000.00,12,0,1,1235.575,-0.557,3.768,1062.867,-0.138,1.082
0.081000,901732,1000.00,12,0,1,1237.833,-0.103,3.753,1064.740,0.452,1.084
0.082000,901733,1000.00,12,0,1,1238.698,1.229,3.651,1064.956,1.770,1.099
0.083000,901734,1000.00,12,0,1,1237.809,-0.257,3.576,1063.203,-0.527,1.102
0.084000,901735,1000.00,12,0,1,1235.407,-1.700,3.576,1062.747,-0.815,1.092
0.085000,901736,1000.00,12,0,1,1239.611,1.489,3.556,1063.515,-0.018,1.085
0.086000,901737,1000.00,12,0,1,1240.500,4.477,3.611,1065.341,1.537,1.085
0.087000,901738,1000.00,12,0,1,1231.083,-3.300,3.605,1065.269,1.808,1.113
0.088000,901739,1000.00,12,0,1,1227.288,-6.931,3.707,1063.467,-0.275,1.092
0.089000,901740,1000.00,12,0,1,1227.721,-3.723,3.730,1062.386,-1.187,1.099
0.090000,901741,1000.00,12,0,1,1233.149,1.370,3.679,1064.332,0.256,1.095
0.091000,901742,1000.00,12,0,1,1234.518,4.802,3.613,1064.524,1.164,1.101
0.092000,901743,1000.00,12,0,1,1229.979,-0.152,3.508,1061.594,-1.710,1.103
0.093000,901744,1000.00,12,0,1,1228.201,-2.257,3.396,1062.771,-1.117,1.090
0.094000,901745,1000.00,12,0,1,1230.459,-0.540,3.393,1061.762,-0.807,1.092
0.095000,901746,1000.00,12,0,1,1237.881,4.872,3.135,1063.395,-0.414,1.080
0.096000,901747,1000.00,12,0,1,1233.798,2.023,2.998,1065.461,2.399,1.132
0.097000,901748,1000.00,12,0,1,1229.114,-5.751,3.065,1065.149,1.542,1.152
0.098000,901749,1000.00,12,0,1,1230.579,-4.247,3.116,1062.290,-0.883,1.150
0.099000,901750,1000.00,12,0,1,1231.852,-3.455,3.131,1063.803,-0.473,1.134
0.100000,901751,1000.00,12,0,1,1235.599,-0.736,3.112,1065.821,2.105,1.157
0.101000,901752,1000.00,12,0,1,1236.776,0.850,3.076,1065.125,1.154,1.146
0.102000,901753,1000.00,12,0,1,1239.779,2.089,3.090,1064.020,-0.166,1.138
0.103000,901754,1000.00,12,0,1,1243.983,6.235,3.083,1063.155,-0.854,1.142
0.104000,901755,1000.00,12,0,1,1239.851,2.745,2.990,1064.020,-0.354,1.133
0.105000,901756,1000.00,12,0,1,1233.293,-3.555,2.987,1063.948,0.211,1.133
0.106000,901757,1000.00,12,0,1,1235.431,-1.424,2.993,1064.188,-0.075,1.132
0.107000,901758,1000.00,12,0,1,1238.962,3.790,3.040,1063.659,-0.001,1.131
0.108000,901759,1000.00,12,0,1,1236.248,2.292,2.995,1065.341,0.781,1.135
0.109000,901760,1000.00,12,0,1,1233.630,-0.081,2.810,1064.932,1.223,1.147
0.110000,901761,1000.00,12,0,1,1227.336,-3.931,2.863,1063.803,-0.571,1.134
0.111000,901762,1000.00,12,0,1,1222.940,-7.826,3.051,1063.179,-0.817,1.099
0.112000,901763,1000.00,12,0,1,1227.240,-2.876,3.028,1064.188,-0.191,1.098
0.113000,901764,1000.00,12,0,1,1233.173,3.458,3.050,1063.227,-0.461,1.089
0.114000,901765,1000.00,12,0,1,1234.014,3.991,3.091,1062.194,-1.740,1.110
0.115000,901766,1000.00,12,0,1,1235.455,3.367,3.091,1062.699,-1.065,1.094
0.116000,901767,1000.00,12,0,1,1236.560,3.310,3.115,1064.212,0.416,1.078
0.117000,901768,1000.00,12,0,1,1232.212,-1.714,3.124,1063.467,0.047,1.068
0.118000,901769,1000.00,12,0,1,1231.107,-4.767,3.183,1065.461,1.065,1.072
0.119000,901770,1000.00,12,0,1,1234.663,-1.718,3.169,1064.164,0.788,1.073
0.120000,901771,1000.00,12,0,1,1236.728,-0.159,3.169,1062.843,-1.387,1.047
0.121000,901772,1000.00,12,0,1,1236.272,-0.924,3.166,1063.659,-0.290,1.039
0.122000,901773,1000.00,12,0,1,1236.969,-0.821,3.162,1062.482,-0.944,1.045
0.123000,901774,1000.00,12,0,1,1238.386,0.814,3.141,1064.092,-0.143,1.043
0.124000,901775,1000.00,12,0,1,1236.416,-0.219,3.136,1065.581,2.020,1.039
0.125000,901776,1000.00,12,0,1,1238.194,1.020,3.127,1063.299,-0.260,1.039
0.126000,901777,1000.00,12,0,1,1240.596,4.672,3.167,1064.981,0.542,1.019
0.127000,901778,1000.00,12,0,1,1236.104,1.506,3.166,1064.236,0.883,1.027
0.128000,901779,1000.00,12,0,1,1232.621,-1.687,3.172,1064.308,-0.115,1.014
0.129000,901780,1000.00,12,0,1,1228.657,-3.294,3.201,1064.620,0.842,1.019
0.130000,901781,1000.00,12,0,1,1229.234,-2.653,3.222,1063.900,-0.163,1.019
0.131000,901782,1000.00,12,0,1,1230.411,0.463,3.222,1064.500,0.263,1.018
0.132000,901783,1000.00,12,0,1,1232.693,2.038,3.231,1064.500,0.502,0.989
0.133000,901784,1000.00,12,0,1,1230.195,0.823,3.232,1063.539,-0.592,0.990
0.134000,901785,1000.00,12,0,1,1226.255,-3.960,3.272,1064.044,-0.225,0.984
0.135000,901786,1000.00,12,0,1,1227.528,-3.239,3.297,1065.389,0.941,0.993
0.136000,901787,1000.00,12,0,1,1232.885,1.181,3.240,1064.332,0.247,0.970
0.137000,901788,1000.00,12,0,1,1233.702,1.667,3.215,1064.140,-0.602,0.939
0.138000,901789,1000.00,12,0,1,1233.365,-0.401,3.062,1065.461,0.776,0.945
0.139000,901790,1000.00,12,0,1,1233.918,-0.757,3.018,1064.668,0.134,0.930
0.140000,901791,1000.00,12,0,1,1235.503,-0.179,3.012,1064.140,-0.742,0.935
0.141000,901792,1000.00,12,0,1,1236.056,0.010,2.935,1064.188,-0.501,0.923
0.142000,901793,1000.00,12,0,1,1238.001,1.120,2.939,1064.356,-0.415,0.893
0.143000,901794,1000.00,12,0,1,1237.521,1.209,2.927,1064.332,-0.269,0.880
0.144000,901795,1000.00,12,0,1,1235.647,-0.537,2.927,1063.467,-0.939,0.882
0.145000,901796,1000.00,12,0,1,1235.816,0.120,2.844,1061.594,-2.346,0.941
0.146000,901797,1000.00,12,0,1,1234.374,0.297,2.830,1063.251,-1.091,0.891
0.147000,901798,1000.00,12,0,1,1232.765,-0.558,2.712,1065.197,1.442,0.887
0.148000,901799,1000.00,12,0,1,1233.918,1.604,2.654,1062.771,-0.502,0.881
0.149000,901800,1000.00,12,0,1,1231.876,1.267,2.615,1064.212,-0.127,0.879
0.150000,901801,1000.00,12,0,1,1234.302,2.838,2.644,1064.404,1.200,0.844
0.151000,901802,1000.00,12,0,1,1240.283,8.789,2.919,1065.701,1.206,0.846
0.152000,901803,1000.00,12,0,1,1238.001,6.694,3.054,1064.836,1.313,0.866
0.153000,901804,1000.00,12,0,1,1231.420,-0.951,2.927,1063.491,-0.845,0.865
0.154000,901805,1000.00,12,0,1,1230.003,-3.358,2.940,1065.125,0.644,0.869
0.155000,901806,1000.00,12,0,1,1230.483,-2.930,2.926,1065.149,0.996,0.880
0.156000,901807,1000.00,12,0,1,1233.726,-1.111,2.924,1064.164,-0.386,0.881
0.157000,901808,1000.00,12,0,1,1236.080,0.714,2.876,1063.683,-0.661,0.886
0.158000,901809,1000.00,12,0,1,1236.416,-0.384,2.858,1064.620,-0.129,0.880
0.159000,901810,1000.00,12,0,1,1236.776,-1.153,2.863,1065.053,0.665,0.867
0.160000,901811,1000.00,12,0,1,1237.929,-1.006,2.812,1062.891,-1.293,0.883
0.161000,901812,1000.00,12,0,1,1236.056,-2.708,2.613,1063.059,-1.481,0.900
0.162000,901813,1000.00,12,0,1,1235.047,-4.162,2.647,1063.059,-0.742,0.906
0.163000,901814,1000.00,12,0,1,1233.678,-4.272,2.671,1063.876,-0.314,0.904
0.164000,901815,1000.00,12,0,1,1234.855,-2.873,2.642,1062.723,-0.557,0.874
0.165000,901816,1000.00,12,0,1,1236.632,0.338,2.599,1063.972,-0.197,0.861
0.166000,901817,1000.00,12,0,1,1233.798,-0.791,2.559,1065.989,2.259,0.917
0.167000,901818,1000.00,12,0,1,1231.276,-2.454,2.571,1065.653,1.694,0.947
0.168000,901819,1000.00,12,0,1,1230.939,-1.087,2.486,1065.653,1.189,0.950
0.169000,901820,1000.00,12,0,1,1230.963,0.121,2.474,1066.446,1.758,0.976
0.170000,901821,1000.00,12,0,1,1230.123,0.593,2.476,1066.446,1.454,0.978
0.171000,901822,1000.00,12,0,1,1228.681,-0.162,2.472,1063.563,-0.982,0.987
0.172000,901823,1000.00,12,0,1,1230.651,1.572,2.480,1063.011,-2.215,1.027
0.173000,901824,1000.00,12,0,1,1227.264,-0.249,2.477,1063.419,-1.023,1.037
0.174000,901825,1000.00,12,0,1,1230.123,0.012,2.477,1063.539,-1.029,1.007
0.175000,901826,1000.00,12,0,1,1232.092,3.109,2.511,1064.020,-0.305,1.007
0.176000,901827,1000.00,12,0,1,1235.864,3.685,2.478,1064.092,-0.161,1.005
0.177000,901828,1000.00,12,0,1,1239.419,6.423,2.631,1062.530,-1.314,1.014
0.178000,901829,1000.00,12,0,1,1239.875,4.541,2.698,1061.930,-1.955,1.051
0.179000,901830,1000.00,12,0,1,1239.443,2.324,2.677,1062.578,-0.989,1.054
0.180000,901831,1000.00,12,0,1,1239.803,1.216,2.657,1063.227,-0.142,1.054
0.181000,901832,1000.00,12,0,1,1240.884,1.027,2.660,1064.212,0.717,1.058
0.182000,901833,1000.00,12,0,1,1238.290,-1.071,2.648,1064.788,1.339,1.072
0.183000,901834,1000.00,12,0,1,1241.580,0.144,2.646,1062.843,-0.336,1.070
0.184000,901835,1000.00,12,0,1,1240.211,1.332,2.593,1062.530,-1.062,1.080
0.185000,901836,1000.00,12,0,1,1234.759,-4.349,2.625,1064.596,1.007,1.081
0.186000,901837,1000.00,12,0,1,1232.765,-4.681,2.702,1065.365,1.870,1.112
0.187000,901838,1000.00,12,0,1,1231.756,-3.895,2.748,1064.620,0.917,1.117
0.188000,901839,1000.00,12,0,1,1235.816,0.544,2.748,1063.179,-0.429,1.113
0.189000,901840,1000.00,12,0,1,1236.224,3.260,2.785,1063.563,-0.403,1.114
0.190000,901841,1000.00,12,0,1,1233.534,0.396,2.785,1066.037,1.903,1.142
0.191000,901842,1000.00,12,0,1,1229.882,-1.914,2.798,1064.116,0.694,1.144
0.192000,901843,1000.00,12,0,1,1234.230,0.707,2.795,1062.170,-1.843,1.171
0.193000,901844,1000.00,12,0,1,1240.620,7.272,2.974,1064.572,0.385,1.172
0.194000,901845,1000.00,12,0,1,1243.814,8.279,3.195,1064.764,1.198,1.177
0.195000,901846,1000.00,12,0,1,1242.157,5.206,3.279,1064.188,0.075,1.129
0.196000,901847,1000.00,12,0,1,1232.909,-4.527,3.340,1065.605,1.283,1.133
0.197000,901848,1000.00,12,0,1,1226.592,-12.072,3.750,1063.731,-0.010,1.115
0.198000,901849,1000.00,12,0,1,1228.393,-9.937,3.999,1064.644,-0.240,1.113
0.199000,901850,1000.00,12,0,1,1237.137,-2.087,4.006,1065.797,1.534,1.134
0.200000,901851,1000.00,12,0,1,1242.325,3.651,4.019,1063.803,-0.554,1.124
0.201000,901852,1000.00,12,0,1,1240.379,0.996,3.824,1063.659,-1.097,1.121
0.202000,901853,1000.00,12,0,1,1240.091,-0.266,3.705,1064.044,-0.326,1.107
0.203000,901854,1000.00,12,0,1,1240.500,0.547,3.704,1064.284,-0.309,1.101
0.204000,901855,1000.00,12,0,1,1238.722,-0.694,3.675,1064.116,-0.207,1.098
0.205000,901856,1000.00,12,0,1,1236.080,-2.292,3.665,1064.524,-0.123,1.089
0.206000,901857,1000.00,12,0,1,1234.374,-2.800,3.683,1064.716,0.296,1.088
0.207000,901858,1000.00,12,0,1,1232.116,-3.072,3.708,1064.116,-0.360,1.086
0.208000,901859,1000.00,12,0,1,1234.999,0.059,3.707,1065.197,0.367,1.087
0.209000,901860,1000.00,12,0,1,1234.278,1.928,3.714,1062.362,-1.332,1.099
0.210000,901861,1000.00,12,0,1,1235.503,2.103,3.723,1063.852,-1.258,1.098
0.211000,901862,1000.00,12,0,1,1233.774,2.291,3.717,1063.996,0.498,1.080
0.212000,901863,1000.00,12,0,1,1232.453,-0.200,3.670,1064.092,-0.442,1.077
0.213000,901864,1000.00,12,0,1,1228.994,-2.256,3.634,1063.803,0.111,1.076
0.214000,901865,1000.00,12,0,1,1230.243,-2.605,3.630,1065.581,0.937,1.081
0.215000,901866,1000.00,12,0,1,1228.153,-2.972,3.654,1064.428,0.766,1.086
0.216000,901867,1000.00,12,0,1,1231.516,-2.160,3.665,1064.764,-0.005,1.038
0.217000,901868,1000.00,12,0,1,1238.794,4.709,3.709,1065.245,0.986,1.020
0.218000,901869,1000.00,12,0,1,1241.508,6.020,3.802,1065.269,0.593,1.010
0.219000,901870,1000.00,12,0,1,1242.806,4.892,3.865,1063.467,-0.818,0.985
0.220000,901871,1000.00,12,0,1,1244.487,5.094,3.931,1064.500,-0.461,0.966
0.221000,901872,1000.00,12,0,1,1236.704,-2.175,3.942,1063.972,-0.172,0.956
0.222000,901873,1000.00,12,0,1,1235.647,-5.282,4.006,1062.626,-1.688,0.934
0.223000,901874,1000.00,12,0,1,1237.905,-1.283,4.010,1063.563,-0.832,0.931
0.224000,901875,1000.00,12,0,1,1239.683,0.459,4.011,1064.308,0.353,0.920
0.225000,901876,1000.00,12,0,1,1237.809,0.228,3.987,1064.860,0.513,0.922
0.226000,901877,1000.00,12,0,1,1237.785,0.151,3.953,1065.173,1.020,0.933
0.227000,901878,1000.00,12,0,1,1235.023,-0.386,3.847,1063.011,-0.940,0.924
0.228000,901879,1000.00,12,0,1,1233.678,-1.445,3.799,1063.059,-1.268,0.900
0.229000,901880,1000.00,12,0,1,1231.684,-1.407,3.790,1064.620,0.527,0.892
0.230000,901881,1000.00,12,0,1,1229.522,-2.669,3.805,1064.404,0.518,0.895
0.231000,901882,1000.00,12,0,1,1229.450,-1.956,3.812,1064.140,-0.005,0.889
0.232000,901883,1000.00,12,0,1,1231.083,0.195,3.809,1063.876,-0.051,0.869
0.233000,901884,1000.00,12,0,1,1231.996,1.015,3.812,1065.101,0.689,0.873
0.234000,901885,1000.00,12,0,1,1233.726,1.969,3.817,1064.260,0.498,0.863
0.235000,901886,1000.00,12,0,1,1235.936,2.935,3.790,1062.434,-1.571,0.879
0.236000,901887,1000.00,12,0,1,1238.290,3.753,3.769,1063.299,-0.761,0.846
0.237000,901888,1000.00,12,0,1,1243.694,6.321,3.835,1063.635,0.057,0.836
0.238000,901889,1000.00,12,0,1,1246.769,7.805,3.990,1064.284,0.331,0.835
0.239000,901890,1000.00,12,0,1,1247.057,5.319,4.034,1065.533,1.593,0.863
0.240000,901891,1000.00,12,0,1,1243.886,1.195,4.037,1066.158,1.885,0.862
0.241000,901892,1000.00,12,0,1,1241.556,-2.663,4.045,1062.963,-0.697,0.862
0.242000,901893,1000.00,12,0,1,1237.113,-5.849,4.128,1063.419,-1.361,0.844
0.243000,901894,1000.00,12,0,1,1238.097,-5.575,4.075,1063.779,0.085,0.842
0.244000,901895,1000.00,12,0,1,1243.214,0.781,3.904,1063.731,-0.515,0.828
0.245000,901896,1000.00,12,0,1,1245.568,3.725,3.870,1063.083,-0.566,0.832
0.246000,901897,1000.00,12,0,1,1242.421,1.608,3.824,1063.876,-0.250,0.813
0.247000,901898,1000.00,12,0,1,1237.017,-2.790,3.444,1063.972,0.347,0.814
0.248000,901899,1000.00,12,0,1,1229.426,-8.044,3.344,1062.987,-0.656,0.819
0.249000,901900,1000.00,12,0,1,1230.003,-6.941,3.472,1062.699,-0.933,0.800
0.250000,901901,1000.00,12,0,1,1229.234,-4.224,3.485,1064.260,0.538,0.800
0.251000,901902,1000.00,12,0,1,1227.048,-5.686,3.574,1063.972,0.624,0.790
0.252000,901903,1000.00,12,0,1,1228.201,-3.516,3.608,1064.548,0.640,0.794
0.253000,901904,1000.00,12,0,1,1234.158,1.904,3.618,1064.428,0.839,0.801
0.254000,901905,1000.00,12,0,1,1238.530,5.871,3.710,1063.275,-0.423,0.803
0.255000,901906,1000.00,12,0,1,1242.806,7.646,3.851,1063.419,-0.446,0.805
0.256000,901907,1000.00,12,0,1,1238.314,3.005,3.854,1064.932,1.002,0.817
0.257000,901908,1000.00,12,0,1,1236.656,-1.972,3.840,1064.981,1.131,0.831
0.258000,901909,1000.00,12,0,1,1238.482,-0.482,3.840,1064.332,0.288,0.830
0.259000,901910,1000.00,12,0,1,1240.043,-0.194,3.831,1064.572,0.286,0.809
0.260000,901911,1000.00,12,0,1,1242.782,1.414,3.825,1063.972,-0.037,0.790
0.261000,901912,1000.00,12,0,1,1239.371,-1.023,3.814,1064.908,0.289,0.788
0.262000,901913,1000.00,12,0,1,1235.647,-5.437,3.890,1065.149,0.958,0.797
0.263000,901914,1000.00,12,0,1,1236.128,-3.643,3.911,1062.338,-1.628,0.829
0.264000,901915,1000.00,12,0,1,1237.209,-1.508,3.900,1062.987,-1.557,0.848
0.265000,901916,1000.00,12,0,1,1235.455,-1.223,3.881,1064.620,0.651,0.846
0.266000,901917,1000.00,12,0,1,1235.840,-0.341,3.869,1064.188,0.196,0.846
0.267000,901918,1000.00,12,0,1,1237.089,2.582,3.829,1065.245,0.786,0.842
0.268000,901919,1000.00,12,0,1,1237.137,3.289,3.762,1067.214,2.527,0.911
0.269000,901920,1000.00,12,0,1,1234.639,1.922,3.708,1063.972,-0.058,0.903
0.270000,901921,1000.00,12,0,1,1235.671,2.335,3.652,1062.338,-2.550,0.970
0.271000,901922,1000.00,12,0,1,1235.960,3.426,3.671,1063.948,-0.560,0.973
0.272000,901923,1000.00,12,0,1,1236.752,2.973,3.619,1064.740,0.361,0.945
0.273000,901924,1000.00,12,0,1,1238.001,3.576,3.649,1066.254,1.391,0.958
0.274000,901925,1000.00,12,0,1,1235.647,0.629,3.650,1064.308,0.203,0.957
0.275000,901926,1000.00,12,0,1,1237.377,-0.064,3.650,1063.179,-1.726,0.985
0.276000,901927,1000.00,12,0,1,1243.502,4.576,3.707,1063.059,-1.122,0.987
0.277000,901928,1000.00,12,0,1,1244.415,4.181,3.753,1063.828,-0.676,0.983
0.278000,901929,1000.00,12,0,1,1244.727,1.942,3.758,1063.491,-0.350,0.968
0.279000,901930,1000.00,12,0,1,1238.746,-3.493,3.785,1064.092,-0.224,0.966
0.280000,901931,1000.00,12,0,1,1236.296,-7.780,3.923,1061.425,-1.670,0.991
0.281000,901932,1000.00,12,0,1,1240.403,-3.109,3.938,1063.876,-0.674,0.996
0.282000,901933,1000.00,12,0,1,1241.653,-0.972,3.940,1066.109,2.686,1.066
0.283000,901934,1000.00,12,0,1,1242.493,-0.281,3.938,1065.701,1.575,1.084
0.284000,901935,1000.00,12,0,1,1243.406,1.515,3.934,1065.413,1.095,1.093
0.285000,901936,1000.00,12,0,1,1242.926,1.462,3.917,1063.972,-0.169,1.071
0.286000,901937,1000.00,12,0,1,1242.445,1.710,3.889,1064.260,-0.515,1.068
0.287000,901938,1000.00,12,0,1,1238.194,-0.941,3.787,1065.677,1.173,1.080
0.288000,901939,1000.00,12,0,1,1228.489,-8.221,3.805,1064.620,0.150,1.080
0.289000,901940,1000.00,12,0,1,1229.426,-7.446,3.875,1065.101,0.140,1.056
0.290000,901941,1000.00,12,0,1,1230.531,-2.646,3.890,1063.779,-0.503,1.024
0.291000,901942,1000.00,12,0,1,1227.024,-5.315,3.944,1065.269,-0.024,1.020
0.292000,901943,1000.00,12,0,1,1229.930,-2.459,3.872,1063.828,-0.130,1.001
0.293000,901944,1000.00,12,0,1,1235.695,3.477,3.822,1064.332,-0.873,1.009
0.294000,901945,1000.00,12,0,1,1234.975,2.694,3.840,1063.779,-0.195,1.007
0.295000,901946,1000.00,12,0,1,1233.918,-0.010,3.803,1065.461,0.295,1.004
0.296000,901947,1000.00,12,0,1,1236.632,1.300,3.801,1065.941,1.593,1.029
0.297000,901948,1000.00,12,0,1,1238.025,1.935,3.790,1067.623,2.031,1.067
0.298000,901949,1000.00,12,0,1,1238.842,1.082,3.619,1066.109,1.277,1.078
0.299000,901950,1000.00,12,0,1,1240.596,1.812,3.493,1064.788,-0.933,1.078
0.300000,901951,1000.00,12,0,1,1241.076,1.514,3.448,1064.428,-0.963,1.084
0.301000,901952,1000.00,12,0,1,1239.323,-0.344,3.353,1065.701,-0.027,1.080
0.302000,901953,1000.00,12,0,1,1239.563,-0.594,3.317,1064.308,-0.735,1.082
0.303000,901954,1000.00,12,0,1,1239.851,0.609,3.307,1062.987,-2.242,1.121
0.304000,901955,1000.00,12,0,1,1237.977,-0.403,3.202,1063.203,-1.765,1.147
0.305000,901956,1000.00,12,0,1,1240.259,1.849,3.025,1066.758,1.342,1.161
0.306000,901957,1000.00,12,0,1,1239.779,3.365,3.032,1066.590,1.891,1.183
0.307000,901958,1000.00,12,0,1,1236.512,0.528,3.021,1065.461,0.025,1.172
0.308000,901959,1000.00,12,0,1,1233.245,-1.247,3.025,1061.930,-2.526,1.224
0.309000,901960,1000.00,12,0,1,1233.365,-0.768,3.027,1062.146,-3.031,1.297
0.310000,901961,1000.00,12,0,1,1235.575,2.207,3.036,1064.884,0.345,1.297
0.311000,901962,1000.00,12,0,1,1237.569,3.974,3.084,1063.659,-0.201,1.297
0.312000,901963,1000.00,12,0,1,1235.479,2.028,3.001,1063.587,-0.947,1.297
0.313000,901964,1000.00,12,0,1,1234.735,-0.157,2.956,1065.173,1.046,1.285
0.314000,901965,1000.00,12,0,1,1236.128,0.521,2.949,1063.659,-0.192,1.266
0.315000,901966,1000.00,12,0,1,1238.578,1.475,2.952,1065.653,0.846,1.269
0.316000,901967,1000.00,12,0,1,1238.410,0.483,2.952,1067.262,2.889,1.332
0.317000,901968,1000.00,12,0,1,1240.620,0.375,2.930,1064.524,0.175,1.328
0.318000,901969,1000.00,12,0,1,1241.052,0.411,2.893,1062.434,-2.173,1.315
0.319000,901970,1000.00,12,0,1,1239.683,-2.204,2.897,1063.539,-1.017,1.323
0.320000,901971,1000.00,12,0,1,1241.124,-1.662,2.888,1063.083,-0.763,1.278
0.321000,901972,1000.00,12,0,1,1247.730,3.652,2.894,1064.620,0.132,1.275
0.322000,901973,1000.00,12,0,1,1248.907,5.305,2.960,1063.828,0.361,1.275
0.323000,901974,1000.00,12,0,1,1245.544,1.283,2.922,1061.690,-2.009,1.292
0.324000,901975,1000.00,12,0,1,1245.856,1.097,2.925,1062.939,-0.818,1.297
0.325000,901976,1000.00,12,0,1,1245.208,1.681,2.934,1065.533,1.876,1.301
0.326000,901977,1000.00,12,0,1,1242.277,-0.709,2.864,1064.140,0.944,1.298
0.327000,901978,1000.00,12,0,1,1242.421,-0.026,2.802,1064.140,0.135,1.295
0.328000,901979,1000.00,12,0,1,1236.200,-3.436,2.830,1065.029,1.268,1.306
0.329000,901980,1000.00,12,0,1,1231.996,-7.448,2.979,1064.476,0.634,1.309
0.330000,901981,1000.00,12,0,1,1235.767,-2.558,2.792,1066.374,1.693,1.309
0.331000,901982,1000.00,12,0,1,1238.362,1.142,2.762,1065.029,1.209,1.317
0.332000,901983,1000.00,12,0,1,1238.097,0.628,2.760,1063.852,-0.963,1.268
0.333000,901984,1000.00,12,0,1,1238.578,0.421,2.761,1063.131,-0.930,1.255
0.334000,901985,1000.00,12,0,1,1236.896,-1.497,2.760,1064.068,-0.590,1.249
0.335000,901986,1000.00,12,0,1,1237.689,-2.276,2.771,1064.908,0.763,1.253
0.336000,901987,1000.00,12,0,1,1239.058,-1.315,2.767,1067.022,2.031,1.284
0.337000,901988,1000.00,12,0,1,1240.644,-1.141,2.769,1065.461,1.237,1.285
0.338000,901989,1000.00,12,0,1,1244.463,1.220,2.519,1063.852,-1.170,1.295
0.339000,901990,1000.00,12,0,1,1245.063,1.388,2.296,1064.572,-0.326,1.296
0.340000,901991,1000.00,12,0,1,1243.406,-1.342,2.273,1064.500,-0.124,1.294
0.341000,901992,1000.00,12,0,1,1241.436,-3.077,2.189,1064.932,-0.068,1.294
0.342000,901993,1000.00,12,0,1,1241.124,-3.329,2.212,1063.371,-0.823,1.299
0.343000,901994,1000.00,12,0,1,1237.161,-4.964,2.268,1065.245,-0.156,1.293
0.344000,901995,1000.00,12,0,1,1235.311,-6.154,2.399,1064.740,0.723,1.297
0.345000,901996,1000.00,12,0,1,1237.881,-1.629,2.410,1063.251,-1.584,1.316
0.346000,901997,1000.00,12,0,1,1237.377,0.121,2.403,1065.077,0.271,1.297
0.347000,901998,1000.00,12,0,1,1235.864,-0.291,2.388,1065.797,1.194,1.276
0.348000,901999,1000.00,12,0,1,1234.879,0.365,2.384,1064.620,-0.101,1.263
0.349000,902000,1000.00,12,0,1,1233.486,0.061,2.370,1063.059,-1.457,1.273
0.350000,902001,1000.00,12,0,1,1232.885,0.313,2.361,1065.341,0.049,1.266
0.351000,902002,1000.00,12,0,1,1235.816,2.896,2.395,1064.212,0.246,1.266
0.352000,902003,1000.00,12,0,1,1236.248,3.869,2.456,1063.659,-1.372,1.277
0.353000,902004,1000.00,12,0,1,1234.302,0.967,2.458,1063.107,-0.879,1.243
0.354000,902005,1000.00,12,0,1,1236.680,1.778,2.470,1064.836,-0.051,1.218
0.355000,902006,1000.00,12,0,1,1240.139,4.156,2.526,1065.485,1.391,1.219
0.356000,902007,1000.00,12,0,1,1240.764,3.241,2.522,1064.884,0.315,1.190
0.357000,902008,1000.00,12,0,1,1242.253,2.595,2.548,1063.395,-0.799,1.195
0.358000,902009,1000.00,12,0,1,1246.216,4.490,2.620,1063.371,-1.053,1.150
0.359000,902010,1000.00,12,0,1,1245.736,3.285,2.659,1064.164,-0.038,1.067
0.360000,902011,1000.00,12,0,1,1245.736,1.126,2.645,1064.212,0.216,1.067
0.361000,902012,1000.00,12,0,1,1247.345,2.261,2.604,1064.404,0.179,1.067
0.362000,902013,1000.00,12,0,1,1250.516,4.139,2.654,1062.939,-0.642,1.062
0.363000,902014,1000.00,12,0,1,1248.907,3.289,2.694,1063.467,-0.793,1.058
0.364000,902015,1000.00,12,0,1,1240.259,-4.321,2.762,1065.077,1.262,1.072
0.365000,902016,1000.00,12,0,1,1233.894,-9.491,3.063,1065.485,1.366,1.083
0.366000,902017,1000.00,12,0,1,1236.056,-5.767,3.169,1065.221,1.036,1.014
0.367000,902018,1000.00,12,0,1,1236.969,-1.955,3.181,1065.053,0.577,1.017
0.368000,902019,1000.00,12,0,1,1235.984,-1.741,3.190,1064.500,0.069,0.969
0.369000,902020,1000.00,12,0,1,1235.407,-0.996,3.178,1064.212,-0.357,0.960
0.370000,902021,1000.00,12,0,1,1233.798,-1.483,3.176,1064.140,-0.354,0.955
0.371000,902022,1000.00,12,0,1,1230.315,-3.939,3.183,1065.893,0.957,0.964
0.372000,902023,1000.00,12,0,1,1232.765,-2.191,3.109,1065.029,0.691,0.968
0.373000,902024,1000.00,12,0,1,1236.560,1.929,3.115,1063.948,-0.918,0.934
0.374000,902025,1000.00,12,0,1,1238.914,2.935,3.139,1064.452,-0.281,0.928
0.375000,902026,1000.00,12,0,1,1239.058,2.054,3.143,1063.467,-0.835,0.897
0.376000,902027,1000.00,12,0,1,1239.299,0.514,3.143,1062.386,-1.913,0.927
0.377000,902028,1000.00,12,0,1,1243.406,2.481,3.162,1064.668,0.138,0.927
0.378000,902029,1000.00,12,0,1,1248.138,5.638,3.225,1063.179,-0.226,0.911
0.379000,902030,1000.00,12,0,1,1250.708,6.132,3.169,1064.476,-0.199,0.907
0.380000,902031,1000.00,12,0,1,1251.501,5.301,3.236,1065.845,1.992,0.919
0.381000,902032,1000.00,12,0,1,1250.708,3.251,3.265,1064.452,0.292,0.904
0.382000,902033,1000.00,12,0,1,1251.669,3.041,3.292,1065.245,0.530,0.896
0.383000,902034,1000.00,12,0,1,1248.354,0.732,3.293,1065.941,1.465,0.911
0.384000,902035,1000.00,12,0,1,1241.052,-5.615,3.381,1065.221,0.404,0.908
0.385000,902036,1000.00,12,0,1,1236.200,-8.683,3.582,1063.323,-1.128,0.916
0.386000,902037,1000.00,12,0,1,1233.534,-8.545,3.776,1062.578,-2.114,0.920
0.387000,902038,1000.00,12,0,1,1233.750,-6.165,3.872,1062.626,-1.490,0.927
0.388000,902039,1000.00,12,0,1,1239.250,0.569,3.869,1063.299,-0.859,0.920
0.389000,902040,1000.00,12,0,1,1239.106,2.756,3.884,1066.374,1.877,0.957
0.390000,902041,1000.00,12,0,1,1237.305,0.454,3.880,1065.725,1.869,0.993
0.391000,902042,1000.00,12,0,1,1237.881,1.225,3.859,1063.395,-0.971,1.002
0.392000,902043,1000.00,12,0,1,1235.888,-0.554,3.831,1064.572,-0.094,0.995
0.393000,902044,1000.00,12,0,1,1234.374,-2.906,3.788,1066.326,1.730,1.025
0.394000,902045,1000.00,12,0,1,1235.359,-2.407,3.703,1065.221,0.764,1.025
0.395000,902046,1000.00,12,0,1,1234.783,-3.264,3.724,1065.005,-0.017,1.000
0.396000,902047,1000.00,12,0,1,1237.785,-1.969,3.735,1064.884,0.149,1.000
0.397000,902048,1000.00,12,0,1,1242.253,1.716,3.742,1064.404,-0.471,0.988
0.398000,902049,1000.00,12,0,1,1245.424,3.285,3.771,1065.941,0.702,0.993
0.399000,902050,1000.00,12,0,1,1244.679,1.884,3.780,1065.989,1.120,0.984
0.400000,902051,1000.00,12,0,1,1242.325,-1.306,3.784,1064.908,-0.306,0.985
0.401000,902052,1000.00,12,0,1,1240.283,-3.047,3.787,1064.860,-0.377,0.986
0.402000,902053,1000.00,12,0,1,1242.661,-0.826,3.749,1063.659,-1.193,0.981
0.403000,902054,1000.00,12,0,1,1241.989,0.519,3.747,1064.380,-0.903,0.981
0.404000,902055,1000.00,12,0,1,1245.592,3.169,3.765,1064.452,-0.161,0.982
0.405000,902056,1000.00,12,0,1,1244.703,4.957,3.785,1063.539,-1.189,0.976
0.406000,902057,1000.00,12,0,1,1241.556,1.563,3.763,1062.410,-1.849,1.010
0.407000,902058,1000.00,12,0,1,1243.046,3.624,3.780,1064.404,-0.356,1.005
0.408000,902059,1000.00,12,0,1,1243.142,4.790,3.788,1063.011,-0.454,0.996
0.409000,902060,1000.00,12,0,1,1239.923,1.841,3.768,1062.050,-2.087,1.038
0.410000,902061,1000.00,12,0,1,1238.482,0.399,3.765,1064.668,0.643,1.042
0.411000,902062,1000.00,12,0,1,1239.491,1.025,3.754,1065.725,1.956,1.078
0.412000,902063,1000.00,12,0,1,1242.181,2.949,3.732,1066.470,1.981,1.110
0.413000,902064,1000.00,12,0,1,1245.520,4.600,3.759,1064.716,0.774,1.110
0.414000,902065,1000.00,12,0,1,1250.973,7.381,3.853,1063.419,-1.229,1.109
0.415000,902066,1000.00,12,0,1,1247.009,2.904,3.635,1065.221,0.573,1.095
0.416000,902067,1000.00,12,0,1,1239.491,-6.862,3.673,1065.173,0.851,1.092
0.417000,902068,1000.00,12,0,1,1239.755,-7.898,3.829,1065.893,0.897,1.096
0.418000,902069,1000.00,12,0,1,1244.127,-3.842,3.860,1064.260,0.049,1.096
0.419000,902070,1000.00,12,0,1,1244.127,-3.491,3.889,1064.260,-0.836,1.101
0.420000,902071,1000.00,12,0,1,1248.595,-0.845,3.885,1066.974,1.952,1.134
0.421000,902072,1000.00,12,0,1,1246.601,-0.698,3.846,1065.629,1.073,1.136
0.422000,902073,1000.00,12,0,1,1243.454,-4.727,3.891,1064.428,-0.821,1.138
0.423000,902074,1000.00,12,0,1,1242.541,-3.783,3.919,1065.413,0.283,1.131
0.424000,902075,1000.00,12,0,1,1237.617,-6.261,3.996,1064.572,-0.275,1.131
0.425000,902076,1000.00,12,0,1,1238.049,-5.137,4.051,1064.140,-0.939,1.133
0.426000,902077,1000.00,12,0,1,1238.506,-1.261,4.054,1064.788,-0.186,1.100
0.427000,902078,1000.00,12,0,1,1239.659,0.274,4.039,1064.932,0.035,1.100
0.428000,902079,1000.00,12,0,1,1239.659,2.483,3.975,1064.164,-0.623,1.103
0.429000,902080,1000.00,12,0,1,1240.187,2.690,3.898,1063.155,-1.492,1.123
0.430000,902081,1000.00,12,0,1,1242.109,4.912,3.888,1063.371,-1.279,1.102
0.431000,902082,1000.00,12,0,1,1244.847,6.482,3.968,1062.626,-1.401,1.119
0.432000,902083,1000.00,12,0,1,1244.343,5.396,4.018,1063.803,-0.690,1.121
0.433000,902084,1000.00,12,0,1,1245.856,4.333,4.063,1065.029,1.008,1.111
0.434000,902085,1000.00,12,0,1,1246.601,3.972,4.024,1064.068,0.056,1.109
0.435000,902086,1000.00,12,0,1,1248.571,3.160,3.858,1064.452,0.059,1.098
0.436000,902087,1000.00,12,0,1,1248.162,1.702,3.672,1064.788,0.679,1.060
0.437000,902088,1000.00,12,0,1,1244.967,-2.927,3.591,1064.140,-0.069,1.039
0.438000,902089,1000.00,12,0,1,1243.310,-5.500,3.673,1065.221,0.694,1.037
0.439000,902090,1000.00,12,0,1,1245.208,-4.017,3.696,1062.987,-0.614,1.006
0.440000,902091,1000.00,12,0,1,1248.186,-1.198,3.700,1061.618,-2.466,1.031
0.441000,902092,1000.00,12,0,1,1246.337,-1.916,3.705,1063.299,-0.410,1.024
0.442000,902093,1000.00,12,0,1,1244.175,-4.103,3.750,1064.188,0.775,1.030
0.443000,902094,1000.00,12,0,1,1245.112,-2.015,3.738,1063.659,0.328,1.001
0.444000,902095,1000.00,12,0,1,1244.223,-1.287,3.727,1064.380,0.760,1.001
0.445000,902096,1000.00,12,0,1,1245.736,0.604,3.699,1064.908,1.384,1.020
0.446000,902097,1000.00,12,0,1,1245.856,2.504,3.706,1065.149,1.323,1.037
0.447000,902098,1000.00,12,0,1,1244.607,1.608,3.705,1065.149,1.177,1.048
0.448000,902099,1000.00,12,0,1,1244.583,2.168,3.688,1065.533,1.200,1.057
0.449000,902100,1000.00,12,0,1,1244.655,2.505,3.696,1065.581,1.108,1.057
0.450000,902101,1000.00,12,0,1,1239.082,-1.744,3.699,1065.989,1.086,1.067
0.451000,902102,1000.00,12,0,1,1238.746,-3.408,3.706,1065.701,0.758,1.071
0.452000,902103,1000.00,12,0,1,1241.893,0.342,3.704,1066.230,0.727,1.063
0.453000,902104,1000.00,12,0,1,1243.286,0.941,3.706,1063.659,-1.083,1.066
0.454000,902105,1000.00,12,0,1,1244.943,1.309,3.683,1064.476,-1.395,1.084
0.455000,902106,1000.00,12,0,1,1252.774,6.219,3.721,1064.788,0.013,1.071
0.456000,902107,1000.00,12,0,1,1257.434,9.414,3.946,1065.149,-0.346,1.040
0.457000,902108,1000.00,12,0,1,1248.402,-0.139,3.913,1063.611,-0.969,1.047
0.458000,902109,1000.00,12,0,1,1242.085,-8.885,4.053,1062.915,-2.073,1.086
0.459000,902110,1000.00,12,0,1,1241.701,-8.190,4.207,1066.158,0.926,1.053
0.460000,902111,1000.00,12,0,1,1242.926,-6.598,4.309,1064.692,0.653,1.053
0.461000,902112,1000.00,12,0,1,1243.838,-4.213,4.348,1063.107,-1.873,1.050
0.462000,902113,1000.00,12,0,1,1244.871,-2.445,4.342,1063.179,-1.012,1.022
0.463000,902114,1000.00,12,0,1,1245.808,-0.276,4.293,1065.605,0.648,1.020
0.464000,902115,1000.00,12,0,1,1249.099,3.195,4.188,1064.020,0.378,1.007
0.465000,902116,1000.00,12,0,1,1246.265,2.568,4.184,1064.068,-0.864,1.011
0.466000,902117,1000.00,12,0,1,1241.388,-1.938,4.079,1065.389,1.107,1.016
0.467000,902118,1000.00,12,0,1,1238.650,-3.000,3.946,1065.557,0.892,1.016
0.468000,902119,1000.00,12,0,1,1239.467,-1.359,3.913,1065.317,0.574,1.019
0.469000,902120,1000.00,12,0,1,1239.731,0.356,3.882,1066.350,1.155,1.025
0.470000,902121,1000.00,12,0,1,1242.974,2.919,3.902,1066.950,1.610,1.013
0.471000,902122,1000.00,12,0,1,1245.928,5.838,3.987,1066.662,1.089,1.014
0.472000,902123,1000.00,12,0,1,1242.926,2.552,3.948,1065.509,-0.209,1.007
0.473000,902124,1000.00,12,0,1,1245.376,2.131,3.923,1064.620,-1.079,1.018
0.474000,902125,1000.00,12,0,1,1246.601,3.555,3.854,1066.950,0.584,1.021
0.475000,902126,1000.00,12,0,1,1242.421,-2.052,3.796,1066.758,1.211,1.027
0.476000,902127,1000.00,12,0,1,1244.151,-2.184,3.805,1065.797,-0.507,1.029
0.477000,902128,1000.00,12,0,1,1245.592,-0.585,3.806,1066.854,0.555,1.032
0.478000,902129,1000.00,12,0,1,1246.216,-1.261,3.794,1064.260,-1.280,1.044
0.479000,902130,1000.00,12,0,1,1248.859,0.797,3.776,1064.740,-1.748,1.052
0.480000,902131,1000.00,12,0,1,1246.553,-0.840,3.714,1063.683,-1.290,1.052
0.481000,902132,1000.00,12,0,1,1244.943,-3.023,3.624,1065.197,-0.977,1.042
0.482000,902133,1000.00,12,0,1,1243.983,-2.511,3.560,1065.869,0.888,1.045
0.483000,902134,1000.00,12,0,1,1245.496,-0.870,3.509,1066.518,0.578,1.039
0.484000,902135,1000.00,12,0,1,1244.871,0.551,3.465,1065.557,0.297,1.040
0.485000,902136,1000.00,12,0,1,1244.775,0.596,3.437,1064.068,-1.530,1.062
0.486000,902137,1000.00,12,0,1,1244.247,1.629,3.436,1064.020,-1.461,1.077
0.487000,902138,1000.00,12,0,1,1239.034,-1.946,3.423,1063.107,-1.740,1.105
0.488000,902139,1000.00,12,0,1,1235.527,-4.733,3.400,1063.611,-1.581,1.123
0.489000,902140,1000.00,12,0,1,1239.731,-0.141,3.352,1063.996,-0.423,1.121
0.490000,902141,1000.00,12,0,1,1245.736,6.010,3.454,1065.869,0.691,1.070
0.491000,902142,1000.00,12,0,1,1245.136,5.538,3.531,1067.407,2.579,1.129
0.492000,902143,1000.00,12,0,1,1240.764,0.096,3.483,1064.812,0.091,1.124
0.493000,902144,1000.00,12,0,1,1240.692,-1.249,3.476,1065.221,-0.378,1.124
0.494000,902145,1000.00,12,0,1,1247.418,3.571,3.508,1065.125,0.370,1.120
0.495000,902146,1000.00,12,0,1,1246.625,3.198,3.536,1065.269,-0.124,1.103
0.496000,902147,1000.00,12,0,1,1248.426,1.299,3.523,1064.740,0.014,1.087
0.497000,902148,1000.00,12,0,1,1252.174,4.519,3.573,1065.053,-0.162,1.075
0.498000,902149,1000.00,12,0,1,1252.510,3.054,3.586,1064.452,-0.099,1.061
0.499000,902150,1000.00,12,0,1,1251.117,0.734,3.570,1063.924,-0.828,1.056
0.500000,902151,1000.00,12,0,1,1249.411,-1.445,3.567,1063.467,-0.835,1.052
0.501000,902152,1000.00,12,0,1,1249.748,-1.505,3.541,1063.731,-0.570,1.049
0.502000,902153,1000.00,12,0,1,1251.429,0.622,3.542,1064.236,0.128,1.044
0.503000,902154,1000.00,12,0,1,1255.777,4.226,3.589,1064.260,0.286,1.034
0.504000,902155,1000.00,12,0,1,1251.549,2.295,3.599,1065.917,1.375,1.033
0.505000,902156,1000.00,12,0,1,1245.616,-4.146,3.539,1065.149,1.228,1.048
0.506000,902157,1000.00,12,0,1,1247.225,-1.686,3.288,1064.164,-0.481,1.049
0.507000,902158,1000.00,12,0,1,1244.343,-2.063,3.300,1062.386,-1.485,1.061
0.508000,902159,1000.00,12,0,1,1242.733,-3.847,3.100,1062.747,-1.700,1.048
0.509000,902160,1000.00,12,0,1,1242.830,-2.044,2.890,1063.635,-0.126,1.040
0.510000,902161,1000.00,12,0,1,1240.307,-3.827,2.788,1063.371,-0.406,1.037
0.511000,902162,1000.00,12,0,1,1244.127,-1.009,2.728,1064.212,0.262,1.003
0.512000,902163,1000.00,12,0,1,1246.697,2.291,2.725,1063.659,0.215,0.994
0.513000,902164,1000.00,12,0,1,1246.697,0.755,2.727,1064.068,0.042,0.989
0.514000,902165,1000.00,12,0,1,1248.498,1.285,2.695,1066.542,2.420,1.046
0.515000,902166,1000.00,12,0,1,1250.108,1.566,2.680,1062.771,-0.292,1.039
0.516000,902167,1000.00,12,0,1,1247.490,-1.584,2.675,1064.212,-0.650,1.031
0.517000,902168,1000.00,12,0,1,1249.579,-1.763,2.653,1064.740,1.528,1.046
0.518000,902169,1000.00,12,0,1,1252.246,0.972,2.649,1064.572,0.250,1.044
0.519000,902170,1000.00,12,0,1,1254.215,1.524,2.658,1067.311,2.843,1.106
0.520000,902171,1000.00,12,0,1,1254.744,1.901,2.639,1067.262,2.910,1.158
0.521000,902172,1000.00,12,0,1,1252.702,-0.194,2.507,1065.293,0.408,1.149
0.522000,902173,1000.00,12,0,1,1245.928,-5.429,2.597,1064.092,-0.728,1.154
0.523000,902174,1000.00,12,0,1,1245.112,-6.151,2.722,1065.557,0.123,1.144
0.524000,902175,1000.00,12,0,1,1245.088,-3.267,2.715,1065.557,0.791,1.146
0.525000,902176,1000.00,12,0,1,1245.112,-2.227,2.718,1063.611,-1.403,1.151
0.526000,902177,1000.00,12,0,1,1250.108,3.288,2.740,1064.332,-0.910,1.156
0.527000,902178,1000.00,12,0,1,1248.258,3.806,2.791,1063.131,-1.280,1.167
0.528000,902179,1000.00,12,0,1,1241.196,-2.987,2.817,1062.530,-2.257,1.196
0.529000,902180,1000.00,12,0,1,1244.775,-0.219,2.815,1064.692,0.007,1.170
0.530000,902181,1000.00,12,0,1,1251.597,6.927,2.978,1065.653,1.142,1.167
0.531000,902182,1000.00,12,0,1,1247.105,3.120,2.980,1064.404,-0.096,1.159
0.532000,902183,1000.00,12,0,1,1244.223,-2.113,2.974,1064.308,-0.535,1.155
0.533000,902184,1000.00,12,0,1,1244.847,-1.351,2.978,1065.725,0.765,1.157
0.534000,902185,1000.00,12,0,1,1243.382,-3.330,3.014,1065.341,0.629,1.160
0.535000,902186,1000.00,12,0,1,1247.658,-0.943,3.015,1064.908,-0.202,1.140
0.536000,902187,1000.00,12,0,1,1246.168,-1.140,3.011,1063.731,-0.891,1.128
0.537000,902188,1000.00,12,0,1,1246.096,-3.625,3.042,1064.692,-0.499,1.103
0.538000,902189,1000.00,12,0,1,1248.258,-0.805,2.969,1062.506,-1.316,1.096
0.539000,902190,1000.00,12,0,1,1249.579,-0.267,2.970,1063.227,-1.655,1.119
0.540000,902191,1000.00,12,0,1,1250.973,1.125,2.850,1064.812,0.934,1.123
0.541000,902192,1000.00,12,0,1,1252.774,2.636,2.765,1065.125,0.884,1.069
0.542000,902193,1000.00,12,0,1,1247.418,-0.960,2.769,1065.221,1.021,1.079
0.543000,902194,1000.00,12,0,1,1242.685,-5.423,2.867,1066.614,1.901,1.110
0.544000,902195,1000.00,12,0,1,1243.286,-3.239,2.860,1063.539,-0.296,1.110
0.545000,902196,1000.00,12,0,1,1243.094,-1.230,2.829,1062.410,-2.276,1.155
0.546000,902197,1000.00,12,0,1,1245.856,1.704,2.833,1064.260,-0.055,1.156
0.547000,902198,1000.00,12,0,1,1246.937,4.578,2.835,1063.755,-0.078,1.155
0.548000,902199,1000.00,12,0,1,1250.156,6.327,2.941,1064.812,0.197,1.156
0.549000,902200,1000.00,12,0,1,1246.192,4.360,3.004,1064.740,0.860,1.156
0.550000,902201,1000.00,12,0,1,1238.770,-3.980,3.049,1064.548,-0.100,1.150
0.551000,902202,1000.00,12,0,1,1240.548,-2.777,3.067,1064.884,0.533,1.150
0.552000,902203,1000.00,12,0,1,1241.797,-0.461,3.066,1064.908,0.236,1.150
0.553000,902204,1000.00,12,0,1,1240.836,-2.251,3.024,1065.053,0.372,1.151
0.554000,902205,1000.00,12,0,1,1245.688,1.148,3.011,1064.164,-0.379,1.135
0.555000,902206,1000.00,12,0,1,1247.297,2.691,2.978,1063.852,-0.863,1.129
0.556000,902207,1000.00,12,0,1,1250.108,2.845,2.996,1064.308,-0.214,1.127
0.557000,902208,1000.00,12,0,1,1254.359,5.830,3.093,1065.533,0.771,1.113
0.558000,902209,1000.00,12,0,1,1247.057,-0.803,3.047,1064.476,0.277,1.087
0.559000,902210,1000.00,12,0,1,1244.439,-5.912,3.146,1062.843,-1.546,1.109
0.560000,902211,1000.00,12,0,1,1251.717,1.524,3.107,1062.386,-1.620,1.131
0.561000,902212,1000.00,12,0,1,1253.134,3.814,3.150,1062.386,-1.317,1.145
0.562000,902213,1000.00,12,0,1,1250.180,0.658,3.135,1063.948,0.175,1.145
0.563000,902214,1000.00,12,0,1,1249.507,0.216,3.133,1063.707,0.558,1.148
0.564000,902215,1000.00,12,0,1,1248.426,0.262,3.128,1063.707,0.060,1.096
0.565000,902216,1000.00,12,0,1,1248.859,0.994,3.124,1063.611,0.370,1.096
0.566000,902217,1000.00,12,0,1,1246.529,0.439,3.116,1064.620,0.798,1.098
0.567000,902218,1000.00,12,0,1,1245.424,-0.692,3.108,1062.891,-0.104,1.077
0.568000,902219,1000.00,12,0,1,1248.619,2.792,3.130,1062.266,-1.443,1.095
0.569000,902220,1000.00,12,0,1,1246.337,1.811,3.133,1064.668,0.984,1.028
0.570000,902221,1000.00,12,0,1,1242.445,-2.658,3.144,1065.509,1.935,0.981
0.571000,902222,1000.00,12,0,1,1242.998,-2.187,3.159,1063.611,-0.000,0.979
0.572000,902223,1000.00,12,0,1,1246.817,0.860,3.066,1062.602,-1.198,0.989
0.573000,902224,1000.00,12,0,1,1252.726,5.245,3.033,1063.539,-0.330,0.990
0.574000,902225,1000.00,12,0,1,1253.783,5.296,3.089,1063.803,0.294,0.984
0.575000,902226,1000.00,12,0,1,1252.894,1.973,3.086,1063.731,0.023,0.964
0.576000,902227,1000.00,12,0,1,1256.065,2.838,3.077,1062.386,-0.773,0.962
0.577000,902228,1000.00,12,0,1,1253.783,0.441,3.030,1063.323,-0.417,0.946
0.578000,902229,1000.00,12,0,1,1249.171,-5.491,3.099,1065.605,2.103,0.939
0.579000,902230,1000.00,12,0,1,1247.850,-6.608,3.237,1064.860,1.497,0.963
0.580000,902231,1000.00,12,0,1,1249.411,-4.726,3.157,1064.644,0.672,0.954
0.581000,902232,1000.00,12,0,1,1248.450,-4.039,3.178,1064.452,0.738,0.959
0.582000,902233,1000.00,12,0,1,1249.868,-2.584,3.185,1066.109,1.546,0.981
0.583000,902234,1000.00,12,0,1,1248.306,-1.698,3.188,1065.797,1.769,1.007
0.584000,902235,1000.00,12,0,1,1248.306,-1.659,3.162,1065.341,0.440,1.005
0.585000,902236,1000.00,12,0,1,1248.234,0.310,3.159,1065.269,0.525,1.007
0.586000,902237,1000.00,12,0,1,1241.893,-3.879,3.202,1066.182,0.818,1.006
0.587000,902238,1000.00,12,0,1,1240.668,-4.940,3.237,1063.779,-0.809,1.010
0.588000,902239,1000.00,12,0,1,1241.292,-1.766,3.245,1063.107,-2.275,1.043
0.589000,902240,1000.00,12,0,1,1242.085,-0.853,3.247,1064.020,-0.821,1.023
0.590000,902241,1000.00,12,0,1,1245.039,2.480,3.262,1065.917,0.642,1.019
0.591000,902242,1000.00,12,0,1,1243.886,1.702,3.250,1065.869,0.933,1.020
0.592000,902243,1000.00,12,0,1,1243.790,0.284,3.247,1064.332,-0.784,1.015
0.593000,902244,1000.00,12,0,1,1248.282,3.545,3.195,1066.302,0.397,0.981
0.594000,902245,1000.00,12,0,1,1252.534,6.312,3.285,1065.437,0.547,0.983
0.595000,902246,1000.00,12,0,1,1255.224,6.840,3.420,1065.149,-0.847,0.937
0.596000,902247,1000.00,12,0,1,1254.143,4.285,3.465,1063.972,-0.948,0.946
0.597000,902248,1000.00,12,0,1,1250.660,-0.617,3.405,1065.965,-0.206,0.946
0.598000,902249,1000.00,12,0,1,1254.744,1.082,3.289,1065.389,0.610,0.950
0.599000,902250,1000.00,12,0,1,1255.488,2.730,3.254,1064.908,-0.892,0.951
0.600000,902251,1000.00,12,0,1,1251.405,-2.076,3.218,1065.317,0.068,0.950
0.601000,902252,1000.00,12,0,1,1249.531,-3.546,3.233,1066.206,0.558,0.951
0.602000,902253,1000.00,12,0,1,1249.531,-2.631,3.254,1065.845,0.463,0.952
0.603000,902254,1000.00,12,0,1,1247.850,-2.686,3.261,1064.308,-0.997,0.961
0.604000,902255,1000.00,12,0,1,1245.112,-3.857,3.302,1063.299,-1.988,1.000
0.605000,902256,1000.00,12,0,1,1241.124,-5.630,3.375,1063.467,-1.467,1.014
0.606000,902257,1000.00,12,0,1,1241.100,-4.463,3.410,1065.077,-0.068,1.014
0.607000,902258,1000.00,12,0,1,1245.520,1.101,3.312,1065.173,0.597,1.011
0.608000,902259,1000.00,12,0,1,1249.940,5.906,3.414,1065.461,0.252,1.011
0.609000,902260,1000.00,12,0,1,1249.579,5.614,3.404,1064.788,0.106,0.987
0.610000,902261,1000.00,12,0,1,1245.880,1.405,3.403,1065.221,-0.153,0.961
0.611000,902262,1000.00,12,0,1,1245.160,-0.491,3.361,1063.323,-1.046,0.954
0.612000,902263,1000.00,12,0,1,1245.760,-0.139,3.360,1063.299,-1.847,0.989
0.613000,902264,1000.00,12,0,1,1246.096,-0.787,3.361,1063.467,-0.742,0.991
0.614000,902265,1000.00,12,0,1,1255.633,5.571,3.452,1064.428,-0.240,0.992
0.615000,902266,1000.00,12,0,1,1259.884,9.578,3.706,1064.260,0.222,0.991
0.616000,902267,1000.00,12,0,1,1255.392,2.683,3.725,1064.476,0.047,0.985
0.617000,902268,1000.00,12,0,1,1244.655,-7.559,3.874,1064.428,0.314,0.985
0.618000,902269,1000.00,12,0,1,1243.022,-10.817,4.146,1062.723,-1.042,0.975
0.619000,902270,1000.00,12,0,1,1244.391,-6.817,4.249,1063.107,-1.017,0.976
0.620000,902271,1000.00,12,0,1,1240.692,-8.685,4.407,1064.740,1.032,0.948
0.621000,902272,1000.00,12,0,1,1240.163,-8.003,4.539,1064.164,0.592,0.952
0.622000,902273,1000.00,12,0,1,1238.290,-6.371,4.626,1065.509,1.332,0.955
0.623000,902274,1000.00,12,0,1,1239.899,-4.105,4.603,1063.659,0.404,0.956
0.624000,902275,1000.00,12,0,1,1242.109,1.029,4.544,1065.389,0.628,0.959
0.625000,902276,1000.00,12,0,1,1246.216,4.835,4.587,1065.989,2.268,1.011
0.626000,902277,1000.00,12,0,1,1241.701,3.460,4.596,1065.317,0.681,1.010
0.627000,902278,1000.00,12,0,1,1239.058,-0.590,4.596,1064.308,0.017,1.008
0.628000,902279,1000.00,12,0,1,1239.299,1.428,4.534,1065.053,0.144,0.964
0.629000,902280,1000.00,12,0,1,1240.403,2.049,4.446,1065.365,0.748,0.946
0.630000,902281,1000.00,12,0,1,1238.746,1.238,4.399,1064.908,0.099,0.941
0.631000,902282,1000.00,12,0,1,1237.329,-0.844,4.364,1063.587,-1.055,0.947
0.632000,902283,1000.00,12,0,1,1240.283,1.162,4.352,1065.053,-0.095,0.922
0.633000,902284,1000.00,12,0,1,1242.782,3.422,4.372,1065.893,1.111,0.901
0.634000,902285,1000.00,12,0,1,1248.787,6.470,4.460,1062.218,-1.927,0.939
0.635000,902286,1000.00,12,0,1,1257.194,12.847,4.816,1061.954,-2.942,1.025
0.636000,902287,1000.00,12,0,1,1258.155,11.610,5.059,1062.098,-1.466,1.039
0.637000,902288,1000.00,12,0,1,1255.392,6.210,5.086,1064.788,0.236,1.033
0.638000,902289,1000.00,12,0,1,1256.401,4.692,5.123,1067.719,3.658,1.110
0.639000,902290,1000.00,12,0,1,1260.389,7.010,5.217,1063.611,0.070,1.104
0.640000,902291,1000.00,12,0,1,1258.755,5.065,5.254,1063.491,-1.439,1.119
0.641000,902292,1000.00,12,0,1,1262.214,5.536,5.307,1063.395,-0.170,1.111
0.642000,902293,1000.00,12,0,1,1261.662,6.180,5.378,1062.747,-1.413,1.124
0.643000,902294,1000.00,12,0,1,1255.633,-0.658,5.356,1064.212,0.315,1.123
0.644000,902295,1000.00,12,0,1,1247.682,-6.919,5.371,1065.533,1.513,1.141
0.645000,902296,1000.00,12,0,1,1242.181,-11.096,5.511,1066.446,2.111,1.173
0.646000,902297,1000.00,12,0,1,1243.766,-8.078,5.595,1064.428,0.458,1.167
0.647000,902298,1000.00,12,0,1,1244.247,-4.895,5.637,1064.452,-0.461,1.168
0.648000,902299,1000.00,12,0,1,1245.112,-3.890,5.662,1063.707,-0.289,1.166
0.649000,902300,1000.00,12,0,1,1247.466,-0.713,5.650,1063.011,-1.471,1.178
0.650000,902301,1000.00,12,0,1,1249.483,0.651,5.643,1063.179,-0.799,1.183
0.651000,902302,1000.00,12,0,1,1249.171,0.139,5.621,1063.371,-0.601,1.183
0.652000,902303,1000.00,12,0,1,1248.066,-2.134,5.616,1063.371,-0.365,1.183
0.653000,902304,1000.00,12,0,1,1250.444,-1.201,5.606,1065.389,1.182,1.186
0.654000,902305,1000.00,12,0,1,1252.390,0.027,5.579,1064.020,0.631,1.156
0.655000,902306,1000.00,12,0,1,1251.693,-1.728,5.528,1065.701,0.885,1.144
0.656000,902307,1000.00,12,0,1,1257.410,1.439,5.495,1064.020,0.644,1.148
0.657000,902308,1000.00,12,0,1,1259.116,3.510,5.516,1062.506,-1.902,1.176
0.658000,902309,1000.00,12,0,1,1253.807,-2.577,5.464,1064.116,0.016,1.175
0.659000,902310,1000.00,12,0,1,1253.711,-3.609,5.430,1062.314,-0.949,1.183
0.660000,902311,1000.00,12,0,1,1251.813,-3.437,5.448,1063.659,-0.714,1.187
0.661000,902312,1000.00,12,0,1,1250.804,-4.419,5.484,1064.596,1.340,1.193
0.662000,902313,1000.00,12,0,1,1249.555,-3.150,5.502,1063.828,-0.065,1.164
0.663000,902314,1000.00,12,0,1,1248.546,-3.147,5.518,1065.773,1.595,1.181
0.664000,902315,1000.00,12,0,1,1247.129,-2.234,5.471,1064.332,0.761,1.185
0.665000,902316,1000.00,12,0,1,1248.835,0.023,5.301,1063.731,-0.686,1.189
0.666000,902317,1000.00,12,0,1,1250.612,3.275,5.307,1062.651,-0.898,1.195
0.667000,902318,1000.00,12,0,1,1252.318,4.742,5.242,1062.410,-1.573,1.215
0.668000,902319,1000.00,12,0,1,1249.435,2.752,5.029,1064.452,0.612,1.209
0.669000,902320,1000.00,12,0,1,1245.400,-1.767,4.942,1062.675,-0.344,1.202
0.670000,902321,1000.00,12,0,1,1245.568,-2.026,4.795,1063.419,-0.636,1.196
0.671000,902322,1000.00,12,0,1,1249.051,0.886,4.661,1063.179,0.300,1.194
0.672000,902323,1000.00,12,0,1,1248.955,0.573,4.574,1064.740,0.641,1.183
0.673000,902324,1000.00,12,0,1,1247.177,-2.257,4.548,1065.077,1.845,1.210
0.674000,902325,1000.00,12,0,1,1251.837,0.266,4.546,1064.981,0.841,1.212
0.675000,902326,1000.00,12,0,1,1253.999,2.548,4.509,1064.020,0.321,1.170
0.676000,902327,1000.00,12,0,1,1254.263,0.739,4.483,1064.212,-0.091,1.166
0.677000,902328,1000.00,12,0,1,1255.585,1.392,4.487,1066.446,1.866,1.195
0.678000,902329,1000.00,12,0,1,1254.023,-0.390,4.483,1064.956,0.966,1.203
0.679000,902330,1000.00,12,0,1,1254.335,-0.836,4.475,1063.587,-1.220,1.211
0.680000,902331,1000.00,12,0,1,1254.600,0.290,4.472,1062.939,-1.190,1.222
0.681000,902332,1000.00,12,0,1,1254.552,0.351,4.470,1063.779,-0.841,1.219
0.682000,902333,1000.00,12,0,1,1252.053,-0.518,4.468,1063.059,-0.617,1.222
0.683000,902334,1000.00,12,0,1,1249.291,-2.450,4.455,1063.395,-0.913,1.219
0.684000,902335,1000.00,12,0,1,1248.715,-1.558,4.366,1062.771,-0.628,1.191
0.685000,902336,1000.00,12,0,1,1248.378,-0.437,3.970,1064.524,0.221,1.117
0.686000,902337,1000.00,12,0,1,1246.841,-0.657,3.616,1065.149,1.577,1.120
0.687000,902338,1000.00,12,0,1,1248.450,1.052,3.511,1063.659,-0.205,1.119
0.688000,902339,1000.00,12,0,1,1248.931,2.455,3.465,1064.740,0.351,0.994
0.689000,902340,1000.00,12,0,1,1252.678,4.498,3.381,1064.188,0.488,0.996
0.690000,902341,1000.00,12,0,1,1254.576,6.259,3.420,1064.740,0.078,0.975
0.691000,902342,1000.00,12,0,1,1254.768,4.228,3.383,1063.924,0.164,0.975
0.692000,902343,1000.00,12,0,1,1259.356,6.120,3.381,1065.773,0.651,0.959
0.693000,902344,1000.00,12,0,1,1259.956,5.595,3.471,1066.350,2.085,1.002
0.694000,902345,1000.00,12,0,1,1257.650,0.647,3.331,1063.515,-1.039,0.990
0.695000,902346,1000.00,12,0,1,1254.792,-2.986,2.969,1065.461,0.003,0.944
0.696000,902347,1000.00,12,0,1,1258.035,-2.173,2.757,1064.092,0.056,0.942
0.697000,902348,1000.00,12,0,1,1255.993,-2.562,2.693,1064.716,-0.828,0.947
0.698000,902349,1000.00,12,0,1,1247.105,-11.081,3.067,1066.085,1.470,0.969
0.699000,902350,1000.00,12,0,1,1244.559,-12.717,3.554,1063.395,-1.171,0.961
0.700000,902351,1000.00,12,0,1,1247.802,-7.334,3.701,1064.981,-0.466,0.956
0.701000,902352,1000.00,12,0,1,1253.471,-0.556,3.702,1065.053,0.711,0.958
0.702000,902353,1000.00,12,0,1,1255.272,3.196,3.717,1064.620,-0.546,0.959
0.703000,902354,1000.00,12,0,1,1257.626,4.923,3.778,1063.107,-1.125,0.958
0.704000,902355,1000.00,12,0,1,1253.711,3.350,3.808,1065.365,-0.082,0.954
0.705000,902356,1000.00,12,0,1,1247.874,-2.616,3.818,1063.587,-0.110,0.946
0.706000,902357,1000.00,12,0,1,1236.969,-9.685,4.051,1064.020,-1.250,0.958
0.707000,902358,1000.00,12,0,1,1227.673,-17.112,4.693,1065.701,1.309,0.938
0.708000,902359,1000.00,12,0,1,1233.221,-10.134,4.893,1065.893,1.010,0.949
0.709000,902360,1000.00,12,0,1,1233.918,-4.772,4.913,1064.788,0.033,0.939
0.710000,902361,1000.00,12,0,1,1238.001,-2.383,4.900,1064.380,-0.603,0.937
0.711000,902362,1000.00,12,0,1,1240.331,2.437,4.873,1064.068,-0.795,0.925
0.712000,902363,1000.00,12,0,1,1243.694,3.127,4.872,1063.587,-1.027,0.936
0.713000,902364,1000.00,12,0,1,1244.895,4.873,4.901,1063.539,-1.124,0.922
0.714000,902365,1000.00,12,0,1,1245.664,3.256,4.912,1060.849,-2.656,0.990
0.715000,902366,1000.00,12,0,1,1244.247,1.807,4.919,1061.065,-3.040,1.075
0.716000,902367,1000.00,12,0,1,1247.297,2.539,4.910,1061.449,-1.236,1.082
0.717000,902368,1000.00,12,0,1,1252.558,7.128,4.967,1064.020,0.463,1.061
0.718000,902369,1000.00,12,0,1,1255.777,9.053,5.115,1065.389,2.676,1.123
0.719000,902370,1000.00,12,0,1,1257.722,9.366,5.278,1062.915,0.115,1.122
0.720000,902371,1000.00,12,0,1,1260.461,10.710,5.483,1063.491,0.004,1.118
0.721000,902372,1000.00,12,0,1,1254.624,5.538,5.537,1064.380,1.429,1.136
0.722000,902373,1000.00,12,0,1,1250.060,-0.062,5.537,1064.596,1.111,1.143
0.723000,902374,1000.00,12,0,1,1246.457,-1.737,5.533,1064.332,1.055,1.123
0.724000,902375,1000.00,12,0,1,1244.991,-2.509,5.544,1064.260,0.538,1.119
0.725000,902376,1000.00,12,0,1,1244.271,-1.368,5.536,1062.891,-0.345,1.119
0.726000,902377,1000.00,12,0,1,1244.103,-0.614,5.536,1062.458,-1.144,1.131
0.727000,902378,1000.00,12,0,1,1242.565,-0.926,5.534,1064.332,0.721,1.104
0.728000,902379,1000.00,12,0,1,1240.812,-2.119,5.542,1064.956,1.527,1.117
0.729000,902380,1000.00,12,0,1,1245.904,1.658,5.545,1063.515,0.059,1.103
0.730000,902381,1000.00,12,0,1,1250.876,6.566,5.622,1064.140,0.194,1.091
0.731000,902382,1000.00,12,0,1,1249.147,3.452,5.643,1065.365,1.495,1.105
0.732000,902383,1000.00,12,0,1,1246.313,-0.992,5.645,1064.572,0.737,1.106
0.733000,902384,1000.00,12,0,1,1247.658,-1.558,5.638,1064.956,0.520,1.101
0.734000,902385,1000.00,12,0,1,1251.957,1.244,5.637,1063.972,0.086,1.098
0.735000,902386,1000.00,12,0,1,1255.056,2.797,5.650,1064.140,-0.456,1.099
0.736000,902387,1000.00,12,0,1,1257.818,3.475,5.671,1062.651,-0.982,1.085
0.737000,902388,1000.00,12,0,1,1260.845,4.708,5.708,1063.972,-0.683,1.089
0.738000,902389,1000.00,12,0,1,1258.587,2.008,5.704,1065.029,1.198,1.101
0.739000,902390,1000.00,12,0,1,1258.155,-0.157,5.669,1065.653,1.081,1.109
0.740000,902391,1000.00,12,0,1,1256.906,-0.382,5.599,1065.701,1.257,1.123
0.741000,902392,1000.00,12,0,1,1255.008,-2.233,5.576,1064.116,-0.363,1.124
0.742000,902393,1000.00,12,0,1,1250.780,-4.313,5.542,1063.179,-1.494,1.140
0.743000,902394,1000.00,12,0,1,1249.267,-5.051,5.532,1065.509,0.525,1.104
0.744000,902395,1000.00,12,0,1,1249.988,-2.239,5.540,1064.596,0.350,1.095
0.745000,902396,1000.00,12,0,1,1251.981,0.628,5.525,1065.029,-0.176,1.096
0.746000,902397,1000.00,12,0,1,1246.913,-1.831,5.522,1066.854,1.771,1.124
0.747000,902398,1000.00,12,0,1,1245.808,-3.696,5.535,1064.260,-0.324,1.119
0.748000,902399,1000.00,12,0,1,1249.699,1.072,5.311,1064.188,-1.418,1.117
0.749000,902400,1000.00,12,0,1,1247.850,0.037,4.997,1064.644,-0.085,1.105
0.750000,902401,1000.00,12,0,1,1245.496,-3.375,4.912,1065.221,-0.142,1.103
0.751000,902402,1000.00,12,0,1,1250.180,0.046,4.911,1065.053,0.231,1.099
0.752000,902403,1000.00,12,0,1,1256.113,4.589,4.933,1064.860,-0.381,1.098
0.753000,902404,1000.00,12,0,1,1261.181,7.132,4.987,1065.917,0.617,1.090
0.754000,902405,1000.00,12,0,1,1258.755,3.506,4.989,1064.692,-0.178,1.090
0.755000,902406,1000.00,12,0,1,1255.392,-2.406,4.987,1064.788,-0.735,1.095
0.756000,902407,1000.00,12,0,1,1253.519,-4.683,4.840,1065.773,0.600,1.084
0.757000,902408,1000.00,12,0,1,1251.549,-6.651,4.296,1065.389,0.101,1.068
0.758000,902409,1000.00,12,0,1,1254.456,-4.174,4.093,1063.299,-1.567,1.081
0.759000,902410,1000.00,12,0,1,1258.539,0.800,4.039,1064.188,-1.266,1.096
0.760000,902411,1000.00,12,0,1,1253.903,-2.011,4.035,1063.972,-0.498,1.095
0.761000,902412,1000.00,12,0,1,1249.459,-5.892,4.105,1063.731,-1.165,1.101
0.762000,902413,1000.00,12,0,1,1249.003,-4.260,4.126,1063.779,-0.614,1.095
0.763000,902414,1000.00,12,0,1,1247.153,-3.544,4.098,1064.164,-0.365,1.085
0.764000,902415,1000.00,12,0,1,1249.099,-0.766,4.074,1065.149,0.616,1.022
0.765000,902416,1000.00,12,0,1,1248.402,1.334,4.070,1065.173,0.770,0.933
0.766000,902417,1000.00,12,0,1,1248.979,1.555,4.060,1066.734,1.560,0.943
0.767000,902418,1000.00,12,0,1,1248.859,2.962,3.956,1064.572,0.383,0.942
0.768000,902419,1000.00,12,0,1,1249.772,2.837,3.764,1062.819,-2.209,0.917
0.769000,902420,1000.00,12,0,1,1251.069,4.007,3.569,1065.005,0.121,0.917
0.770000,902421,1000.00,12,0,1,1249.219,1.502,3.238,1063.419,-0.542,0.921
0.771000,902422,1000.00,12,0,1,1253.543,2.952,3.170,1063.083,-1.583,0.926
0.772000,902423,1000.00,12,0,1,1255.416,4.710,3.239,1063.107,-0.627,0.916
0.773000,902424,1000.00,12,0,1,1257.458,3.216,3.261,1063.755,-0.403,0.906
0.774000,902425,1000.00,12,0,1,1257.578,2.706,3.265,1063.515,0.069,0.903
0.775000,902426,1000.00,12,0,1,1257.434,-0.019,3.259,1062.626,-0.924,0.911
0.776000,902427,1000.00,12,0,1,1257.458,-0.562,3.259,1063.828,0.168,0.897
0.777000,902428,1000.00,12,0,1,1257.794,-1.269,3.261,1064.188,0.937,0.901
0.778000,902429,1000.00,12,0,1,1255.849,-2.663,3.269,1062.819,-0.433,0.877
0.779000,902430,1000.00,12,0,1,1254.504,-3.866,3.306,1063.996,0.337,0.878
0.780000,902431,1000.00,12,0,1,1258.539,0.165,3.173,1064.332,1.105,0.891
0.781000,902432,1000.00,12,0,1,1257.434,1.439,3.142,1065.941,1.839,0.904
0.782000,902433,1000.00,12,0,1,1259.164,1.931,3.151,1064.428,1.111,0.912
0.783000,902434,1000.00,12,0,1,1258.947,4.116,3.196,1063.611,-0.659,0.914
0.784000,902435,1000.00,12,0,1,1257.434,2.027,3.204,1063.299,-0.367,0.915
0.785000,902436,1000.00,12,0,1,1254.384,0.669,3.181,1063.563,-0.432,0.915
0.786000,902437,1000.00,12,0,1,1258.467,3.033,3.172,1066.398,1.989,0.947
0.787000,902438,1000.00,12,0,1,1254.960,2.312,3.119,1063.803,0.542,0.945
0.788000,902439,1000.00,12,0,1,1248.667,-5.258,3.194,1063.707,-1.105,0.943
0.789000,902440,1000.00,12,0,1,1244.463,-8.069,3.391,1063.828,0.293,0.931
0.790000,902441,1000.00,12,0,1,1245.496,-7.395,3.548,1062.410,-1.522,0.939
0.791000,902442,1000.00,12,0,1,1251.501,-1.692,3.542,1064.212,0.147,0.938
0.792000,902443,1000.00,12,0,1,1258.491,4.188,3.539,1063.395,0.183,0.914
0.793000,902444,1000.00,12,0,1,1257.266,2.352,3.482,1063.900,-0.225,0.912
0.794000,902445,1000.00,12,0,1,1251.309,-4.683,3.531,1062.506,-0.397,0.912
0.795000,902446,1000.00,12,0,1,1254.384,-3.988,3.574,1062.626,-1.227,0.928
0.796000,902447,1000.00,12,0,1,1256.954,-0.252,3.565,1063.539,0.459,0.896
0.797000,902448,1000.00,12,0,1,1259.548,0.369,3.527,1063.467,0.131,0.895
0.798000,902449,1000.00,12,0,1,1262.647,3.685,3.562,1064.644,1.053,0.885
0.799000,902450,1000.00,12,0,1,1260.413,1.518,3.569,1064.140,0.888,0.894
0.800000,902451,1000.00,12,0,1,1259.068,-0.130,3.537,1063.972,0.081,0.894
0.801000,902452,1000.00,12,0,1,1252.654,-3.813,3.577,1066.061,1.922,0.933
0.802000,902453,1000.00,12,0,1,1245.832,-9.353,3.758,1064.620,0.884,0.940
0.803000,902454,1000.00,12,0,1,1241.965,-9.733,3.873,1066.254,1.108,0.949
0.804000,902455,1000.00,12,0,1,1241.124,-7.983,4.004,1062.987,-0.451,0.951
0.805000,902456,1000.00,12,0,1,1241.605,-4.441,4.039,1064.236,-1.320,0.964
0.806000,902457,1000.00,12,0,1,1240.620,-3.025,4.007,1065.509,1.506,0.983
0.807000,902458,1000.00,12,0,1,1240.307,-1.975,3.905,1062.578,-1.646,1.010
0.808000,902459,1000.00,12,0,1,1243.166,1.452,3.866,1062.266,-2.123,1.030
0.809000,902460,1000.00,12,0,1,1247.682,5.595,3.944,1065.629,1.186,1.028
0.810000,902461,1000.00,12,0,1,1244.823,3.384,3.963,1064.908,1.125,1.038
0.811000,902462,1000.00,12,0,1,1243.070,-0.562,3.875,1063.467,-0.754,1.031
0.812000,902463,1000.00,12,0,1,1246.048,1.681,3.835,1062.386,-1.463,1.048
0.813000,902464,1000.00,12,0,1,1252.942,6.115,3.899,1063.876,-0.320,1.047
0.814000,902465,1000.00,12,0,1,1252.942,5.892,3.986,1063.491,0.042,1.044
0.815000,902466,1000.00,12,0,1,1254.552,3.899,4.020,1062.458,-1.202,1.052
0.816000,902467,1000.00,12,0,1,1258.275,6.590,4.120,1064.452,0.427,1.030
0.817000,902468,1000.00,12,0,1,1260.725,7.040,4.218,1064.188,0.891,1.037
0.818000,902469,1000.00,12,0,1,1262.551,7.369,4.326,1064.140,-0.023,0.988
0.819000,902470,1000.00,12,0,1,1262.166,6.268,4.380,1063.852,0.258,0.989
0.820000,902471,1000.00,12,0,1,1260.821,4.082,4.413,1062.987,-0.933,0.995
0.821000,902472,1000.00,12,0,1,1256.017,0.533,4.393,1064.836,0.611,0.973
0.822000,902473,1000.00,12,0,1,1250.997,-3.914,4.378,1064.932,1.137,0.982
0.823000,902474,1000.00,12,0,1,1250.564,-2.870,4.373,1064.284,0.009,0.981
0.824000,902475,1000.00,12,0,1,1251.573,-0.327,4.356,1061.570,-1.868,1.015
0.825000,902476,1000.00,12,0,1,1252.102,1.300,4.360,1061.786,-2.306,1.058
0.826000,902477,1000.00,12,0,1,1252.726,2.311,4.372,1064.212,0.695,1.063
0.827000,902478,1000.00,12,0,1,1251.309,1.412,4.373,1065.413,1.780,1.084
0.828000,902479,1000.00,12,0,1,1248.571,-1.453,4.361,1064.668,1.120,1.094
0.829000,902480,1000.00,12,0,1,1248.859,-1.903,4.335,1062.266,-1.083,1.104
0.830000,902481,1000.00,12,0,1,1248.498,-2.198,4.346,1062.050,-1.583,1.115
0.831000,902482,1000.00,12,0,1,1251.549,-1.189,4.345,1064.332,0.833,1.091
0.832000,902483,1000.00,12,0,1,1254.167,0.875,4.338,1065.437,1.964,1.115
0.833000,902484,1000.00,12,0,1,1255.200,-0.145,4.299,1062.915,-0.156,1.111
0.834000,902485,1000.00,12,0,1,1256.353,-0.440,4.290,1062.939,-0.959,1.118
0.835000,902486,1000.00,12,0,1,1257.098,-1.040,4.291,1063.755,0.456,1.118
0.836000,902487,1000.00,12,0,1,1257.218,-1.837,4.277,1062.699,-0.604,1.086
0.837000,902488,1000.00,12,0,1,1255.080,-3.802,4.299,1063.924,0.152,1.083
0.838000,902489,1000.00,12,0,1,1255.032,-4.234,4.276,1063.419,0.339,1.073
0.839000,902490,1000.00,12,0,1,1257.386,-1.047,4.124,1064.260,0.232,1.072
0.840000,902491,1000.00,12,0,1,1258.059,0.541,3.990,1065.221,1.599,1.075
0.841000,902492,1000.00,12,0,1,1255.897,-0.269,3.983,1062.987,-0.576,1.078
0.842000,902493,1000.00,12,0,1,1254.816,-0.498,3.939,1062.002,-1.822,1.108
0.843000,902494,1000.00,12,0,1,1252.942,-0.349,3.925,1062.578,-0.916,1.115
0.844000,902495,1000.00,12,0,1,1251.117,-0.989,3.871,1062.651,-0.630,1.117
0.845000,902496,1000.00,12,0,1,1250.180,-0.415,3.831,1063.371,0.051,1.103
0.846000,902497,1000.00,12,0,1,1250.540,0.701,3.832,1064.404,1.082,1.112
0.847000,902498,1000.00,12,0,1,1248.090,-0.371,3.832,1063.659,0.570,1.115
0.848000,902499,1000.00,12,0,1,1246.745,-1.970,3.806,1063.587,0.091,1.105
0.849000,902500,1000.00,12,0,1,1251.021,1.551,3.807,1062.723,-0.248,1.098
0.850000,902501,1000.00,12,0,1,1251.213,2.122,3.818,1062.338,-0.896,1.106
0.851000,902502,1000.00,12,0,1,1252.270,0.660,3.781,1062.819,-0.128,1.072
0.852000,902503,1000.00,12,0,1,1251.933,0.149,3.542,1062.915,0.049,1.064
0.853000,902504,1000.00,12,0,1,1254.191,-0.393,3.264,1062.530,-0.217,1.053
0.854000,902505,1000.00,12,0,1,1259.740,3.704,3.108,1062.122,-0.524,1.054
0.855000,902506,1000.00,12,0,1,1259.860,2.808,3.069,1061.161,-1.188,1.051
0.856000,902507,1000.00,12,0,1,1257.578,-1.101,3.043,1061.762,-0.730,1.034
0.857000,902508,1000.00,12,0,1,1256.257,-2.685,3.054,1065.221,2.306,1.059
0.858000,902509,1000.00,12,0,1,1256.786,-2.427,3.066,1064.981,2.599,1.080
0.859000,902510,1000.00,12,0,1,1257.146,-1.088,2.967,1062.723,-0.282,1.068
0.860000,902511,1000.00,12,0,1,1254.095,-2.733,2.953,1064.260,0.675,1.060
0.861000,902512,1000.00,12,0,1,1253.879,-2.251,2.969,1062.026,-0.454,1.057
0.862000,902513,1000.00,12,0,1,1252.942,-0.736,2.961,1062.266,-1.443,1.056
0.863000,902514,1000.00,12,0,1,1250.396,-1.779,2.844,1065.077,1.847,1.087
0.864000,902515,1000.00,12,0,1,1247.273,-2.675,2.745,1064.380,1.237,1.101
0.865000,902516,1000.00,12,0,1,1245.184,-3.144,2.725,1062.314,-0.941,1.096
0.866000,902517,1000.00,12,0,1,1246.313,-0.856,2.564,1062.651,-0.788,1.100
0.867000,902518,1000.00,12,0,1,1245.592,0.067,2.363,1063.563,0.340,1.094
0.868000,902519,1000.00,12,0,1,1248.018,1.525,2.132,1062.843,-0.093,1.094
0.869000,902520,1000.00,12,0,1,1248.522,2.832,1.979,1063.635,0.198,1.094
0.870000,902521,1000.00,12,0,1,1252.029,3.618,1.961,1063.611,0.718,1.090
0.871000,902522,1000.00,12,0,1,1251.789,3.575,2.024,1062.530,-0.590,1.090
0.872000,902523,1000.00,12,0,1,1253.062,1.490,1.958,1062.699,-0.399,1.080
0.873000,902524,1000.00,12,0,1,1252.414,0.672,1.918,1064.308,0.964,1.088
0.874000,902525,1000.00,12,0,1,1247.057,-5.602,2.075,1065.221,1.857,1.088
0.875000,902526,1000.00,12,0,1,1249.627,-4.949,2.182,1063.900,0.508,1.040
0.876000,902527,1000.00,12,0,1,1249.892,-2.788,2.193,1063.611,-0.310,1.037
0.877000,902528,1000.00,12,0,1,1249.459,-4.306,2.267,1064.332,0.441,1.007
0.878000,902529,1000.00,12,0,1,1249.219,-2.722,2.290,1065.605,1.243,1.010
0.879000,902530,1000.00,12,0,1,1250.204,-1.659,2.287,1063.227,-0.444,1.001
0.880000,902531,1000.00,12,0,1,1255.296,4.083,2.338,1063.707,-1.143,0.989
0.881000,902532,1000.00,12,0,1,1258.803,8.276,2.609,1064.740,0.640,0.986
0.882000,902533,1000.00,12,0,1,1263.992,12.137,3.121,1064.764,0.187,0.946
0.883000,902534,1000.00,12,0,1,1264.304,13.043,3.625,1062.098,-1.691,0.976
0.884000,902535,1000.00,12,0,1,1257.578,5.834,3.717,1062.602,-1.955,1.005
0.885000,902536,1000.00,12,0,1,1256.017,3.127,3.740,1063.059,-0.493,1.005
0.886000,902537,1000.00,12,0,1,1256.113,3.777,3.769,1062.554,-1.092,1.013
0.887000,902538,1000.00,12,0,1,1252.005,-0.086,3.731,1063.587,-0.089,1.013
0.888000,902539,1000.00,12,0,1,1248.378,-3.925,3.724,1062.771,-0.206,1.013
0.889000,902540,1000.00,12,0,1,1245.904,-5.907,3.814,1063.035,-0.564,1.015
0.890000,902541,1000.00,12,0,1,1249.291,-3.701,3.849,1063.323,0.396,0.991
0.891000,902542,1000.00,12,0,1,1253.663,0.562,3.849,1064.236,0.657,0.992
0.892000,902543,1000.00,12,0,1,1259.428,3.712,3.884,1064.812,1.535,0.983
0.893000,902544,1000.00,12,0,1,1259.524,3.219,3.911,1065.413,1.474,0.996
0.894000,902545,1000.00,12,0,1,1253.351,-4.449,3.958,1062.338,-0.758,0.998
0.895000,902546,1000.00,12,0,1,1252.990,-6.568,4.066,1062.626,-1.649,1.025
0.896000,902547,1000.00,12,0,1,1250.684,-7.248,4.192,1062.506,-0.544,1.016
0.897000,902548,1000.00,12,0,1,1251.717,-7.361,4.319,1064.092,0.028,1.013
0.898000,902549,1000.00,12,0,1,1257.794,-0.422,4.310,1065.245,1.758,1.043
0.899000,902550,1000.00,12,0,1,1259.356,1.909,4.313,1065.869,1.663,1.069
0.900000,902551,1000.00,12,0,1,1260.365,2.555,4.318,1064.236,0.382,1.062
0.901000,902552,1000.00,12,0,1,1255.657,0.033,4.317,1061.930,-2.025,1.100
0.902000,902553,1000.00,12,0,1,1249.387,-5.479,4.386,1063.011,-1.264,1.115
0.903000,902554,1000.00,12,0,1,1249.892,-3.498,4.413,1065.149,1.248,1.128
0.904000,902555,1000.00,12,0,1,1252.510,0.951,4.384,1063.659,0.054,1.126
0.905000,902556,1000.00,12,0,1,1254.095,3.453,4.393,1064.692,0.298,1.114
0.906000,902557,1000.00,12,0,1,1253.975,3.971,4.426,1064.740,0.990,1.118
0.907000,902558,1000.00,12,0,1,1254.504,3.993,4.446,1063.659,-0.427,1.071
0.908000,902559,1000.00,12,0,1,1253.062,2.797,4.450,1064.260,0.032,1.006
0.909000,902560,1000.00,12,0,1,1250.060,-0.827,4.449,1064.668,0.617,1.009
0.910000,902561,1000.00,12,0,1,1251.621,-0.540,4.433,1062.891,-0.938,1.013
0.911000,902562,1000.00,12,0,1,1248.907,-2.411,4.435,1063.107,-1.073,1.022
0.912000,902563,1000.00,12,0,1,1250.204,-3.605,4.463,1061.906,-1.394,1.021
0.913000,902564,1000.00,12,0,1,1255.561,1.353,4.460,1063.011,-0.982,0.997
0.914000,902565,1000.00,12,0,1,1256.497,1.303,4.447,1064.092,0.770,0.987
0.915000,902566,1000.00,12,0,1,1252.606,-3.098,4.447,1063.948,0.329,0.979
0.916000,902567,1000.00,12,0,1,1257.915,-0.494,4.446,1062.578,-0.725,0.978
0.917000,902568,1000.00,12,0,1,1260.581,3.380,4.471,1063.011,-0.698,0.982
0.918000,902569,1000.00,12,0,1,1256.593,-1.214,4.469,1063.587,0.218,0.982
0.919000,902570,1000.00,12,0,1,1256.425,-1.786,4.458,1062.819,-0.427,0.984
0.920000,902571,1000.00,12,0,1,1261.133,3.105,4.451,1062.699,-0.702,0.984
0.921000,902572,1000.00,12,0,1,1265.745,7.601,4.551,1063.948,0.574,0.984
0.922000,902573,1000.00,12,0,1,1259.140,3.167,4.568,1061.281,-1.223,0.997
0.923000,902574,1000.00,12,0,1,1255.344,-2.014,4.576,1061.353,-1.887,1.023
0.924000,902575,1000.00,12,0,1,1254.095,-0.681,4.508,1062.194,-0.108,0.989
0.925000,902576,1000.00,12,0,1,1252.174,-2.045,4.462,1062.819,0.249,0.987
0.926000,902577,1000.00,12,0,1,1246.769,-4.823,4.497,1064.020,1.499,1.008
0.927000,902578,1000.00,12,0,1,1245.304,-6.154,4.540,1063.467,1.149,1.020
0.928000,902579,1000.00,12,0,1,1244.247,-4.867,4.575,1063.803,0.867,1.012
0.929000,902580,1000.00,12,0,1,1246.649,-2.964,4.589,1065.797,2.674,1.078
0.930000,902581,1000.00,12,0,1,1251.621,2.057,4.561,1065.629,2.384,1.118
0.931000,902582,1000.00,12,0,1,1255.104,4.446,4.453,1065.341,1.469,1.134
0.932000,902583,1000.00,12,0,1,1253.351,1.795,4.117,1064.596,0.707,1.138
0.933000,902584,1000.00,12,0,1,1252.750,-0.802,3.683,1063.852,-0.319,1.113
0.934000,902585,1000.00,12,0,1,1255.969,0.810,3.591,1062.819,-1.128,1.090
0.935000,902586,1000.00,12,0,1,1262.214,5.088,3.635,1062.891,-1.212,1.101
0.936000,902587,1000.00,12,0,1,1264.640,6.269,3.704,1064.044,0.007,1.090
0.937000,902588,1000.00,12,0,1,1265.721,5.140,3.774,1065.029,0.919,1.098
0.938000,902589,1000.00,12,0,1,1265.049,3.647,3.769,1062.819,-0.796,1.103
0.939000,902590,1000.00,12,0,1,1264.472,2.056,3.686,1062.410,-1.781,1.129
0.940000,902591,1000.00,12,0,1,1260.701,-0.772,3.651,1062.987,-0.644,1.131
0.941000,902592,1000.00,12,0,1,1258.899,-2.577,3.668,1063.323,-0.399,1.129
0.942000,902593,1000.00,12,0,1,1260.172,-0.102,3.630,1065.149,1.129,1.119
0.943000,902594,1000.00,12,0,1,1259.932,1.048,3.605,1066.470,2.398,1.151
0.944000,902595,1000.00,12,0,1,1258.635,0.553,3.550,1064.428,0.434,1.147
0.945000,902596,1000.00,12,0,1,1256.617,-0.184,3.426,1063.419,-1.074,1.134
0.946000,902597,1000.00,12,0,1,1256.305,-0.298,3.270,1064.884,0.279,1.132
0.947000,902598,1000.00,12,0,1,1257.458,1.384,3.106,1062.987,-0.795,1.137
0.948000,902599,1000.00,12,0,1,1258.179,1.767,3.115,1061.642,-2.590,1.169
0.949000,902600,1000.00,12,0,1,1256.425,-0.056,3.104,1064.404,0.162,1.145
0.950000,902601,1000.00,12,0,1,1259.644,0.845,3.085,1064.836,1.174,1.156
0.951000,902602,1000.00,12,0,1,1260.124,1.447,3.092,1064.380,0.228,1.120
0.952000,902603,1000.00,12,0,1,1256.569,-3.733,3.039,1064.740,0.606,1.109
0.953000,902604,1000.00,12,0,1,1255.464,-5.888,3.112,1064.692,0.461,1.097
0.954000,902605,1000.00,12,0,1,1253.062,-7.922,3.305,1065.581,0.960,1.105
0.955000,902606,1000.00,12,0,1,1255.128,-7.177,3.423,1065.581,1.078,1.115
0.956000,902607,1000.00,12,0,1,1257.146,-3.981,3.423,1064.692,-0.074,1.106
0.957000,902608,1000.00,12,0,1,1257.218,-4.190,3.427,1063.371,-1.187,1.117
0.958000,902609,1000.00,12,0,1,1260.725,-0.787,3.406,1064.668,-0.425,1.119
0.959000,902610,1000.00,12,0,1,1261.061,0.791,3.406,1063.539,-0.555,1.118
0.960000,902611,1000.00,12,0,1,1265.961,4.148,3.456,1064.644,-0.525,1.113
0.961000,902612,1000.00,12,0,1,1268.772,8.381,3.637,1063.587,-0.291,1.103
0.962000,902613,1000.00,12,0,1,1263.055,3.109,3.628,1062.386,-2.120,1.126
0.963000,902614,1000.00,12,0,1,1259.548,-0.369,3.623,1064.188,-0.165,1.118
0.964000,902615,1000.00,12,0,1,1263.079,3.432,3.651,1064.308,0.436,1.114
0.965000,902616,1000.00,12,0,1,1259.788,2.518,3.642,1062.098,-1.648,1.137
0.966000,902617,1000.00,12,0,1,1255.272,-2.248,3.655,1064.044,-0.271,1.133
0.967000,902618,1000.00,12,0,1,1255.152,-1.519,3.630,1063.539,0.292,1.130
0.968000,902619,1000.00,12,0,1,1255.344,-0.699,3.628,1063.924,-0.209,1.130
0.969000,902620,1000.00,12,0,1,1256.930,0.339,3.619,1062.314,-0.689,1.132
0.970000,902621,1000.00,12,0,1,1255.657,-0.445,3.593,1063.131,-0.841,1.134
0.971000,902622,1000.00,12,0,1,1257.194,-0.988,3.431,1064.500,1.210,1.144
0.972000,902623,1000.00,12,0,1,1255.152,-2.128,3.415,1062.819,-0.287,1.132
0.973000,902624,1000.00,12,0,1,1252.942,-6.074,3.510,1063.587,-0.206,1.100
0.974000,902625,1000.00,12,0,1,1252.750,-5.925,3.607,1064.812,1.531,1.121
0.975000,902626,1000.00,12,0,1,1251.525,-7.029,3.731,1064.332,0.713,1.125
0.976000,902627,1000.00,12,0,1,1250.780,-7.386,3.814,1065.461,1.468,1.124
0.977000,902628,1000.00,12,0,1,1252.654,-5.038,3.781,1065.485,1.555,1.134
0.978000,902629,1000.00,12,0,1,1257.074,-0.435,3.718,1064.572,0.372,1.129
0.979000,902630,1000.00,12,0,1,1263.896,6.087,3.793,1063.299,-0.781,1.069
0.980000,902631,1000.00,12,0,1,1267.619,9.698,4.023,1062.506,-1.517,1.037
0.981000,902632,1000.00,12,0,1,1265.985,7.863,4.126,1062.939,-0.977,1.025
0.982000,902633,1000.00,12,0,1,1264.160,5.389,4.188,1066.182,1.785,1.051
0.983000,902634,1000.00,12,0,1,1263.007,4.670,4.239,1065.365,1.762,1.079
0.984000,902635,1000.00,12,0,1,1261.349,3.358,4.264,1066.158,1.100,1.079
0.985000,902636,1000.00,12,0,1,1262.286,4.209,4.244,1064.548,0.586,1.068
0.986000,902637,1000.00,12,0,1,1254.984,-0.525,4.151,1063.179,-1.696,1.095
0.987000,902638,1000.00,12,0,1,1249.651,-6.426,4.187,1062.915,-1.313,1.103
0.988000,902639,1000.00,12,0,1,1245.736,-7.473,4.287,1062.771,-1.434,1.116
0.989000,902640,1000.00,12,0,1,1243.214,-9.210,4.472,1062.939,-1.039,1.097
0.990000,902641,1000.00,12,0,1,1242.085,-8.375,4.624,1063.275,-0.488,1.095
0.991000,902642,1000.00,12,0,1,1247.514,-3.562,4.637,1062.242,-1.193,1.107
0.992000,902643,1000.00,12,0,1,1252.966,2.389,4.650,1062.386,-1.098,1.106
0.993000,902644,1000.00,12,0,1,1255.296,3.356,4.672,1062.530,-0.580,1.056
0.994000,902645,1000.00,12,0,1,1257.050,3.389,4.695,1063.563,0.269,1.055
0.995000,902646,1000.00,12,0,1,1257.626,2.695,4.711,1063.011,0.188,1.044
0.996000,902647,1000.00,12,0,1,1259.019,2.084,4.720,1061.257,-1.470,1.064
0.997000,902648,1000.00,12,0,1,1268.436,8.559,4.869,1062.314,-0.697,1.063
0.998000,902649,1000.00,12,0,1,1270.645,10.621,5.089,1064.068,1.395,1.017
0.999000,902650,1000.00,12,0,1,1266.706,4.485,5.128,1063.539,0.907,1.025
1.000000,902651,1000.00,12,0,1,1261.181,-0.833,5.128,1064.452,1.244,1.026
1.001000,902652,1000.00,12,0,1,1260.148,-2.314,5.135,1063.828,1.072,1.037
1.002000,902653,1000.00,12,0,1,1263.127,1.553,5.112,1063.779,0.356,1.035
1.003000,902654,1000.00,12,0,1,1259.980,0.618,5.045,1063.948,0.807,1.039
1.004000,902655,1000.00,12,0,1,1258.947,-0.751,4.920,1062.386,-0.614,1.034
1.005000,902656,1000.00,12,0,1,1260.773,2.719,4.829,1064.572,0.716,1.027
1.006000,902657,1000.00,12,0,1,1259.476,2.139,4.806,1062.987,0.520,1.030
1.007000,902658,1000.00,12,0,1,1256.665,0.001,4.769,1062.458,-1.232,1.031
1.008000,902659,1000.00,12,0,1,1255.008,-1.462,4.772,1061.858,-0.632,1.033
1.009000,902660,1000.00,12,0,1,1254.335,-1.832,4.778,1062.218,-0.928,1.038
1.010000,902661,1000.00,12,0,1,1258.059,0.690,4.743,1063.419,0.732,1.041
1.011000,902662,1000.00,12,0,1,1262.743,4.443,4.635,1063.828,0.979,1.049
1.012000,902663,1000.00,12,0,1,1262.046,2.574,4.629,1063.948,0.914,1.014
1.013000,902664,1000.00,12,0,1,1263.559,1.054,4.631,1064.308,1.104,1.025
1.014000,902665,1000.00,12,0,1,1265.049,1.408,4.610,1063.707,0.416,1.025
1.015000,902666,1000.00,12,0,1,1263.487,-1.887,4.604,1063.035,-0.331,1.000
1.016000,902667,1000.00,12,0,1,1265.169,-2.103,4.602,1064.068,0.281,1.000
1.017000,902668,1000.00,12,0,1,1266.154,-1.397,4.601,1065.413,1.642,1.025
1.018000,902669,1000.00,12,0,1,1265.529,-2.754,4.617,1063.900,0.244,1.026
1.019000,902670,1000.00,12,0,1,1262.719,-4.720,4.665,1062.554,-1.362,1.039
1.020000,902671,1000.00,12,0,1,1261.518,-5.625,4.731,1063.707,-0.364,1.033
1.021000,902672,1000.00,12,0,1,1260.821,-4.385,4.770,1061.858,-1.240,1.034
1.022000,902673,1000.00,12,0,1,1262.791,-1.686,4.766,1062.482,-1.480,1.054
1.023000,902674,1000.00,12,0,1,1266.346,3.194,4.710,1063.876,0.717,1.059
1.024000,902675,1000.00,12,0,1,1262.382,1.482,4.640,1065.029,1.289,1.052
1.025000,902676,1000.00,12,0,1,1257.146,-3.180,4.554,1063.395,0.339,1.048
1.026000,902677,1000.00,12,0,1,1255.536,-3.089,4.454,1064.044,-0.042,1.028
1.027000,902678,1000.00,12,0,1,1257.434,-0.536,4.398,1063.611,0.402,1.006
1.028000,902679,1000.00,12,0,1,1258.683,1.790,4.404,1063.828,-0.137,1.004
1.029000,902680,1000.00,12,0,1,1259.068,1.758,4.327,1064.260,0.635,1.002
1.030000,902681,1000.00,12,0,1,1261.109,2.878,4.124,1064.332,0.445,0.981
1.031000,902682,1000.00,12,0,1,1263.295,3.846,4.008,1065.437,1.140,0.985
1.032000,902683,1000.00,12,0,1,1263.319,2.428,3.950,1064.981,0.965,0.961
1.033000,902684,1000.00,12,0,1,1263.896,0.980,3.897,1065.749,0.750,0.935
1.034000,902685,1000.00,12,0,1,1266.010,1.257,3.872,1063.587,-0.383,0.923
1.035000,902686,1000.00,12,0,1,1262.478,-2.436,3.841,1061.690,-2.996,1.012
1.036000,902687,1000.00,12,0,1,1261.710,-5.290,3.913,1062.386,-1.740,1.014
1.037000,902688,1000.00,12,0,1,1263.824,-2.827,3.827,1065.677,1.012,1.007
1.038000,902689,1000.00,12,0,1,1265.433,-1.611,3.685,1064.572,0.960,0.996
1.039000,902690,1000.00,12,0,1,1263.415,-2.518,3.465,1060.993,-2.873,1.065
1.040000,902691,1000.00,12,0,1,1259.476,-5.548,3.350,1063.347,-1.100,1.074
1.041000,902692,1000.00,12,0,1,1258.827,-4.989,3.386,1063.011,0.048,1.061
1.042000,902693,1000.00,12,0,1,1256.882,-4.103,3.419,1061.714,-1.908,1.084
1.043000,902694,1000.00,12,0,1,1256.954,-2.927,3.411,1061.906,-1.017,1.090
1.044000,902695,1000.00,12,0,1,1258.995,1.266,3.382,1062.915,-0.209,1.090
1.045000,902696,1000.00,12,0,1,1254.023,-1.044,3.363,1064.332,1.353,1.106
1.046000,902697,1000.00,12,0,1,1250.468,-3.899,3.395,1066.542,2.958,1.164
1.047000,902698,1000.00,12,0,1,1251.549,-1.192,3.177,1065.077,1.914,1.191
1.048000,902699,1000.00,12,0,1,1254.287,2.046,2.814,1063.779,-0.225,1.175
1.049000,902700,1000.00,12,0,1,1254.576,2.931,2.773,1063.900,0.040,1.168
1.050000,902701,1000.00,12,0,1,1258.755,5.066,2.862,1063.491,-0.310,1.156
1.051000,902702,1000.00,12,0,1,1259.668,5.980,2.966,1063.227,-0.635,1.149
1.052000,902703,1000.00,12,0,1,1260.677,4.037,3.012,1062.386,-1.051,1.158
1.053000,902704,1000.00,12,0,1,1258.659,1.677,3.020,1065.485,1.037,1.161
1.054000,902705,1000.00,12,0,1,1263.583,2.658,3.042,1065.413,2.098,1.196
1.055000,902706,1000.00,12,0,1,1266.250,5.367,3.111,1063.203,-0.889,1.198
1.056000,902707,1000.00,12,0,1,1263.151,0.392,3.097,1063.107,-0.828,1.201
1.057000,902708,1000.00,12,0,1,1265.529,0.675,3.099,1064.452,0.336,1.190
1.058000,902709,1000.00,12,0,1,1266.202,1.993,3.105,1066.037,1.779,1.213
1.059000,902710,1000.00,12,0,1,1263.103,-1.656,3.103,1064.212,0.400,1.207
1.060000,902711,1000.00,12,0,1,1261.085,-2.785,3.126,1062.699,-1.655,1.225
1.061000,902712,1000.00,12,0,1,1263.415,-0.423,3.063,1063.371,-0.725,1.221
1.062000,902713,1000.00,12,0,1,1265.193,3.005,3.071,1065.221,0.835,1.220
1.063000,902714,1000.00,12,0,1,1265.409,3.436,3.105,1062.939,-0.483,1.212
1.064000,902715,1000.00,12,0,1,1270.429,7.789,3.289,1063.251,-1.295,1.225
1.065000,902716,1000.00,12,0,1,1264.592,4.549,3.341,1065.245,1.279,1.237
1.066000,902717,1000.00,12,0,1,1255.224,-5.427,3.415,1064.524,0.532,1.239
1.067000,902718,1000.00,12,0,1,1252.966,-6.451,3.529,1064.068,-0.250,1.217
1.068000,902719,1000.00,12,0,1,1257.146,-2.089,3.520,1063.467,-0.522,1.219
1.069000,902720,1000.00,12,0,1,1260.389,1.828,3.466,1062.795,-1.291,1.217
1.070000,902721,1000.00,12,0,1,1256.113,-1.969,3.384,1062.867,-0.951,1.224
1.071000,902722,1000.00,12,0,1,1254.840,-4.921,3.399,1063.539,-0.321,1.212
1.072000,902723,1000.00,12,0,1,1259.956,-0.533,3.392,1065.221,1.229,1.206
1.073000,902724,1000.00,12,0,1,1265.721,3.609,3.400,1065.005,1.212,1.214
1.074000,902725,1000.00,12,0,1,1259.476,-1.805,3.403,1062.578,-1.112,1.211
1.075000,902726,1000.00,12,0,1,1253.351,-9.982,3.657,1063.659,-0.661,1.213
1.076000,902727,1000.00,12,0,1,1256.569,-6.730,3.753,1064.236,0.653,1.217
1.077000,902728,1000.00,12,0,1,1262.454,-0.765,3.754,1063.852,-0.105,1.216
1.078000,902729,1000.00,12,0,1,1266.634,3.187,3.772,1063.900,0.092,1.215
1.079000,902730,1000.00,12,0,1,1261.301,-0.514,3.765,1065.533,1.237,1.225
1.080000,902731,1000.00,12,0,1,1255.416,-6.503,3.854,1062.891,-0.383,1.224
1.081000,902732,1000.00,12,0,1,1254.504,-5.329,3.889,1064.140,-0.610,1.217
1.082000,902733,1000.00,12,0,1,1257.386,-1.184,3.878,1062.290,-0.589,1.212
1.083000,902734,1000.00,12,0,1,1259.404,2.899,3.897,1061.858,-2.236,1.248
1.084000,902735,1000.00,12,0,1,1258.395,3.070,3.917,1062.530,-0.475,1.249
1.085000,902736,1000.00,12,0,1,1254.912,1.015,3.904,1063.539,0.117,1.175
1.086000,902737,1000.00,12,0,1,1254.143,0.656,3.833,1063.347,0.393,1.150
1.087000,902738,1000.00,12,0,1,1250.997,-0.494,3.813,1062.266,-0.663,1.145
1.088000,902739,1000.00,12,0,1,1251.549,-0.586,3.807,1062.891,-0.340,1.138
1.089000,902740,1000.00,12,0,1,1249.147,-0.940,3.793,1064.092,1.144,1.075
1.090000,902741,1000.00,12,0,1,1250.780,-1.095,3.714,1064.884,1.480,1.084
1.091000,902742,1000.00,12,0,1,1251.309,0.601,3.647,1065.605,2.094,1.124
1.092000,902743,1000.00,12,0,1,1255.585,2.159,3.614,1063.371,0.020,1.091
1.093000,902744,1000.00,12,0,1,1259.476,5.587,3.676,1062.578,-1.243,1.096
1.094000,902745,1000.00,12,0,1,1269.661,11.098,3.993,1063.179,-0.360,1.096
1.095000,902746,1000.00,12,0,1,1268.147,9.999,4.233,1062.771,-0.524,1.082
1.096000,902747,1000.00,12,0,1,1263.391,1.118,4.200,1063.155,-0.322,0.999
1.097000,902748,1000.00,12,0,1,1264.184,0.824,4.198,1062.266,-0.572,0.965
1.098000,902749,1000.00,12,0,1,1266.010,1.874,4.197,1061.257,-1.672,0.993
1.099000,902750,1000.00,12,0,1,1265.457,1.031,4.179,1063.659,0.512,0.996
1.100000,902751,1000.00,12,0,1,1264.112,-0.005,4.117,1064.020,1.495,1.017
1.101000,902752,1000.00,12,0,1,1263.151,-0.727,4.031,1063.347,0.341,1.014
1.102000,902753,1000.00,12,0,1,1263.583,0.710,3.991,1063.755,0.719,1.008
1.103000,902754,1000.00,12,0,1,1261.422,-0.140,3.984,1063.131,0.229,0.998
1.104000,902755,1000.00,12,0,1,1259.140,-1.341,3.971,1062.987,-0.191,0.953
1.105000,902756,1000.00,12,0,1,1258.059,-1.299,3.902,1063.203,0.180,0.945
1.106000,902757,1000.00,12,0,1,1254.792,-2.687,3.920,1063.251,0.111,0.938
1.107000,902758,1000.00,12,0,1,1255.488,-2.216,3.931,1064.692,1.196,0.952
1.108000,902759,1000.00,12,0,1,1256.353,0.081,3.921,1063.972,0.854,0.926
1.109000,902760,1000.00,12,0,1,1256.665,-0.324,3.915,1065.197,1.012,0.935
1.110000,902761,1000.00,12,0,1,1257.746,0.421,3.895,1063.419,0.280,0.907
1.111000,902762,1000.00,12,0,1,1260.509,1.592,3.901,1062.386,-1.701,0.932
1.112000,902763,1000.00,12,0,1,1261.374,1.553,3.884,1063.731,0.018,0.925
1.113000,902764,1000.00,12,0,1,1262.647,0.624,3.855,1061.089,-1.757,0.955
1.114000,902765,1000.00,12,0,1,1265.193,1.495,3.700,1062.699,-1.304,0.955
1.115000,902766,1000.00,12,0,1,1266.826,1.552,3.650,1061.882,-0.278,0.939
1.116000,902767,1000.00,12,0,1,1267.955,1.015,3.572,1063.539,-0.250,0.937
1.117000,902768,1000.00,12,0,1,1268.556,0.678,3.454,1064.332,1.871,0.973
1.118000,902769,1000.00,12,0,1,1267.283,-1.030,3.445,1065.293,1.519,0.993
1.119000,902770,1000.00,12,0,1,1266.970,-1.586,3.442,1063.587,0.769,0.982
1.120000,902771,1000.00,12,0,1,1265.745,-1.841,3.441,1064.116,0.001,0.973
1.121000,902772,1000.00,12,0,1,1261.830,-4.249,3.423,1064.572,1.103,0.985
1.122000,902773,1000.00,12,0,1,1258.443,-5.980,3.525,1062.506,-0.953,0.978
1.123000,902774,1000.00,12,0,1,1261.013,-2.263,3.503,1062.506,-1.380,0.983
1.124000,902775,1000.00,12,0,1,1259.308,-0.767,3.495,1063.323,-0.026,0.970
1.125000,902776,1000.00,12,0,1,1258.995,-1.038,3.201,1064.908,0.906,0.974
1.126000,902777,1000.00,12,0,1,1255.392,-1.631,3.065,1064.020,0.786,0.976
1.127000,902778,1000.00,12,0,1,1255.392,-2.343,3.081,1064.020,-0.235,0.977
1.128000,902779,1000.00,12,0,1,1260.269,3.187,3.081,1065.485,1.466,0.998
1.129000,902780,1000.00,12,0,1,1261.950,4.635,3.149,1065.821,1.431,1.003
1.130000,902781,1000.00,12,0,1,1265.625,5.795,3.121,1063.948,-0.211,1.002
1.131000,902782,1000.00,12,0,1,1269.493,8.130,3.239,1065.053,-0.032,0.999
1.132000,902783,1000.00,12,0,1,1267.211,3.874,3.281,1065.197,0.787,1.001
1.133000,902784,1000.00,12,0,1,1263.824,-1.547,3.263,1064.188,-0.630,0.954
1.134000,902785,1000.00,12,0,1,1266.202,-1.535,3.241,1064.236,-0.566,0.955
1.135000,902786,1000.00,12,0,1,1271.078,2.101,3.252,1063.347,-1.055,0.967
1.136000,902787,1000.00,12,0,1,1269.949,0.425,3.251,1064.068,-0.787,0.972
1.137000,902788,1000.00,12,0,1,1270.862,-0.747,3.252,1064.332,0.105,0.967
1.138000,902789,1000.00,12,0,1,1272.903,1.332,3.256,1063.611,-0.824,0.973
1.139000,902790,1000.00,12,0,1,1267.283,-3.151,3.284,1065.653,0.828,0.967
1.140000,902791,1000.00,12,0,1,1254.504,-13.459,3.792,1065.461,1.152,0.958
1.141000,902792,1000.00,12,0,1,1248.619,-17.295,4.512,1064.068,-0.673,0.916
1.142000,902793,1000.00,12,0,1,1255.657,-7.746,4.633,1065.005,0.024,0.916
1.143000,902794,1000.00,12,0,1,1259.308,0.010,4.565,1063.779,-0.573,0.902
1.144000,902795,1000.00,12,0,1,1255.585,-1.730,4.294,1064.596,-0.614,0.905
1.145000,902796,1000.00,12,0,1,1252.390,-3.159,4.079,1063.659,-0.466,0.904
1.146000,902797,1000.00,12,0,1,1255.897,0.767,4.077,1061.834,-2.610,0.976
1.147000,902798,1000.00,12,0,1,1257.386,3.999,4.115,1063.948,-0.607,0.976
1.148000,902799,1000.00,12,0,1,1260.413,5.402,4.176,1064.332,0.523,0.950
1.149000,902800,1000.00,12,0,1,1258.827,4.608,4.225,1065.101,0.530,0.950
1.150000,902801,1000.00,12,0,1,1254.624,-1.123,4.227,1063.828,0.131,0.926
1.151000,902802,1000.00,12,0,1,1256.786,-0.466,4.227,1063.635,-0.888,0.934
1.152000,902803,1000.00,12,0,1,1257.338,0.211,4.226,1062.146,-1.235,0.944
1.153000,902804,1000.00,12,0,1,1255.897,-2.620,4.242,1063.203,-1.049,0.955
1.154000,902805,1000.00,12,0,1,1258.635,-0.980,4.240,1064.044,0.723,0.961
1.155000,902806,1000.00,12,0,1,1262.166,1.762,4.243,1064.428,0.604,0.964
1.156000,902807,1000.00,12,0,1,1266.106,4.326,4.270,1063.707,0.304,0.965
1.157000,902808,1000.00,12,0,1,1259.956,-0.381,4.259,1062.771,-0.740,0.956
1.158000,902809,1000.00,12,0,1,1255.296,-6.215,4.349,1061.930,-1.289,0.965
1.159000,902810,1000.00,12,0,1,1258.011,-2.229,4.360,1063.996,0.403,0.956
1.160000,902811,1000.00,12,0,1,1261.782,2.517,4.374,1065.653,2.281,1.009
1.161000,902812,1000.00,12,0,1,1267.066,7.703,4.502,1064.020,0.795,0.986
1.162000,902813,1000.00,12,0,1,1273.264,13.458,4.883,1063.659,-0.244,0.986
1.163000,902814,1000.00,12,0,1,1267.619,9.104,5.049,1064.620,0.919,0.963
1.164000,902815,1000.00,12,0,1,1262.502,2.301,5.055,1064.740,0.820,0.953
1.165000,902816,1000.00,12,0,1,1264.304,4.212,5.085,1064.164,0.296,0.953
1.166000,902817,1000.00,12,0,1,1263.319,3.875,5.113,1063.371,-0.581,0.956
1.167000,902818,1000.00,12,0,1,1261.205,1.014,5.114,1063.852,-0.225,0.919
1.168000,902819,1000.00,12,0,1,1258.539,-1.265,5.115,1063.972,0.125,0.894
1.169000,902820,1000.00,12,0,1,1264.136,1.631,5.115,1062.626,-1.009,0.898
1.170000,902821,1000.00,12,0,1,1270.309,7.443,5.216,1061.449,-2.010,0.942
1.171000,902822,1000.00,12,0,1,1271.126,5.632,5.242,1061.858,-1.434,0.951
1.172000,902823,1000.00,12,0,1,1271.318,3.292,5.194,1064.236,0.843,0.949
1.173000,902824,1000.00,12,0,1,1267.835,-1.435,5.188,1065.269,2.102,0.975
1.174000,902825,1000.00,12,0,1,1265.025,-6.156,5.260,1064.812,1.310,0.993
1.175000,902826,1000.00,12,0,1,1265.385,-6.221,5.331,1062.122,-0.949,0.993
1.176000,902827,1000.00,12,0,1,1260.557,-9.748,5.501,1062.002,-1.655,1.015
1.177000,902828,1000.00,12,0,1,1260.365,-10.519,5.689,1064.404,0.955,1.023
1.178000,902829,1000.00,12,0,1,1260.389,-7.783,5.777,1063.299,0.404,1.003
1.179000,902830,1000.00,12,0,1,1259.980,-7.296,5.832,1062.458,-0.967,0.992
1.180000,902831,1000.00,12,0,1,1261.998,-3.558,5.796,1063.419,0.198,0.992
1.181000,902832,1000.00,12,0,1,1264.232,0.085,5.681,1062.771,-0.183,0.992
1.182000,902833,1000.00,12,0,1,1260.509,-1.252,5.657,1063.828,0.344,0.987
1.183000,902834,1000.00,12,0,1,1259.740,-1.746,5.658,1064.716,1.518,1.007
1.184000,902835,1000.00,12,0,1,1258.371,-0.544,5.655,1066.109,2.138,1.048
1.185000,902836,1000.00,12,0,1,1254.936,-2.740,5.660,1066.470,2.522,1.097
1.186000,902837,1000.00,12,0,1,1256.906,-0.468,5.660,1065.197,0.847,1.098
1.187000,902838,1000.00,12,0,1,1261.061,4.437,5.694,1064.188,-0.363,1.099
1.188000,902839,1000.00,12,0,1,1261.806,4.891,5.733,1063.371,-1.046,1.103
1.189000,902840,1000.00,12,0,1,1259.788,2.413,5.725,1064.428,-0.345,1.097
1.190000,902841,1000.00,12,0,1,1262.070,2.572,5.412,1062.170,-1.436,1.104
1.191000,902842,1000.00,12,0,1,1265.601,5.217,4.884,1064.740,-0.437,1.102
1.192000,902843,1000.00,12,0,1,1268.484,5.684,4.827,1064.140,0.850,1.108
1.193000,902844,1000.00,12,0,1,1268.892,4.631,4.871,1062.218,-2.084,1.144
1.194000,902845,1000.00,12,0,1,1270.453,3.473,4.890,1064.380,0.173,1.141
1.195000,902846,1000.00,12,0,1,1267.307,0.287,4.869,1063.731,0.247,1.140
1.196000,902847,1000.00,12,0,1,1267.187,-2.161,4.878,1064.572,0.053,1.078
1.197000,902848,1000.00,12,0,1,1268.964,0.030,4.845,1064.308,0.719,1.080
1.198000,902849,1000.00,12,0,1,1270.525,0.907,4.786,1062.146,-1.809,1.107
1.199000,902850,1000.00,12,0,1,1268.315,-0.293,4.741,1062.338,-1.496,1.124
1.200000,902851,1000.00,12,0,1,1265.793,-2.603,4.753,1062.530,-0.929,1.132
1.201000,902852,1000.00,12,0,1,1262.743,-3.911,4.785,1063.131,-0.413,1.127
1.202000,902853,1000.00,12,0,1,1257.290,-7.048,4.887,1063.251,0.029,1.113
1.203000,902854,1000.00,12,0,1,1257.098,-6.248,4.953,1063.491,0.048,1.103
1.204000,902855,1000.00,12,0,1,1258.659,-1.981,4.959,1063.924,0.573,1.101
1.205000,902856,1000.00,12,0,1,1259.860,-0.110,4.952,1062.723,-0.379,1.099
1.206000,902857,1000.00,12,0,1,1260.869,1.910,4.922,1062.626,-0.748,1.103
1.207000,902858,1000.00,12,0,1,1262.430,2.983,4.940,1061.305,-1.248,1.113
1.208000,902859,1000.00,12,0,1,1260.052,1.260,4.864,1063.803,0.246,1.098
1.209000,902860,1000.00,12,0,1,1260.172,-0.349,4.854,1064.044,1.717,1.123
1.210000,902861,1000.00,12,0,1,1261.422,0.837,4.843,1063.587,0.332,1.077
1.211000,902862,1000.00,12,0,1,1262.839,0.728,4.720,1063.203,0.456,1.073
1.212000,902863,1000.00,12,0,1,1262.815,0.081,4.319,1065.509,1.778,1.101
1.213000,902864,1000.00,12,0,1,1266.802,1.671,4.129,1063.419,0.885,1.101
1.214000,902865,1000.00,12,0,1,1268.075,2.758,4.135,1065.413,0.931,1.103
1.215000,902866,1000.00,12,0,1,1268.315,1.050,4.094,1064.452,1.550,1.123
1.216000,902867,1000.00,12,0,1,1266.634,-0.572,4.058,1064.020,-0.360,1.122
1.217000,902868,1000.00,12,0,1,1267.883,-0.586,4.057,1064.188,0.468,1.123
1.218000,902869,1000.00,12,0,1,1265.313,-1.485,4.058,1065.581,1.070,1.133
1.219000,902870,1000.00,12,0,1,1265.577,-2.000,4.061,1063.948,0.133,1.124
1.220000,902871,1000.00,12,0,1,1264.640,-0.689,3.924,1063.251,-1.229,1.102
1.221000,902872,1000.00,12,0,1,1264.953,-0.320,3.842,1064.068,-0.265,1.083
1.222000,902873,1000.00,12,0,1,1262.454,-0.447,3.815,1063.611,-0.372,1.078
1.223000,902874,1000.00,12,0,1,1261.854,-0.854,3.811,1065.509,0.593,1.040
1.224000,902875,1000.00,12,0,1,1258.011,-2.030,3.721,1066.446,2.131,1.066
1.225000,902876,1000.00,12,0,1,1251.669,-6.894,3.745,1064.020,-0.603,1.061
1.226000,902877,1000.00,12,0,1,1251.669,-6.107,3.588,1064.020,-0.961,1.044
1.227000,902878,1000.00,12,0,1,1254.672,-1.402,3.271,1065.989,0.877,1.043
1.228000,902879,1000.00,12,0,1,1259.716,2.822,3.106,1062.987,-1.109,1.053
1.229000,902880,1000.00,12,0,1,1264.304,7.041,3.094,1062.290,-2.756,1.114
1.230000,902881,1000.00,12,0,1,1266.562,7.149,3.216,1061.762,-1.933,1.147
1.231000,902882,1000.00,12,0,1,1265.793,4.955,3.291,1063.900,-0.680,1.151
1.232000,902883,1000.00,12,0,1,1270.501,5.815,3.388,1064.668,1.160,1.162
1.233000,902884,1000.00,12,0,1,1272.519,7.036,3.522,1066.133,1.531,1.162
1.234000,902885,1000.00,12,0,1,1264.472,-1.998,3.533,1064.356,0.719,1.126
1.235000,902886,1000.00,12,0,1,1254.840,-11.740,3.884,1064.308,-0.500,1.071
1.236000,902887,1000.00,12,0,1,1251.789,-13.861,4.350,1063.419,-0.431,1.066
1.237000,902888,1000.00,12,0,1,1256.137,-8.221,4.459,1064.428,-0.287,1.065
1.238000,902889,1000.00,12,0,1,1252.462,-7.600,4.534,1063.059,-0.562,1.058
1.239000,902890,1000.00,12,0,1,1247.634,-11.191,4.790,1062.651,-1.599,1.081
1.240000,902891,1000.00,12,0,1,1250.732,-5.563,4.841,1062.987,-0.696,1.066
1.241000,902892,1000.00,12,0,1,1252.990,-0.441,4.785,1063.419,-0.272,1.065
1.242000,902893,1000.00,12,0,1,1252.294,0.684,4.718,1063.227,-0.283,1.059
1.243000,902894,1000.00,12,0,1,1255.056,4.014,4.706,1062.771,-0.536,1.020
1.244000,902895,1000.00,12,0,1,1259.308,8.791,4.843,1063.203,-0.307,1.021
1.245000,902896,1000.00,12,0,1,1266.514,14.244,5.245,1061.401,-1.148,1.033
1.246000,902897,1000.00,12,0,1,1270.309,16.913,5.757,1063.323,-0.378,1.034
1.247000,902898,1000.00,12,0,1,1268.964,12.985,6.042,1063.035,0.861,1.036
1.248000,902899,1000.00,12,0,1,1267.907,9.114,6.177,1061.690,-1.258,1.020
1.249000,902900,1000.00,12,0,1,1270.621,8.776,6.300,1065.029,1.780,1.029
1.250000,902901,1000.00,12,0,1,1266.634,4.036,6.315,1064.116,1.788,1.051
1.251000,902902,1000.00,12,0,1,1266.922,0.431,6.292,1061.906,-1.146,1.062
1.252000,902903,1000.00,12,0,1,1272.591,4.579,6.246,1063.131,0.101,1.062
1.253000,902904,1000.00,12,0,1,1275.498,5.448,6.231,1063.203,0.518,1.065
1.254000,902905,1000.00,12,0,1,1273.672,2.054,6.231,1062.146,-0.524,1.064
1.255000,902906,1000.00,12,0,1,1268.868,-3.535,6.251,1062.771,-0.086,1.063
1.256000,902907,1000.00,12,0,1,1271.198,-3.190,6.262,1064.092,1.283,1.073
1.257000,902908,1000.00,12,0,1,1270.790,-1.773,6.252,1065.221,2.099,1.099
1.258000,902909,1000.00,12,0,1,1271.078,-2.887,6.263,1063.299,0.565,1.102
1.259000,902910,1000.00,12,0,1,1269.613,-2.330,6.272,1063.179,-0.399,1.076
1.260000,902911,1000.00,12,0,1,1267.667,-4.328,6.300,1064.620,1.253,1.090
1.261000,902912,1000.00,12,0,1,1266.082,-4.179,6.327,1065.005,1.403,1.106
1.262000,902913,1000.00,12,0,1,1263.511,-5.397,6.373,1065.173,1.250,1.091
1.263000,902914,1000.00,12,0,1,1260.004,-7.107,6.447,1064.812,0.802,1.090
1.264000,902915,1000.00,12,0,1,1258.107,-7.467,6.522,1063.467,-0.588,1.085
1.265000,902916,1000.00,12,0,1,1260.989,-3.984,6.544,1065.101,0.391,1.064
1.266000,902917,1000.00,12,0,1,1263.511,-0.189,6.544,1065.773,1.459,1.083
1.267000,902918,1000.00,12,0,1,1265.673,1.152,6.545,1065.845,0.888,1.088
1.268000,902919,1000.00,12,0,1,1266.682,2.025,6.548,1064.932,0.181,1.078
1.269000,902920,1000.00,12,0,1,1264.544,-0.834,6.543,1063.443,-1.434,1.097
1.270000,902921,1000.00,12,0,1,1266.946,-0.304,6.543,1062.170,-2.402,1.135
1.271000,902922,1000.00,12,0,1,1266.778,-0.112,6.543,1062.338,-2.104,1.172
1.272000,902923,1000.00,12,0,1,1267.475,-1.443,6.545,1063.419,-0.788,1.177
1.273000,902924,1000.00,12,0,1,1267.042,-1.427,6.547,1064.068,0.067,1.174
1.274000,902925,1000.00,12,0,1,1269.805,-0.527,6.542,1064.140,0.090,1.134
1.275000,902926,1000.00,12,0,1,1268.748,-0.236,6.469,1066.230,1.625,1.154
1.276000,902927,1000.00,12,0,1,1270.357,-0.400,6.411,1066.686,2.248,1.189
1.277000,902928,1000.00,12,0,1,1269.637,0.638,6.408,1066.230,1.135,1.194
1.278000,902929,1000.00,12,0,1,1271.702,1.362,6.399,1062.891,-1.546,1.204
1.279000,902930,1000.00,12,0,1,1267.931,0.302,6.321,1063.179,-2.223,1.181
1.280000,902931,1000.00,12,0,1,1260.172,-6.650,6.310,1064.188,-0.283,1.150
1.281000,902932,1000.00,12,0,1,1260.533,-5.452,6.318,1063.035,-1.362,1.162
1.282000,902933,1000.00,12,0,1,1261.638,-1.483,6.268,1062.290,-1.929,1.182
1.283000,902934,1000.00,12,0,1,1260.701,-1.618,6.193,1062.362,-1.491,1.181
1.284000,902935,1000.00,12,0,1,1259.524,-1.115,6.188,1061.113,-2.133,1.215
1.285000,902936,1000.00,12,0,1,1260.677,-0.100,5.962,1064.884,0.745,1.217
1.286000,902937,1000.00,12,0,1,1261.349,1.576,5.634,1065.821,2.793,1.278
1.287000,902938,1000.00,12,0,1,1261.349,0.914,5.515,1065.173,1.152,1.288
1.288000,902939,1000.00,12,0,1,1264.040,2.727,5.423,1062.218,-0.940,1.292
1.289000,902940,1000.00,12,0,1,1266.514,4.235,5.221,1062.098,-1.886,1.300
1.290000,902941,1000.00,12,0,1,1263.631,0.896,5.163,1064.332,0.776,1.301
1.291000,902942,1000.00,12,0,1,1265.625,0.286,5.163,1066.422,2.529,1.349
1.292000,902943,1000.00,12,0,1,1267.619,2.308,5.172,1064.236,0.822,1.353
1.293000,902944,1000.00,12,0,1,1268.652,1.551,5.146,1063.659,-0.620,1.354
1.294000,902945,1000.00,12,0,1,1270.790,2.784,5.009,1063.227,-0.444,1.355
1.295000,902946,1000.00,12,0,1,1268.003,0.278,4.586,1062.362,-1.333,1.358
1.296000,902947,1000.00,12,0,1,1263.343,-4.532,3.965,1063.107,-0.641,1.360
1.297000,902948,1000.00,12,0,1,1265.481,-2.438,3.531,1063.419,0.134,1.355
1.298000,902949,1000.00,12,0,1,1267.859,1.313,3.292,1063.299,-0.198,1.343
1.299000,902950,1000.00,12,0,1,1269.757,3.219,3.083,1063.852,0.469,1.321
1.300000,902951,1000.00,12,0,1,1269.493,3.868,3.079,1064.284,0.748,1.301
1.301000,902952,1000.00,12,0,1,1266.130,1.146,3.083,1062.939,-0.202,1.291
1.302000,902953,1000.00,12,0,1,1263.752,-0.767,3.016,1061.209,-1.950,1.320
1.303000,902954,1000.00,12,0,1,1261.470,-1.695,2.926,1063.635,0.060,1.318
1.304000,902955,1000.00,12,0,1,1259.476,-2.963,2.941,1061.858,-0.297,1.317
1.305000,902956,1000.00,12,0,1,1263.391,0.646,2.900,1063.131,-0.513,1.319
1.306000,902957,1000.00,12,0,1,1266.106,3.941,2.918,1064.788,2.151,1.341
1.307000,902958,1000.00,12,0,1,1269.060,5.017,2.993,1065.653,2.051,1.340
1.308000,902959,1000.00,12,0,1,1266.346,2.572,2.987,1065.821,2.280,1.376
1.309000,902960,1000.00,12,0,1,1263.295,-2.521,2.990,1063.251,-0.232,1.375
1.310000,902961,1000.00,12,0,1,1265.505,-1.314,2.933,1063.395,-0.880,1.369
1.311000,902962,1000.00,12,0,1,1266.178,-0.879,2.875,1064.092,0.454,1.356
1.312000,902963,1000.00,12,0,1,1264.184,-3.559,2.817,1065.053,0.730,1.349
1.313000,902964,1000.00,12,0,1,1267.163,-1.858,2.645,1064.212,0.531,1.346
1.314000,902965,1000.00,12,0,1,1269.468,0.681,2.427,1061.978,-1.899,1.370
1.315000,902966,1000.00,12,0,1,1272.591,2.397,2.385,1063.611,-0.606,1.371
1.316000,902967,1000.00,12,0,1,1273.240,3.308,2.430,1062.651,-0.455,1.357
1.317000,902968,1000.00,12,0,1,1269.348,-0.484,2.426,1062.554,-1.306,1.364
1.318000,902969,1000.00,12,0,1,1271.006,0.188,2.409,1064.668,1.111,1.373
1.319000,902970,1000.00,12,0,1,1272.279,2.978,2.443,1066.422,2.457,1.402
1.320000,902971,1000.00,12,0,1,1265.913,-2.122,2.461,1065.749,1.840,1.384
1.321000,902972,1000.00,12,0,1,1263.463,-4.370,2.537,1063.683,-0.480,1.354
1.322000,902973,1000.00,12,0,1,1258.899,-5.688,2.654,1064.668,-0.120,1.349
1.323000,902974,1000.00,12,0,1,1256.738,-7.248,2.838,1064.548,0.389,1.350
1.324000,902975,1000.00,12,0,1,1253.303,-7.196,3.014,1065.461,0.382,1.351
1.325000,902976,1000.00,12,0,1,1253.903,-6.383,3.146,1063.707,-0.346,1.333
1.326000,902977,1000.00,12,0,1,1256.449,-1.859,3.156,1064.380,-0.915,1.301
1.327000,902978,1000.00,12,0,1,1254.912,-2.479,3.174,1068.271,2.990,1.358
1.328000,902979,1000.00,12,0,1,1251.237,-5.533,3.264,1066.374,1.604,1.359
1.329000,902980,1000.00,12,0,1,1253.375,-3.859,3.309,1062.915,-2.441,1.367
1.330000,902981,1000.00,12,0,1,1256.281,-0.427,3.173,1062.290,-2.748,1.421
1.331000,902982,1000.00,12,0,1,1264.953,5.748,3.183,1063.011,-1.816,1.431
1.332000,902983,1000.00,12,0,1,1269.036,9.710,3.460,1064.740,0.046,1.404
1.333000,902984,1000.00,12,0,1,1272.519,9.530,3.707,1064.716,0.372,1.389
1.334000,902985,1000.00,12,0,1,1270.477,7.231,3.842,1065.821,0.848,1.362
1.335000,902986,1000.00,12,0,1,1271.318,4.746,3.900,1065.485,0.982,1.365
1.336000,902987,1000.00,12,0,1,1272.567,5.994,3.985,1065.005,-0.072,1.306
1.337000,902988,1000.00,12,0,1,1270.982,3.614,4.015,1061.810,-2.247,1.334
1.338000,902989,1000.00,12,0,1,1268.772,1.368,4.001,1064.860,-0.769,1.332
1.339000,902990,1000.00,12,0,1,1265.625,-0.722,3.958,1065.533,1.614,1.325
1.340000,902991,1000.00,12,0,1,1267.499,0.668,3.957,1066.013,0.621,1.323
1.341000,902992,1000.00,12,0,1,1266.634,2.278,3.970,1065.053,0.569,1.277
1.342000,902993,1000.00,12,0,1,1264.832,0.074,3.956,1064.068,-1.078,1.281
1.343000,902994,1000.00,12,0,1,1262.671,-0.306,3.950,1065.365,0.143,1.278
1.344000,902995,1000.00,12,0,1,1260.917,-1.960,3.940,1064.380,-0.181,1.276
1.345000,902996,1000.00,12,0,1,1259.692,-2.118,3.952,1064.692,-0.717,1.267
1.346000,902997,1000.00,12,0,1,1252.630,-7.309,4.034,1064.332,-0.119,1.263
1.347000,902998,1000.00,12,0,1,1250.516,-9.875,4.255,1064.908,-0.392,1.264
1.348000,902999,1000.00,12,0,1,1249.699,-8.297,4.410,1063.876,-0.351,1.265
1.349000,903000,1000.00,12,0,1,1248.979,-8.903,4.563,1065.725,0.227,1.264
1.350000,903001,1000.00,12,0,1,1251.141,-6.042,4.610,1065.149,0.965,1.267
1.351000,903002,1000.00,12,0,1,1255.344,-2.179,4.618,1062.434,-2.181,1.303
1.352000,903003,1000.00,12,0,1,1261.542,2.995,4.636,1063.059,-1.528,1.292
1.353000,903004,1000.00,12,0,1,1275.642,13.460,5.006,1066.133,1.493,1.309
1.354000,903005,1000.00,12,0,1,1285.610,21.260,5.824,1065.365,1.262,1.321
1.355000,903006,1000.00,12,0,1,1281.695,14.719,6.184,1064.548,-0.162,1.319
1.356000,903007,1000.00,12,0,1,1276.651,6.165,6.221,1064.476,-0.054,1.283
1.357000,903008,1000.00,12,0,1,1273.408,2.365,6.189,1063.779,-0.613,1.253
1.358000,903009,1000.00,12,0,1,1273.048,0.932,6.180,1064.620,-0.139,1.211
1.359000,903010,1000.00,12,0,1,1272.327,1.300,6.172,1064.812,0.526,1.213
1.360000,903011,1000.00,12,0,1,1269.589,-0.835,6.171,1065.005,0.219,1.207
1.361000,903012,1000.00,12,0,1,1264.040,-4.301,6.199,1062.819,-1.096,1.215
1.362000,903013,1000.00,12,0,1,1262.382,-5.200,6.222,1063.755,-1.163,1.222
1.363000,903014,1000.00,12,0,1,1262.599,-2.740,6.229,1062.771,-0.668,1.223
1.364000,903015,1000.00,12,0,1,1262.959,-1.484,6.232,1064.308,-0.402,1.195
1.365000,903016,1000.00,12,0,1,1260.269,-2.558,6.233,1064.548,1.064,1.201
1.366000,903017,1000.00,12,0,1,1259.956,-3.221,6.232,1063.996,-0.195,1.200
1.367000,903018,1000.00,12,0,1,1259.884,-2.483,6.241,1063.299,-0.391,1.187
1.368000,903019,1000.00,12,0,1,1261.181,-2.133,6.249,1062.891,-0.856,1.182
1.369000,903020,1000.00,12,0,1,1264.784,0.444,6.235,1064.908,0.806,1.136
1.370000,903021,1000.00,12,0,1,1270.790,4.267,6.257,1065.869,2.176,1.148
1.371000,903022,1000.00,12,0,1,1276.915,7.750,6.322,1064.596,0.567,1.149
1.372000,903023,1000.00,12,0,1,1277.131,6.031,6.328,1064.116,0.006,1.148
1.373000,903024,1000.00,12,0,1,1277.443,2.819,6.257,1065.221,0.746,1.152
1.374000,903025,1000.00,12,0,1,1270.141,-3.640,6.195,1064.981,0.877,1.157
1.375000,903026,1000.00,12,0,1,1267.163,-9.032,6.261,1063.539,-0.746,1.161
1.376000,903027,1000.00,12,0,1,1269.877,-4.764,6.292,1062.362,-1.634,1.177
1.377000,903028,1000.00,12,0,1,1267.691,-5.322,6.327,1063.491,-0.748,1.103
1.378000,903029,1000.00,12,0,1,1266.826,-5.392,6.324,1062.939,-0.457,1.082
1.379000,903030,1000.00,12,0,1,1263.271,-5.532,6.349,1064.428,0.184,1.025
1.380000,903031,1000.00,12,0,1,1259.668,-7.461,6.436,1063.900,0.656,0.953
1.381000,903032,1000.00,12,0,1,1259.812,-4.460,6.416,1063.035,-0.842,0.926
1.382000,903033,1000.00,12,0,1,1261.590,-0.751,6.268,1062.194,-1.058,0.938
1.383000,903034,1000.00,12,0,1,1260.389,0.487,6.122,1063.731,-0.083,0.936
1.384000,903035,1000.00,12,0,1,1259.620,0.286,6.036,1062.915,0.060,0.929
1.385000,903036,1000.00,12,0,1,1258.371,0.431,5.999,1062.675,-0.797,0.925
1.386000,903037,1000.00,12,0,1,1257.386,-0.507,5.939,1062.795,-0.161,0.925
1.387000,903038,1000.00,12,0,1,1258.731,0.594,5.917,1063.347,0.174,0.870
1.388000,903039,1000.00,12,0,1,1259.932,1.410,5.918,1062.410,-0.290,0.864
1.389000,903040,1000.00,12,0,1,1262.599,2.334,5.926,1064.092,0.670,0.838
1.390000,903041,1000.00,12,0,1,1276.555,11.957,6.162,1063.972,1.267,0.853
1.391000,903042,1000.00,12,0,1,1272.471,9.392,6.295,1063.203,-0.001,0.849
1.392000,903043,1000.00,12,0,1,1260.869,-6.239,6.357,1063.852,0.580,0.839
1.393000,903044,1000.00,12,0,1,1261.374,-6.712,6.427,1063.059,0.184,0.839
1.394000,903045,1000.00,12,0,1,1264.280,-3.252,6.437,1063.299,-0.135,0.839
1.395000,903046,1000.00,12,0,1,1263.439,-3.603,6.451,1062.098,-0.440,0.835
1.396000,903047,1000.00,12,0,1,1266.874,-0.567,6.368,1064.092,0.363,0.837
1.397000,903048,1000.00,12,0,1,1269.444,3.113,6.228,1065.581,2.655,0.915
1.398000,903049,1000.00,12,0,1,1269.444,3.490,6.137,1063.443,0.238,0.915
1.399000,903050,1000.00,12,0,1,1275.834,8.559,6.127,1064.140,0.262,0.915
1.400000,903051,1000.00,12,0,1,1281.479,14.647,6.411,1065.461,1.785,0.939
1.401000,903052,1000.00,12,0,1,1281.094,13.040,6.664,1065.389,1.316,0.906
1.402000,903053,1000.00,12,0,1,1273.120,5.654,6.698,1063.227,-0.509,0.883
1.403000,903054,1000.00,12,0,1,1265.241,-2.780,6.434,1066.133,0.914,0.867
1.404000,903055,1000.00,12,0,1,1260.845,-5.807,5.747,1066.662,2.544,0.922
1.405000,903056,1000.00,12,0,1,1261.998,-4.512,5.395,1062.290,-2.096,0.968
1.406000,903057,1000.00,12,0,1,1264.304,-1.273,5.327,1063.059,-2.045,1.010
1.407000,903058,1000.00,12,0,1,1264.064,-1.594,5.321,1065.461,0.933,1.015
1.408000,903059,1000.00,12,0,1,1257.170,-7.475,5.424,1063.611,-0.593,1.018
1.409000,903060,1000.00,12,0,1,1253.735,-11.743,5.669,1063.107,-1.526,1.038
1.410000,903061,1000.00,12,0,1,1255.272,-9.458,5.824,1063.083,-1.014,1.048
1.411000,903062,1000.00,12,0,1,1261.662,-3.983,5.819,1062.795,-1.263,1.052
1.412000,903063,1000.00,12,0,1,1265.793,0.274,5.773,1064.212,0.020,1.039
1.413000,903064,1000.00,12,0,1,1269.204,1.816,5.765,1064.716,0.851,1.041
1.414000,903065,1000.00,12,0,1,1272.111,3.678,5.785,1065.701,1.198,1.053
1.415000,903066,1000.00,12,0,1,1274.032,4.233,5.805,1065.005,0.927,1.051
1.416000,903067,1000.00,12,0,1,1270.549,0.982,5.788,1064.332,-0.347,1.052
1.417000,903068,1000.00,12,0,1,1268.748,-1.566,5.782,1064.716,0.146,1.050
1.418000,903069,1000.00,12,0,1,1269.709,0.289,5.774,1064.260,-0.242,1.044
1.419000,903070,1000.00,12,0,1,1266.226,-1.141,5.776,1064.020,-0.599,1.041
1.420000,903071,1000.00,12,0,1,1264.376,-2.383,5.754,1063.323,-0.935,1.003
1.421000,903072,1000.00,12,0,1,1262.478,-1.436,5.653,1062.170,-1.925,1.037
1.422000,903073,1000.00,12,0,1,1257.482,-4.299,5.621,1063.467,-0.753,1.042
1.423000,903074,1000.00,12,0,1,1254.624,-5.080,5.653,1063.659,0.069,1.037
1.424000,903075,1000.00,12,0,1,1254.023,-3.559,5.652,1063.107,-0.628,1.033
1.425000,903076,1000.00,12,0,1,1254.864,-1.358,5.509,1063.924,0.158,1.028
1.426000,903077,1000.00,12,0,1,1258.275,2.294,5.477,1064.740,1.020,1.012
1.427000,903078,1000.00,12,0,1,1257.578,2.402,5.436,1065.053,1.136,1.019
1.428000,903079,1000.00,12,0,1,1255.368,-0.792,5.383,1065.461,1.310,1.034
1.429000,903080,1000.00,12,0,1,1254.023,-2.382,5.337,1063.924,0.004,1.034
1.430000,903081,1000.00,12,0,1,1258.419,0.023,5.231,1063.011,-1.220,1.044
1.431000,903082,1000.00,12,0,1,1261.782,3.029,5.211,1063.419,-0.618,1.041
1.432000,903083,1000.00,12,0,1,1260.485,0.376,5.210,1065.077,0.784,1.036
1.433000,903084,1000.00,12,0,1,1261.422,-0.452,5.210,1065.293,1.252,1.051
1.434000,903085,1000.00,12,0,1,1263.247,0.911,5.211,1063.443,-0.579,1.054
1.435000,903086,1000.00,12,0,1,1268.988,4.532,5.250,1064.260,-0.326,1.049
1.436000,903087,1000.00,12,0,1,1275.161,10.013,5.437,1067.022,2.359,1.100
1.437000,903088,1000.00,12,0,1,1275.185,9.115,5.587,1066.494,1.951,1.134
1.438000,903089,1000.00,12,0,1,1271.366,4.780,5.625,1064.932,-0.072,1.133
1.439000,903090,1000.00,12,0,1,1269.997,2.936,5.630,1064.548,-0.535,1.132
1.440000,903091,1000.00,12,0,1,1268.628,2.678,5.384,1064.981,-0.171,1.118
1.441000,903092,1000.00,12,0,1,1261.902,-2.030,5.225,1064.668,-0.282,1.119
1.442000,903093,1000.00,12,0,1,1255.657,-6.744,5.238,1066.926,1.192,1.128
1.443000,903094,1000.00,12,0,1,1253.903,-6.230,5.226,1066.254,1.289,1.143
1.444000,903095,1000.00,12,0,1,1258.539,-0.728,5.207,1064.068,-1.433,1.160
1.445000,903096,1000.00,12,0,1,1261.950,4.190,5.215,1064.068,-1.369,1.175
1.446000,903097,1000.00,12,0,1,1262.767,4.291,5.250,1065.053,-0.304,1.174
1.447000,903098,1000.00,12,0,1,1264.016,4.452,5.269,1064.260,-0.716,1.117
1.448000,903099,1000.00,12,0,1,1266.610,5.064,5.295,1064.428,-0.844,1.123
1.449000,903100,1000.00,12,0,1,1272.543,7.869,5.273,1064.620,-0.317,1.124
1.450000,903101,1000.00,12,0,1,1274.201,7.562,4.966,1064.140,-0.747,1.100
1.451000,903102,1000.00,12,0,1,1273.984,3.566,4.638,1062.626,-1.862,1.116
1.452000,903103,1000.00,12,0,1,1274.273,1.552,4.574,1062.074,-2.305,1.160
1.453000,903104,1000.00,12,0,1,1277.924,1.919,4.565,1064.740,0.135,1.153
1.454000,903105,1000.00,12,0,1,1280.758,3.262,4.514,1065.293,1.381,1.113
1.455000,903106,1000.00,12,0,1,1278.092,-0.535,4.470,1064.092,-0.197,1.073
1.456000,903107,1000.00,12,0,1,1271.198,-7.270,4.583,1064.500,0.114,1.033
1.457000,903108,1000.00,12,0,1,1267.811,-10.223,4.800,1065.413,0.954,1.034
1.458000,903109,1000.00,12,0,1,1267.307,-8.546,4.836,1063.539,-0.419,1.032
1.459000,903110,1000.00,12,0,1,1264.520,-8.384,4.694,1064.044,-0.656,1.013
1.460000,903111,1000.00,12,0,1,1260.581,-9.502,4.696,1062.506,-0.946,1.012
1.461000,903112,1000.00,12,0,1,1259.260,-7.937,4.795,1065.053,0.176,0.996
1.462000,903113,1000.00,12,0,1,1262.839,-2.426,4.807,1065.317,1.888,1.032
1.463000,903114,1000.00,12,0,1,1260.797,-0.908,4.802,1065.869,1.063,1.036
1.464000,903115,1000.00,12,0,1,1258.947,-2.522,4.787,1064.116,0.403,1.023
1.465000,903116,1000.00,12,0,1,1264.640,3.363,4.773,1063.972,-0.765,1.021
1.466000,903117,1000.00,12,0,1,1269.829,8.326,4.914,1064.260,0.195,1.020
1.467000,903118,1000.00,12,0,1,1266.514,4.629,4.953,1064.332,0.033,1.020
1.468000,903119,1000.00,12,0,1,1266.130,1.339,4.956,1066.326,1.548,1.042
1.469000,903120,1000.00,12,0,1,1267.499,1.827,4.960,1063.996,0.290,1.040
1.470000,903121,1000.00,12,0,1,1269.324,1.260,4.952,1063.900,-1.223,1.046
1.471000,903122,1000.00,12,0,1,1275.113,4.343,4.986,1064.620,0.547,1.012
1.472000,903123,1000.00,12,0,1,1274.945,3.392,4.972,1065.917,0.833,1.014
1.473000,903124,1000.00,12,0,1,1267.931,-4.941,4.969,1066.374,1.765,1.044
1.474000,903125,1000.00,12,0,1,1264.160,-9.175,5.111,1065.677,0.498,1.043
1.475000,903126,1000.00,12,0,1,1264.977,-7.689,5.222,1065.173,-0.031,1.042
1.476000,903127,1000.00,12,0,1,1270.573,-1.778,5.218,1064.788,-0.471,1.034
1.477000,903128,1000.00,12,0,1,1272.927,2.240,5.216,1065.053,-0.364,1.023
1.478000,903129,1000.00,12,0,1,1270.261,0.481,5.216,1064.404,-0.608,1.010
1.479000,903130,1000.00,12,0,1,1269.372,0.316,5.205,1064.092,-1.162,1.023
1.480000,903131,1000.00,12,0,1,1265.985,-0.542,5.205,1065.125,0.003,1.009
1.481000,903132,1000.00,12,0,1,1262.406,-2.832,5.203,1064.380,-0.380,1.006
1.482000,903133,1000.00,12,0,1,1265.529,1.241,5.206,1064.428,-0.637,1.004
1.483000,903134,1000.00,12,0,1,1268.099,5.361,5.260,1064.668,-0.053,0.988
1.484000,903135,1000.00,12,0,1,1265.217,3.163,5.278,1063.852,-0.743,0.991
1.485000,903136,1000.00,12,0,1,1261.277,-0.668,5.240,1064.644,-0.208,0.990
1.486000,903137,1000.00,12,0,1,1258.827,-2.873,5.061,1065.677,1.020,0.943
1.487000,903138,1000.00,12,0,1,1259.236,-2.750,4.909,1066.758,1.641,0.931
1.488000,903139,1000.00,12,0,1,1260.076,-1.963,4.871,1065.821,0.979,0.941
1.489000,903140,1000.00,12,0,1,1266.298,1.922,4.860,1065.197,-0.240,0.939
1.490000,903141,1000.00,12,0,1,1266.754,2.693,4.861,1065.893,0.450,0.941
1.491000,903142,1000.00,12,0,1,1264.400,-2.141,4.862,1064.260,-0.764,0.946
1.492000,903143,1000.00,12,0,1,1270.525,1.584,4.772,1063.972,-1.524,0.956
1.493000,903144,1000.00,12,0,1,1272.879,3.893,4.723,1064.212,-0.704,0.943
1.494000,903145,1000.00,12,0,1,1270.838,0.087,4.721,1063.659,-1.212,0.937
1.495000,903146,1000.00,12,0,1,1270.790,-0.482,4.685,1065.845,0.572,0.921
1.496000,903147,1000.00,12,0,1,1275.041,2.711,4.661,1066.374,1.607,0.947
1.497000,903148,1000.00,12,0,1,1274.705,3.686,4.648,1065.845,0.530,0.945
1.498000,903149,1000.00,12,0,1,1270.213,-0.586,4.593,1064.356,-0.553,0.940
1.499000,903150,1000.00,12,0,1,1271.174,0.575,4.457,1062.602,-2.286,0.993
1.500000,903151,1000.00,12,0,1,1271.078,2.558,4.341,1063.131,-1.662,1.015
1.501000,903152,1000.00,12,0,1,1266.034,-0.993,4.314,1066.013,1.120,0.993
1.502000,903153,1000.00,12,0,1,1264.232,-1.928,4.317,1065.965,1.574,0.964
1.503000,903154,1000.00,12,0,1,1263.583,-0.722,4.310,1064.452,-0.276,0.965
1.504000,903155,1000.00,12,0,1,1263.680,-0.069,4.285,1065.989,0.754,0.951
1.505000,903156,1000.00,12,0,1,1264.784,1.464,4.290,1066.614,1.721,0.981
1.506000,903157,1000.00,12,0,1,1259.620,-2.400,4.178,1066.061,0.689,0.986
1.507000,903158,1000.00,12,0,1,1257.098,-6.073,4.013,1066.133,0.635,0.981
1.508000,903159,1000.00,12,0,1,1258.467,-4.208,3.873,1065.605,0.087,0.979
1.509000,903160,1000.00,12,0,1,1258.563,-4.368,3.739,1064.740,-0.781,0.981
1.510000,903161,1000.00,12,0,1,1262.719,-1.828,3.498,1063.707,-1.572,0.997
1.511000,903162,1000.00,12,0,1,1270.333,4.211,3.366,1062.891,-2.134,1.041
1.512000,903163,1000.00,12,0,1,1269.444,2.915,3.374,1064.428,-0.710,1.011
1.513000,903164,1000.00,12,0,1,1271.726,1.630,3.380,1064.332,-0.066,1.000
1.514000,903165,1000.00,12,0,1,1278.284,6.937,3.501,1063.155,-1.329,1.016
1.515000,903166,1000.00,12,0,1,1278.764,6.434,3.586,1062.867,-1.328,1.028
1.516000,903167,1000.00,12,0,1,1275.402,2.008,3.399,1064.380,0.050,1.027
1.517000,903168,1000.00,12,0,1,1273.936,0.258,3.335,1064.668,0.780,1.033
1.518000,903169,1000.00,12,0,1,1268.916,-2.907,3.355,1063.828,-0.168,1.010
1.519000,903170,1000.00,12,0,1,1268.195,-3.398,3.380,1065.077,0.689,1.014
1.520000,903171,1000.00,12,0,1,1271.510,1.779,3.384,1064.860,0.964,1.008
1.521000,903172,1000.00,12,0,1,1270.165,2.393,3.345,1064.284,-0.089,1.005
1.522000,903173,1000.00,12,0,1,1266.202,-0.480,3.311,1064.884,0.560,1.002
1.523000,903174,1000.00,12,0,1,1263.319,-1.905,3.248,1064.572,0.329,0.971
1.524000,903175,1000.00,12,0,1,1264.112,-0.668,2.979,1064.428,0.012,0.969
1.525000,903176,1000.00,12,0,1,1262.623,-0.489,2.774,1064.236,-0.008,0.969
1.526000,903177,1000.00,12,0,1,1262.478,-1.481,2.771,1066.926,1.851,1.001
1.527000,903178,1000.00,12,0,1,1263.295,-0.384,2.753,1065.965,1.807,1.032
1.528000,903179,1000.00,12,0,1,1265.313,0.105,2.753,1065.413,0.064,1.028
1.529000,903180,1000.00,12,0,1,1266.778,0.673,2.754,1065.677,0.784,1.021
1.530000,903181,1000.00,12,0,1,1267.979,-0.048,2.753,1065.269,0.078,1.021
1.531000,903182,1000.00,12,0,1,1272.471,1.993,2.738,1065.221,0.004,1.020
1.532000,903183,1000.00,12,0,1,1273.768,2.292,2.752,1066.398,0.901,1.024
1.533000,903184,1000.00,12,0,1,1264.688,-6.696,2.809,1066.182,0.833,1.030
1.534000,903185,1000.00,12,0,1,1265.721,-8.253,3.009,1065.821,0.137,1.025
1.535000,903186,1000.00,12,0,1,1266.490,-4.548,3.076,1066.374,0.470,1.027
1.536000,903187,1000.00,12,0,1,1266.826,-4.763,3.122,1065.413,-0.180,1.017
1.537000,903188,1000.00,12,0,1,1272.327,1.608,3.106,1066.734,0.234,0.991
1.538000,903189,1000.00,12,0,1,1271.030,2.578,3.115,1067.503,1.479,1.003
1.539000,903190,1000.00,12,0,1,1270.549,1.606,3.112,1066.326,-0.114,1.003
1.540000,903191,1000.00,12,0,1,1265.025,-0.181,3.088,1064.476,-1.694,1.029
1.541000,903192,1000.00,12,0,1,1264.352,-1.595,3.082,1066.566,-0.433,1.025
1.542000,903193,1000.00,12,0,1,1263.103,1.012,3.077,1067.551,1.262,1.018
1.543000,903194,1000.00,12,0,1,1266.346,3.043,3.058,1065.965,-0.599,1.017
1.544000,903195,1000.00,12,0,1,1271.510,9.364,3.332,1066.950,-0.148,1.002
1.545000,903196,1000.00,12,0,1,1267.547,5.661,3.426,1065.149,-0.930,1.008
1.546000,903197,1000.00,12,0,1,1258.947,-3.288,3.436,1065.869,-1.361,1.000
1.547000,903198,1000.00,12,0,1,1259.092,-4.369,3.452,1065.629,-0.308,0.999
1.548000,903199,1000.00,12,0,1,1260.100,-2.658,3.472,1065.629,-1.101,1.008
1.549000,903200,1000.00,12,0,1,1266.946,1.448,3.477,1064.548,-1.152,0.968
1.550000,903201,1000.00,12,0,1,1267.042,2.272,3.473,1064.644,-1.562,0.965
1.551000,903202,1000.00,12,0,1,1262.935,-4.115,3.519,1065.077,-0.482,0.954
1.552000,903203,1000.00,12,0,1,1260.413,-6.883,3.641,1063.852,-1.380,0.948
1.553000,903204,1000.00,12,0,1,1262.382,-5.712,3.728,1064.812,-0.781,0.954
1.554000,903205,1000.00,12,0,1,1263.391,-3.895,3.768,1065.461,0.547,0.951
1.555000,903206,1000.00,12,0,1,1260.701,-5.570,3.844,1065.509,0.186,0.920
1.556000,903207,1000.00,12,0,1,1265.985,-1.409,3.834,1063.611,-0.920,0.924
1.557000,903208,1000.00,12,0,1,1267.667,3.221,3.764,1064.380,-0.987,0.930
1.558000,903209,1000.00,12,0,1,1264.592,0.104,3.717,1065.749,1.076,0.942
1.559000,903210,1000.00,12,0,1,1265.841,2.351,3.680,1065.533,0.603,0.939
1.560000,903211,1000.00,12,0,1,1268.940,6.229,3.776,1065.269,0.321,0.914
1.561000,903212,1000.00,12,0,1,1266.802,5.737,3.816,1064.884,-0.021,0.863
1.562000,903213,1000.00,12,0,1,1266.946,5.220,3.864,1063.131,-1.410,0.880
1.563000,903214,1000.00,12,0,1,1275.426,12.527,4.245,1063.587,-1.196,0.896
1.564000,903215,1000.00,12,0,1,1279.749,16.482,4.742,1065.101,0.633,0.880
1.565000,903216,1000.00,12,0,1,1279.461,13.290,5.019,1063.707,-0.213,0.861
1.566000,903217,1000.00,12,0,1,1272.423,5.628,5.074,1063.707,-0.716,0.866
1.567000,903218,1000.00,12,0,1,1259.188,-8.205,5.205,1065.149,1.064,0.872
1.568000,903219,1000.00,12,0,1,1260.172,-9.674,5.366,1065.149,1.064,0.885
1.569000,903220,1000.00,12,0,1,1267.042,-1.983,5.352,1066.085,1.559,0.907
1.570000,903221,1000.00,12,0,1,1268.027,-1.837,5.352,1066.470,1.994,0.940
1.571000,903222,1000.00,12,0,1,1270.862,-1.134,5.344,1066.590,1.600,0.967
1.572000,903223,1000.00,12,0,1,1269.757,-2.178,5.352,1064.380,-0.146,0.964
1.573000,903224,1000.00,12,0,1,1271.895,-2.792,5.360,1064.908,-0.549,0.966
1.574000,903225,1000.00,12,0,1,1275.330,0.655,5.360,1066.734,1.627,0.993
1.575000,903226,1000.00,12,0,1,1276.050,0.245,5.360,1065.605,0.557,0.996
1.576000,903227,1000.00,12,0,1,1274.897,-0.936,5.357,1065.317,-0.256,0.961
1.577000,903228,1000.00,12,0,1,1271.798,-3.506,5.380,1065.581,0.238,0.927
1.578000,903229,1000.00,12,0,1,1273.720,-1.904,5.387,1066.782,0.869,0.936
1.579000,903230,1000.00,12,0,1,1276.290,2.220,5.395,1067.022,1.343,0.948
1.580000,903231,1000.00,12,0,1,1273.432,0.496,5.395,1064.860,-0.846,0.956
1.581000,903232,1000.00,12,0,1,1271.558,-0.810,5.389,1064.932,-1.198,0.971
1.582000,903233,1000.00,12,0,1,1269.829,-0.896,5.381,1065.029,-0.562,0.965
1.583000,903234,1000.00,12,0,1,1269.444,-0.696,5.298,1063.828,-1.650,0.986
1.584000,903235,1000.00,12,0,1,1274.633,4.183,5.202,1064.068,-1.391,1.005
1.585000,903236,1000.00,12,0,1,1284.337,12.333,5.448,1065.485,0.130,1.003
1.586000,903237,1000.00,12,0,1,1293.729,18.816,6.026,1066.614,1.208,1.018
1.587000,903238,1000.00,12,0,1,1261.710,-7.108,6.105,1065.725,0.502,1.019
1.588000,903239,1000.00,12,0,1,1250.036,-26.905,7.184,1065.005,-0.542,1.001
1.589000,903240,1000.00,12,0,1,1256.137,-14.048,7.451,1066.109,0.420,1.002
1.590000,903241,1000.00,12,0,1,1262.623,-9.056,7.560,1065.653,0.305,0.974
1.591000,903242,1000.00,12,0,1,1267.787,-2.211,7.563,1067.791,1.398,0.992
1.592000,903243,1000.00,12,0,1,1271.030,-0.187,7.562,1065.917,0.721,0.981
1.593000,903244,1000.00,12,0,1,1276.915,3.676,7.567,1064.188,-2.028,1.019
1.594000,903245,1000.00,12,0,1,1281.551,7.575,7.527,1063.659,-1.705,1.047
1.595000,903246,1000.00,12,0,1,1278.476,3.180,7.498,1064.140,-1.425,1.058
1.596000,903247,1000.00,12,0,1,1275.714,-0.335,7.484,1064.260,-0.709,1.045
1.597000,903248,1000.00,12,0,1,1273.864,-2.140,7.464,1064.524,-0.503,1.047
1.598000,903249,1000.00,12,0,1,1270.189,-4.057,7.477,1063.731,-0.829,1.042
1.599000,903250,1000.00,12,0,1,1270.189,-3.776,7.493,1062.987,-1.455,1.049
1.600000,903251,1000.00,12,0,1,1274.681,2.260,7.493,1063.900,-0.557,1.029
1.601000,903252,1000.00,12,0,1,1279.509,7.297,7.541,1064.812,0.692,1.031
1.602000,903253,1000.00,12,0,1,1284.866,12.123,7.672,1063.323,-0.512,1.015
1.603000,903254,1000.00,12,0,1,1263.872,-3.429,7.645,1064.981,0.434,1.011
1.604000,903255,1000.00,12,0,1,1249.027,-20.335,8.149,1065.653,1.725,1.037
1.605000,903256,1000.00,12,0,1,1259.668,-7.490,8.180,1064.092,-0.051,1.037
1.606000,903257,1000.00,12,0,1,1269.444,4.601,8.203,1063.563,-0.670,1.033
1.607000,903258,1000.00,12,0,1,1275.498,8.971,8.288,1066.926,2.029,1.063
1.608000,903259,1000.00,12,0,1,1273.072,6.883,8.345,1066.350,2.259,1.099
1.609000,903260,1000.00,12,0,1,1268.604,-0.392,8.339,1066.446,1.049,1.106
1.610000,903261,1000.00,12,0,1,1266.730,-2.604,8.300,1066.494,1.529,1.126
1.611000,903262,1000.00,12,0,1,1265.241,-5.012,8.291,1067.647,1.695,1.151
