# FW/GUI: v9.6.1-multi17-dual (PyQt5)
# StartTime: 2026-04-03 16:24:07
# Slot: 13
# DeviceID: 13
# Label: EMG13
# IP: 192.168.137.206
# TCP: 3333
# DeviceFW: EMG_FW_v9.6_MULTI17_DUALCH_RUNTIMECFG_CHEN
# IMU1_RefTime = format(imu_ms) = relative since power-on Time (IMU acquisition time)
IMU1_RefTime,ax_g,ay_g,az_g,gx_dps,gy_dps,gz_dps,mx_uT,my_uT,mz_uT,temp_C,qw,qx,qy,qz
'00:16:00.554,0.059082,0.029785,1.003418,0.243902,1.280488,-0.548781,-4.768750,17.475000,19.287500,30.827,0.56834707,-0.00976422,-0.02877833,-0.82222751
'00:16:00.564,0.058594,0.028809,1.003906,0.243902,1.280488,-0.548781,-4.768750,17.475000,19.287500,30.812,0.56835413,-0.00977490,-0.02877329,-0.82222268
'00:16:00.574,0.059570,0.029297,1.003906,0.304878,1.280488,-0.548781,-4.800000,17.506250,19.325001,30.767,0.56835945,-0.00978448,-0.02877743,-0.82221874
'00:16:00.584,0.060059,0.029785,1.005371,0.365854,1.341463,-0.609756,-4.800000,17.506250,19.325001,30.812,0.56836046,-0.00978681,-0.02878695,-0.82221768
'00:16:00.594,0.061035,0.029297,1.004395,0.243902,1.280488,-0.548781,-4.875000,17.637501,19.337500,30.812,0.56836346,-0.00980433,-0.02878918,-0.82221532
'00:16:00.604,0.060547,0.029297,1.002930,0.304878,1.280488,-0.548781,-4.875000,17.637501,19.337500,30.797,0.56836648,-0.00981620,-0.02879441,-0.82221291
'00:16:00.614,0.060059,0.028320,1.003418,0.365854,1.341463,-0.609756,-4.993750,17.800001,19.456251,30.812,0.56836073,-0.00981673,-0.02878796,-0.82221711
'00:16:00.624,0.060059,0.028809,1.003906,0.365854,1.341463,-0.609756,-4.993750,17.800001,19.456251,30.827,0.56835491,-0.00981529,-0.02878417,-0.82222128
'00:16:00.634,0.058594,0.029785,1.003906,0.426829,1.341463,-0.548781,-5.300000,18.212500,19.818750,30.782,0.56834127,-0.00978843,-0.02877110,-0.82223148
'00:16:00.644,0.059570,0.028809,1.004395,0.365854,1.341463,-0.548781,-5.300000,18.212500,19.818750,30.812,0.56832788,-0.00977389,-0.02875210,-0.82224158
'00:16:00.654,0.058105,0.029297,1.004395,0.304878,1.280488,-0.548781,-4.937500,17.725000,19.531250,30.782,0.56832819,-0.00977058,-0.02874496,-0.82224165
'00:16:00.664,0.059082,0.029785,1.003906,0.365854,1.402439,-0.609756,-4.937500,17.725000,19.531250,30.812,0.56832437,-0.00975901,-0.02874303,-0.82224449
'00:16:00.674,0.060547,0.029297,1.004395,0.365854,1.341463,-0.548781,-4.837500,17.556250,19.312500,30.812,0.56832867,-0.00976518,-0.02875102,-0.82224117
'00:16:00.684,0.060059,0.028809,1.003418,0.304878,1.280488,-0.548781,-4.837500,17.556250,19.312500,30.767,0.56833284,-0.00977806,-0.02875325,-0.82223806
'00:16:00.694,0.058594,0.029297,1.003418,0.304878,1.341463,-0.548781,-4.825000,17.531250,19.418751,30.797,0.56833691,-0.00977705,-0.02874958,-0.82223538
'00:16:00.704,0.059570,0.030273,1.002930,0.304878,1.341463,-0.548781,-4.825000,17.531250,19.418751,30.767,0.56834072,-0.00977774,-0.02875552,-0.82223253
'00:16:00.714,0.059082,0.029297,1.004883,0.365854,1.341463,-0.609756,-4.775000,17.493750,19.281250,30.782,0.56834362,-0.00977814,-0.02876089,-0.82223034
'00:16:00.724,0.059082,0.029785,1.004883,0.304878,1.341463,-0.609756,-4.775000,17.493750,19.281250,30.797,0.56834635,-0.00977961,-0.02876457,-0.82222831
'00:16:00.734,0.059570,0.029297,1.003906,0.304878,1.341463,-0.548781,-4.925000,17.668751,19.462500,30.827,0.56834648,-0.00977975,-0.02875974,-0.82222838
'00:16:00.744,0.060059,0.029785,1.004395,0.365854,1.402439,-0.548781,-4.925000,17.668751,19.462500,30.842,0.56834672,-0.00977319,-0.02876077,-0.82222826
'00:16:00.754,0.059082,0.030273,1.004395,0.365854,1.341463,-0.548781,-5.018750,17.800001,19.531250,30.812,0.56834317,-0.00976026,-0.02875966,-0.82223090
'00:16:00.764,0.059082,0.029785,1.003906,0.365854,1.341463,-0.548781,-5.018750,17.800001,19.531250,30.827,0.56833976,-0.00974952,-0.02875606,-0.82223351
'00:16:00.774,0.059082,0.029785,1.003906,0.365854,1.341463,-0.548781,-4.793750,17.462500,19.331251,30.827,0.56834470,-0.00974732,-0.02876223,-0.82222991
'00:16:00.785,0.059570,0.029297,1.002930,0.304878,1.341463,-0.548781,-4.825000,17.525000,19.287500,30.812,0.56834957,-0.00975225,-0.02876262,-0.82222647
'00:16:00.794,0.059570,0.029297,1.002930,0.304878,1.341463,-0.548781,-4.825000,17.525000,19.287500,30.812,0.56835353,-0.00975620,-0.02876292,-0.82222368
'00:16:00.804,0.060059,0.030273,1.003906,0.304878,1.341463,-0.609756,-4.818750,17.500000,19.318750,30.812,0.56835303,-0.00975915,-0.02877011,-0.82222373
'00:16:00.814,0.059570,0.028809,1.002930,0.304878,1.280488,-0.548781,-4.818750,17.500000,19.318750,30.797,0.56835706,-0.00976984,-0.02877035,-0.82222082
'00:16:00.824,0.060059,0.029785,1.003418,0.304878,1.341463,-0.548781,-5.118750,17.950001,19.637501,30.827,0.56834987,-0.00976387,-0.02876191,-0.82222615
'00:16:00.834,0.059082,0.028809,1.003906,0.365854,1.341463,-0.609756,-5.118750,17.950001,19.637501,30.812,0.56833865,-0.00975319,-0.02874875,-0.82223450
'00:16:00.844,0.059570,0.029297,1.005371,0.426829,1.402439,-0.609756,-5.050000,17.943750,19.600000,30.797,0.56833220,-0.00973961,-0.02874626,-0.82223920
'00:16:00.854,0.060059,0.029785,1.003418,0.304878,1.341463,-0.548781,-5.050000,17.943750,19.600000,30.827,0.56832978,-0.00973801,-0.02874341,-0.82224099
'00:16:00.864,0.059082,0.029297,1.003418,0.365854,1.341463,-0.548781,-4.881250,17.575001,19.287500,30.782,0.56833166,-0.00973413,-0.02874329,-0.82223974
'00:16:00.874,0.059082,0.028809,1.003906,0.304878,1.341463,-0.609756,-4.881250,17.575001,19.287500,30.767,0.56832923,-0.00973498,-0.02873591,-0.82224167
'00:16:00.884,0.060547,0.029785,1.004395,0.365854,1.280488,-0.548781,-4.856250,17.493750,19.325001,30.827,0.56833047,-0.00974200,-0.02874681,-0.82224035
'00:16:00.894,0.060059,0.029297,1.003906,0.365854,1.341463,-0.487805,-4.856250,17.493750,19.325001,30.797,0.56833632,-0.00974400,-0.02875000,-0.82223617
'00:16:00.904,0.060059,0.028320,1.004883,0.365854,1.341463,-0.609756,-4.862500,17.550001,19.362501,30.797,0.56833436,-0.00974975,-0.02874811,-0.82223753
'00:16:00.914,0.061035,0.029297,1.003906,0.365854,1.341463,-0.548781,-4.862500,17.550001,19.362501,30.842,0.56833652,-0.00975735,-0.02875585,-0.82223567
'00:16:00.924,0.059570,0.029785,1.003906,0.365854,1.402439,-0.548781,-4.800000,17.593750,19.312500,30.812,0.56834435,-0.00975475,-0.02876359,-0.82223002
'00:16:00.934,0.060547,0.030273,1.005371,0.365854,1.280488,-0.609756,-4.800000,17.593750,19.312500,30.797,0.56834734,-0.00976389,-0.02878321,-0.82222716
'00:16:00.944,0.059082,0.029297,1.004395,0.243902,1.219512,-0.548781,-4.925000,17.706251,19.387501,30.812,0.56834833,-0.00977353,-0.02877882,-0.82222651
'00:16:00.954,0.059570,0.029785,1.002441,0.304878,1.280488,-0.548781,-4.925000,17.706251,19.387501,30.782,0.56834937,-0.00977682,-0.02878120,-0.82222567
'00:16:00.964,0.060059,0.030273,1.003418,0.365854,1.402439,-0.548781,-4.787500,17.543751,19.293751,30.812,0.56835672,-0.00977476,-0.02879313,-0.82222020
'00:16:00.974,0.060059,0.029297,1.004395,0.365854,1.341463,-0.609756,-4.787500,17.543751,19.293751,30.812,0.56835972,-0.00978054,-0.02880199,-0.82221774
'00:16:00.984,0.060059,0.029297,1.003418,0.243902,1.219512,-0.548781,-4.787500,17.481251,19.281250,30.827,0.56836520,-0.00980048,-0.02880685,-0.82221355
'00:16:00.994,0.059570,0.029785,1.002930,0.243902,1.280488,-0.609756,-4.787500,17.481251,19.281250,30.812,0.56836631,-0.00981103,-0.02880969,-0.82221255
'00:16:01.004,0.060059,0.029785,1.003418,0.426829,1.463415,-0.548781,-4.806250,17.500000,19.331251,30.797,0.56837128,-0.00980123,-0.02881702,-0.82220898
'00:16:01.014,0.058105,0.030762,1.002930,0.487805,1.524390,-0.609756,-4.806250,17.500000,19.331251,30.812,0.56837195,-0.00976939,-0.02882380,-0.82220866
'00:16:01.024,0.057617,0.031738,1.005371,0.365854,1.341463,-0.548781,-4.812500,17.493750,19.281250,30.812,0.56837592,-0.00974969,-0.02883295,-0.82220583
'00:16:01.034,0.059570,0.029785,1.003906,0.121951,1.158537,-0.609756,-4.812500,17.493750,19.281250,30.797,0.56837518,-0.00977413,-0.02883066,-0.82220612
'00:16:01.044,0.059570,0.029297,1.003418,0.182927,1.158537,-0.548781,-5.018750,17.893751,19.556250,30.782,0.56837308,-0.00979117,-0.02882325,-0.82220763
'00:16:01.054,0.060059,0.028809,1.003906,0.365854,1.402439,-0.609756,-5.018750,17.893751,19.556250,30.842,0.56836746,-0.00978572,-0.02881597,-0.82221184
'00:16:01.064,0.061523,0.029297,1.003906,0.487805,1.463415,-0.548781,-5.012500,17.837500,19.456251,30.812,0.56836587,-0.00977549,-0.02882216,-0.82221285
'00:16:01.074,0.060547,0.030762,1.003906,0.304878,1.402439,-0.548781,-4.868750,17.575001,19.306250,30.767,0.56836795,-0.00977250,-0.02882776,-0.82221124
'00:16:01.084,0.061035,0.029297,1.002930,0.304878,1.219512,-0.548781,-4.868750,17.575001,19.306250,30.812,0.56836985,-0.00979126,-0.02883635,-0.82220941
'00:16:01.094,0.059570,0.029297,1.004395,0.304878,1.280488,-0.609756,-4.837500,17.556250,19.343750,30.782,0.56836911,-0.00979860,-0.02883747,-0.82220979
'00:16:01.104,0.058594,0.029297,1.004395,0.426829,1.402439,-0.548781,-4.837500,17.556250,19.343750,30.797,0.56837317,-0.00978580,-0.02883744,-0.82220714
'00:16:01.114,0.059570,0.029297,1.004883,0.365854,1.402439,-0.548781,-4.856250,17.581251,19.325001,30.767,0.56837653,-0.00978063,-0.02883582,-0.82220493
'00:16:01.124,0.059082,0.029785,1.003906,0.304878,1.280488,-0.609756,-4.856250,17.581251,19.325001,30.812,0.56837507,-0.00978275,-0.02883721,-0.82220587
'00:16:01.134,0.059082,0.028809,1.004395,0.243902,1.280488,-0.548781,-5.187500,18.112501,19.731251,30.782,0.56836657,-0.00978059,-0.02881542,-0.82221253
'00:16:01.144,0.060059,0.028809,1.003906,0.304878,1.280488,-0.548781,-5.187500,18.112501,19.731251,30.797,0.56835817,-0.00978088,-0.02880225,-0.82221880
'00:16:01.155,0.061035,0.029297,1.003906,0.304878,1.280488,-0.548781,-5.268750,18.143751,19.725000,30.812,0.56834386,-0.00978037,-0.02878940,-0.82222915
'00:16:01.164,0.060547,0.029297,1.002441,0.304878,1.341463,-0.609756,-5.268750,18.143751,19.725000,30.827,0.56832840,-0.00977388,-0.02877530,-0.82224040
'00:16:01.174,0.060059,0.029785,1.003418,0.365854,1.341463,-0.548781,-4.862500,17.550001,19.306250,30.812,0.56833066,-0.00977372,-0.02878190,-0.82223862
'00:16:01.185,0.060547,0.028320,1.003906,0.304878,1.341463,-0.548781,-4.862500,17.550001,19.306250,30.812,0.56833337,-0.00978599,-0.02877700,-0.82223676
'00:16:01.194,0.060059,0.030273,1.004883,0.304878,1.341463,-0.609756,-4.850000,17.506250,19.343750,30.812,0.56833100,-0.00978650,-0.02878080,-0.82223826
'00:16:01.206,0.059082,0.029297,1.003906,0.365854,1.402439,-0.548781,-4.850000,17.506250,19.343750,30.782,0.56833361,-0.00977684,-0.02877667,-0.82223672
'00:16:01.214,0.060059,0.029297,1.003906,0.365854,1.402439,-0.609756,-4.831250,17.531250,19.325001,30.812,0.56833342,-0.00977587,-0.02877873,-0.82223679
'00:16:01.224,0.059082,0.029297,1.004395,0.304878,1.341463,-0.548781,-4.831250,17.531250,19.325001,30.812,0.56833738,-0.00977672,-0.02877592,-0.82223414
'00:16:01.234,0.058105,0.029785,1.003418,0.365854,1.341463,-0.548781,-4.931250,17.718750,19.450001,30.782,0.56833833,-0.00976430,-0.02877339,-0.82223372
'00:16:01.244,0.059570,0.030273,1.002930,0.304878,1.341463,-0.548781,-4.931250,17.718750,19.450001,30.767,0.56833910,-0.00976136,-0.02877510,-0.82223317
'00:16:01.254,0.059082,0.029297,1.003906,0.365854,1.280488,-0.609756,-4.931250,17.718750,19.462500,30.842,0.56833557,-0.00976061,-0.02877646,-0.82223557
'00:16:01.264,0.059570,0.029297,1.004883,0.304878,1.280488,-0.548781,-4.931250,17.718750,19.462500,30.827,0.56833636,-0.00976552,-0.02877488,-0.82223502
'00:16:01.274,0.059570,0.028809,1.004395,0.304878,1.280488,-0.548781,-4.950000,17.737501,19.425001,30.812,0.56833655,-0.00977139,-0.02876989,-0.82223499
'00:16:01.284,0.060547,0.029297,1.004883,0.243902,1.280488,-0.609756,-4.950000,17.737501,19.425001,30.812,0.56833219,-0.00978338,-0.02876692,-0.82223796
'00:16:01.294,0.060547,0.029297,1.004395,0.365854,1.341463,-0.609756,-4.806250,17.506250,19.293751,30.797,0.56833307,-0.00979017,-0.02877579,-0.82223696
'00:16:01.304,0.060547,0.029297,1.003418,0.426829,1.463415,-0.548781,-4.806250,17.506250,19.293751,30.812,0.56833865,-0.00978544,-0.02878316,-0.82223291
'00:16:01.314,0.059570,0.028809,1.003418,0.365854,1.402439,-0.548781,-4.831250,17.531250,19.325001,30.812,0.56834285,-0.00978355,-0.02878109,-0.82223010
'00:16:01.324,0.058594,0.029297,1.002441,0.365854,1.341463,-0.609756,-4.818750,17.500000,19.331251,30.812,0.56834256,-0.00977913,-0.02878169,-0.82223033
'00:16:01.334,0.059570,0.030273,1.003418,0.365854,1.280488,-0.548781,-4.818750,17.500000,19.331251,30.782,0.56834625,-0.00978066,-0.02879420,-0.82222732
'00:16:01.344,0.058105,0.029785,1.004883,0.304878,1.341463,-0.548781,-5.043750,17.818750,19.537500,30.812,0.56834144,-0.00976585,-0.02878008,-0.82223132
'00:16:01.354,0.059082,0.029785,1.004883,0.304878,1.341463,-0.548781,-5.043750,17.818750,19.537500,30.812,0.56833667,-0.00975663,-0.02876995,-0.82223508
'00:16:01.364,0.059082,0.029297,1.004395,0.243902,1.280488,-0.548781,-4.912500,17.600000,19.362501,30.782,0.56833633,-0.00976128,-0.02876124,-0.82223557
'00:16:01.374,0.059570,0.029297,1.004395,0.243902,1.219512,-0.609756,-4.912500,17.600000,19.362501,30.827,0.56833145,-0.00977277,-0.02875761,-0.82223893
'00:16:01.385,0.060059,0.028320,1.003906,0.304878,1.280488,-0.548781,-4.850000,17.606251,19.375000,30.842,0.56833618,-0.00978889,-0.02875676,-0.82223550
'00:16:01.394,0.060547,0.029297,1.003418,0.365854,1.402439,-0.548781,-4.850000,17.606251,19.375000,30.827,0.56834012,-0.00979033,-0.02876137,-0.82223259
'00:16:01.404,0.061035,0.029297,1.003418,0.365854,1.402439,-0.548781,-4.806250,17.512501,19.350000,30.782,0.56834538,-0.00979596,-0.02876952,-0.82222860
'00:16:01.414,0.059082,0.028809,1.004883,0.243902,1.219512,-0.548781,-4.806250,17.512501,19.350000,30.812,0.56835024,-0.00981142,-0.02876692,-0.82222516
'00:16:01.424,0.060547,0.029297,1.001465,0.304878,1.341463,-0.609756,-4.818750,17.531250,19.325001,30.797,0.56835053,-0.00982105,-0.02877203,-0.82222466
'00:16:01.434,0.059082,0.029785,1.003906,0.487805,1.524390,-0.548781,-4.818750,17.531250,19.325001,30.797,0.56835575,-0.00979795,-0.02877717,-0.82222115
'00:16:01.444,0.058105,0.030273,1.005371,0.426829,1.402439,-0.609756,-5.181250,18.025000,19.687500,30.797,0.56834177,-0.00976572,-0.02876597,-0.82223159
'00:16:01.454,0.058594,0.029785,1.004883,0.243902,1.280488,-0.548781,-5.181250,18.025000,19.687500,30.797,0.56833190,-0.00975660,-0.02874728,-0.82223917
'00:16:01.465,0.059082,0.029785,1.004883,0.121951,1.158537,-0.548781,-5.181250,18.000000,19.637501,30.782,0.56832025,-0.00976545,-0.02872565,-0.82224787
'00:16:01.474,0.059082,0.028320,1.004395,0.304878,1.280488,-0.548781,-5.181250,18.000000,19.637501,30.767,0.56831146,-0.00976173,-0.02870756,-0.82225463
'00:16:01.484,0.060547,0.029785,1.002930,0.487805,1.463415,-0.609756,-4.818750,17.625000,19.337500,30.857,0.56831461,-0.00975359,-0.02872530,-0.82225192
'00:16:01.494,0.059570,0.029297,1.004395,0.426829,1.463415,-0.548781,-4.818750,17.625000,19.337500,30.842,0.56832222,-0.00974492,-0.02873125,-0.82224656
'00:16:01.504,0.060547,0.029785,1.004883,0.243902,1.219512,-0.548781,-4.768750,17.475000,19.275000,30.812,0.56832909,-0.00976715,-0.02874288,-0.82224114
'00:16:01.514,0.060547,0.029785,1.004883,0.243902,1.219512,-0.548781,-4.768750,17.475000,19.275000,30.812,0.56833588,-0.00978901,-0.02875426,-0.82223579
'00:16:01.524,0.059570,0.029785,1.003906,0.182927,1.158537,-0.548781,-4.825000,17.543751,19.293751,30.797,0.56834004,-0.00981020,-0.02875784,-0.82223254
'00:16:01.534,0.060059,0.029785,1.002930,0.365854,1.402439,-0.609756,-4.825000,17.543751,19.293751,30.812,0.56834051,-0.00980725,-0.02876466,-0.82223201
'00:16:01.544,0.060059,0.028809,1.003418,0.487805,1.463415,-0.609756,-4.937500,17.750000,19.468750,30.782,0.56833782,-0.00979410,-0.02876724,-0.82223393
'00:16:01.554,0.060059,0.028809,1.006836,0.365854,1.402439,-0.548781,-4.937500,17.750000,19.468750,30.842,0.56833930,-0.00979098,-0.02876270,-0.82223311
'00:16:01.564,0.060547,0.029785,0.998047,0.243902,1.158537,-0.548781,-5.062500,17.925001,19.581251,30.827,0.56833498,-0.00980747,-0.02876681,-0.82223576
'00:16:01.574,0.057617,0.029785,1.003906,0.487805,1.402439,-0.548781,-5.062500,17.925001,19.581251,30.797,0.56833157,-0.00977693,-0.02876279,-0.82223862
'00:16:01.584,0.060059,0.029785,1.004395,0.487805,1.524390,-0.548781,-4.912500,17.593750,19.450001,30.812,0.56833139,-0.00975535,-0.02876570,-0.82223889
'00:16:01.594,0.060059,0.030273,1.005371,0.243902,1.280488,-0.548781,-4.818750,17.562500,19.337500,30.782,0.56833655,-0.00976652,-0.02877239,-0.82223496
'00:16:01.604,0.059082,0.029297,1.003418,0.182927,1.158537,-0.548781,-4.818750,17.562500,19.337500,30.812,0.56834153,-0.00978811,-0.02877209,-0.82223127
'00:16:01.614,0.059570,0.029297,1.003906,0.182927,1.280488,-0.548781,-4.787500,17.525000,19.287500,30.782,0.56834825,-0.00980449,-0.02876906,-0.82222654
'00:16:01.624,0.059082,0.028809,1.005371,0.426829,1.463415,-0.548781,-4.787500,17.525000,19.287500,30.812,0.56835573,-0.00979432,-0.02876922,-0.82222148
'00:16:01.634,0.060059,0.029785,1.002441,0.487805,1.402439,-0.548781,-4.843750,17.556250,19.356251,30.812,0.56835936,-0.00978496,-0.02878340,-0.82221859
'00:16:01.644,0.060059,0.030273,1.003906,0.304878,1.402439,-0.548781,-4.843750,17.556250,19.356251,30.812,0.56836272,-0.00978255,-0.02878643,-0.82221619
'00:16:01.654,0.060059,0.030762,1.005371,0.182927,1.219512,-0.548781,-5.300000,18.143751,19.706251,30.827,0.56834724,-0.00977967,-0.02877083,-0.82222747
'00:16:01.666,0.059570,0.029785,1.004395,0.243902,1.280488,-0.609756,-5.300000,18.143751,19.706251,30.812,0.56832401,-0.00976881,-0.02874605,-0.82224452
'00:16:01.674,0.060547,0.028320,1.002930,0.365854,1.341463,-0.548781,-5.068750,17.862501,19.575001,30.827,0.56831988,-0.00976970,-0.02873974,-0.82224759
'00:16:01.684,0.061035,0.028809,1.005371,0.304878,1.341463,-0.609756,-5.068750,17.862501,19.575001,30.767,0.56831023,-0.00977392,-0.02873127,-0.82225450
'00:16:01.694,0.060059,0.029785,1.004395,0.304878,1.341463,-0.548781,-4.806250,17.537500,19.381250,30.797,0.56831588,-0.00978023,-0.02873784,-0.82225030
'00:16:01.707,0.060547,0.029785,1.002441,0.487805,1.463415,-0.609756,-4.806250,17.537500,19.381250,30.812,0.56831803,-0.00976899,-0.02875893,-0.82224820
'00:16:01.714,0.059082,0.029785,1.003906,0.426829,1.463415,-0.609756,-4.850000,17.543751,19.325001,30.812,0.56831732,-0.00975730,-0.02876042,-0.82224878
'00:16:01.724,0.059082,0.029785,1.004883,0.243902,1.280488,-0.487805,-4.850000,17.543751,19.325001,30.812,0.56832447,-0.00976306,-0.02875800,-0.82224386
'00:16:01.734,0.059570,0.029297,1.003906,0.243902,1.158537,-0.548781,-4.887500,17.525000,19.318750,30.782,0.56832397,-0.00977954,-0.02875783,-0.82224401
'00:16:01.745,0.060059,0.029297,1.003418,0.365854,1.280488,-0.548781,-4.887500,17.525000,19.318750,30.812,0.56832381,-0.00978422,-0.02876287,-0.82224389
'00:16:01.754,0.060547,0.029297,1.004883,0.304878,1.341463,-0.609756,-5.237500,18.093750,19.675001,30.842,0.56830943,-0.00977815,-0.02874943,-0.82225437
'00:16:01.764,0.061035,0.028320,1.003418,0.365854,1.341463,-0.609756,-5.237500,18.093750,19.675001,30.782,0.56829376,-0.00977516,-0.02873619,-0.82226570
'00:16:01.774,0.061035,0.029785,1.002930,0.426829,1.463415,-0.548781,-5.075000,17.937500,19.668751,30.797,0.56828970,-0.00976243,-0.02873799,-0.82226859
'00:16:01.785,0.059570,0.029297,1.002441,0.304878,1.341463,-0.548781,-5.075000,17.937500,19.668751,30.812,0.56828497,-0.00975831,-0.02872808,-0.82227226
'00:16:01.794,0.059082,0.029785,1.002930,0.304878,1.280488,-0.609756,-4.793750,17.537500,19.337500,30.782,0.56828707,-0.00976406,-0.02873501,-0.82227050
'00:16:01.804,0.059082,0.030273,1.006836,0.304878,1.341463,-0.548781,-4.793750,17.537500,19.337500,30.827,0.56829382,-0.00976338,-0.02874072,-0.82226564
'00:16:01.814,0.060059,0.026855,1.006836,0.060976,1.097561,-0.609756,-4.768750,17.525000,19.287500,30.797,0.56829769,-0.00981215,-0.02872715,-0.82226286
'00:16:01.825,0.059082,0.031250,1.005859,0.365854,1.341463,-0.609756,-4.812500,17.487501,19.287500,30.812,0.56829749,-0.00980090,-0.02874199,-0.82226262
'00:16:01.834,0.057129,0.030762,1.003418,0.792683,1.829268,-0.609756,-4.812500,17.487501,19.287500,30.812,0.56829888,-0.00973370,-0.02875131,-0.82226212
'00:16:01.844,0.059570,0.029297,1.007812,-0.060976,0.914634,-0.487805,-4.812500,17.487501,19.287500,30.827,0.56830651,-0.00978663,-0.02874504,-0.82225644
'00:16:01.854,0.061035,0.028320,1.001953,0.000000,0.914634,-0.548781,-4.793750,17.556250,19.375000,30.797,0.56831238,-0.00985117,-0.02874853,-0.82225149
'00:16:01.866,0.060547,0.027344,1.000977,0.609756,1.585366,-0.609756,-5.025000,17.850000,19.575001,30.812,0.56830518,-0.00982336,-0.02874335,-0.82225698
'00:16:01.874,0.061035,0.030273,1.003418,0.731707,1.768293,-0.609756,-5.025000,17.850000,19.575001,30.812,0.56830042,-0.00978247,-0.02875359,-0.82226040
'00:16:01.884,0.060059,0.030762,1.005859,0.060976,1.036585,-0.548781,-4.831250,17.606251,19.356251,30.812,0.56830487,-0.00981775,-0.02876209,-0.82225661
'00:16:01.894,0.060059,0.028320,1.003906,-0.182927,0.792683,-0.548781,-4.831250,17.606251,19.356251,30.842,0.56830890,-0.00989203,-0.02875197,-0.82225329
'00:16:01.906,0.061523,0.028809,1.002930,0.304878,1.341463,-0.548781,-4.856250,17.531250,19.281250,30.842,0.56831169,-0.00990787,-0.02875542,-0.82225105
'00:16:01.914,0.060547,0.029297,1.004395,0.853659,1.951220,-0.609756,-4.856250,17.531250,19.281250,30.827,0.56831158,-0.00985531,-0.02876374,-0.82225146
'00:16:01.924,0.057617,0.032227,1.006836,0.487805,1.463415,-0.609756,-4.843750,17.518751,19.343750,30.827,0.56830979,-0.00981603,-0.02877686,-0.82225271
'00:16:01.934,0.059570,0.029297,1.004883,-0.121951,0.914634,-0.487805,-4.843750,17.518751,19.343750,30.812,0.56831543,-0.00986994,-0.02876495,-0.82224858
'00:16:01.946,0.061035,0.027832,1.004883,0.182927,1.158537,-0.548781,-4.793750,17.525000,19.362501,30.797,0.56832246,-0.00991490,-0.02876418,-0.82224321
'00:16:01.954,0.060547,0.028320,1.004883,0.670732,1.646341,-0.609756,-4.793750,17.525000,19.362501,30.812,0.56832482,-0.00989318,-0.02877300,-0.82224153
'00:16:01.964,0.059570,0.030762,1.004395,0.731707,1.707317,-0.609756,-5.162500,17.993750,19.662500,30.827,0.56831227,-0.00982952,-0.02877786,-0.82225080
'00:16:01.974,0.057617,0.031250,1.004883,0.060976,1.036585,-0.548781,-5.162500,17.993750,19.662500,30.842,0.56830191,-0.00983571,-0.02876301,-0.82225840
'00:16:01.984,0.061035,0.029785,1.003906,0.000000,0.975610,-0.548781,-5.050000,17.875000,19.562500,30.797,0.56829673,-0.00987824,-0.02875807,-0.82226165
'00:16:01.994,0.061523,0.028320,1.002441,0.365854,1.402439,-0.609756,-5.050000,17.875000,19.562500,30.827,0.56828879,-0.00987989,-0.02875257,-0.82226731
'00:16:02.004,0.061523,0.028320,1.002441,0.609756,1.585366,-0.609756,-4.781250,17.581251,19.325001,30.827,0.56829402,-0.00986812,-0.02876974,-0.82226323
'00:16:02.014,0.059570,0.029297,1.003418,0.487805,1.524390,-0.548781,-4.781250,17.581251,19.325001,30.752,0.56830324,-0.00985221,-0.02877849,-0.82225675
'00:16:02.026,0.058594,0.030273,1.003906,0.182927,1.219512,-0.609756,-4.793750,17.575001,19.337500,30.812,0.56830632,-0.00986529,-0.02878127,-0.82225437
'00:16:02.034,0.060059,0.030762,1.000977,0.243902,1.280488,-0.548781,-4.793750,17.575001,19.337500,30.842,0.56831184,-0.00987350,-0.02879179,-0.82225008
'00:16:02.044,0.059082,0.025391,1.006348,0.243902,1.158537,-0.487805,-4.825000,17.556250,19.387501,30.812,0.56832113,-0.00990501,-0.02877130,-0.82224400
'00:16:02.054,0.062012,0.030273,0.997559,0.182927,0.975610,-0.487805,-4.825000,17.556250,19.387501,30.812,0.56832864,-0.00995113,-0.02879832,-0.82223731
'00:16:02.066,0.058105,0.036133,0.999512,1.463415,2.378049,-0.548781,-4.906250,17.612501,19.275000,30.782,0.56833187,-0.00974932,-0.02887166,-0.82223492
'00:16:02.074,0.055664,0.031738,1.010742,-0.609756,0.365854,-0.365854,-4.906250,17.612501,19.275000,30.812,0.56834012,-0.00981631,-0.02884988,-0.82222919
'00:16:02.084,0.063477,0.025879,1.001465,-0.426829,0.548781,-0.426829,-4.975000,17.806250,19.537500,30.842,0.56834623,-0.00994331,-0.02882640,-0.82222426
'00:16:02.094,0.062988,0.022461,0.998535,0.853659,1.890244,-0.609756,-4.975000,17.806250,19.537500,30.767,0.56834419,-0.00991962,-0.02880862,-0.82222658
'00:16:02.107,0.061523,0.030762,0.999512,1.463415,2.317073,-0.670732,-4.850000,17.637501,19.393751,30.782,0.56834263,-0.00976394,-0.02887593,-0.82222716
'00:16:02.114,0.054688,0.040039,1.011230,-0.243902,0.670732,-0.487805,-4.793750,17.531250,19.312500,30.767,0.56834719,-0.00977119,-0.02889929,-0.82222310
'00:16:02.124,0.060547,0.028320,1.004883,-0.365854,0.731707,-0.487805,-4.793750,17.531250,19.312500,30.812,0.56835599,-0.00986307,-0.02887943,-0.82221662
'00:16:02.134,0.062012,0.024902,1.002930,0.487805,1.524390,-0.609756,-4.825000,17.481251,19.312500,30.827,0.56835586,-0.00987338,-0.02886513,-0.82221708
'00:16:02.146,0.058594,0.026855,1.002930,1.097561,2.134146,-0.609756,-4.825000,17.481251,19.312500,30.797,0.56835787,-0.00976511,-0.02886178,-0.82221710
'00:16:02.154,0.054688,0.035156,1.006348,0.365854,1.280488,-0.548781,-5.056250,17.918751,19.600000,30.812,0.56835400,-0.00972315,-0.02886960,-0.82222001
'00:16:02.164,0.060547,0.032715,1.002930,-0.060976,0.975610,-0.548781,-5.056250,17.918751,19.600000,30.827,0.56834846,-0.00975661,-0.02887389,-0.82222329
'00:16:02.176,0.061035,0.029297,1.004883,0.304878,1.402439,-0.548781,-5.175000,17.968750,19.631250,30.797,0.56833607,-0.00974887,-0.02885431,-0.82223263
'00:16:02.187,0.060059,0.028320,1.002441,0.487805,1.524390,-0.548781,-5.175000,17.968750,19.631250,30.782,0.56832553,-0.00972127,-0.02883560,-0.82224090
'00:16:02.194,0.059570,0.028809,1.002930,0.487805,1.463415,-0.548781,-4.837500,17.581251,19.375000,30.782,0.56832908,-0.00971370,-0.02883821,-0.82223845
'00:16:02.204,0.059570,0.030762,1.002930,0.365854,1.341463,-0.609756,-4.837500,17.581251,19.375000,30.782,0.56832895,-0.00970992,-0.02885033,-0.82223816
'00:16:02.214,0.060059,0.031250,1.005859,0.304878,1.341463,-0.548781,-4.850000,17.543751,19.375000,30.797,0.56833126,-0.00970823,-0.02885942,-0.82223626
'00:16:02.226,0.060547,0.029297,1.005371,0.182927,1.158537,-0.548781,-4.850000,17.543751,19.375000,30.752,0.56833381,-0.00974176,-0.02885976,-0.82223409
'00:16:02.234,0.059082,0.028809,1.002930,0.243902,1.219512,-0.548781,-4.837500,17.593750,19.343750,30.782,0.56833748,-0.00975436,-0.02885686,-0.82223150
'00:16:02.244,0.059570,0.029297,1.001465,0.609756,1.646341,-0.609756,-4.837500,17.593750,19.343750,30.812,0.56833891,-0.00972212,-0.02886360,-0.82223066
'00:16:02.254,0.059082,0.030762,1.003906,0.548781,1.585366,-0.548781,-4.825000,17.550001,19.337500,30.767,0.56834414,-0.00968907,-0.02887427,-0.82222706
'00:16:02.266,0.059082,0.030762,1.003906,0.548781,1.585366,-0.548781,-4.825000,17.550001,19.337500,30.767,0.56835044,-0.00964998,-0.02888691,-0.82222272
'00:16:02.274,0.060059,0.029785,1.004395,-0.121951,0.914634,-0.487805,-5.231250,18.031250,19.662500,30.782,0.56834258,-0.00968366,-0.02886586,-0.82222850
'00:16:02.284,0.061035,0.027832,1.003418,0.121951,1.097561,-0.548781,-5.231250,18.031250,19.662500,30.797,0.56832943,-0.00971282,-0.02884166,-0.82223809
'00:16:02.294,0.060547,0.028320,1.003418,0.548781,1.524390,-0.548781,-4.975000,17.693750,19.525000,30.827,0.56832735,-0.00969548,-0.02883923,-0.82223982
'00:16:02.306,0.060059,0.030762,1.003906,0.792683,1.768293,-0.609756,-4.975000,17.693750,19.525000,30.797,0.56832006,-0.00962458,-0.02885693,-0.82224507
'00:16:02.314,0.058105,0.031738,1.004883,0.060976,1.097561,-0.548781,-4.825000,17.543751,19.325001,30.782,0.56832293,-0.00963902,-0.02885810,-0.82224288
'00:16:02.324,0.060059,0.030273,1.003418,0.000000,0.914634,-0.548781,-4.825000,17.543751,19.325001,30.812,0.56832618,-0.00968986,-0.02886402,-0.82223982
'00:16:02.334,0.060059,0.028320,1.001953,0.426829,1.402439,-0.548781,-4.812500,17.543751,19.387501,30.827,0.56833192,-0.00969279,-0.02886649,-0.82223574
'00:16:02.344,0.058105,0.029297,1.002441,0.731707,1.707317,-0.609756,-4.812500,17.543751,19.387501,30.782,0.56833415,-0.00964371,-0.02887347,-0.82223452
'00:16:02.354,0.058594,0.030762,1.005371,0.304878,1.280488,-0.609756,-4.831250,17.506250,19.250000,30.812,0.56833310,-0.00964142,-0.02887799,-0.82223512
'00:16:02.364,0.059082,0.029297,1.003418,0.000000,0.975610,-0.548781,-5.156250,17.975000,19.581251,30.812,0.56832329,-0.00967320,-0.02885601,-0.82224230
'00:16:02.374,0.059082,0.029297,1.001953,0.426829,1.402439,-0.548781,-5.156250,17.975000,19.581251,30.827,0.56831492,-0.00965315,-0.02884437,-0.82224873
'00:16:02.384,0.057617,0.029785,1.004395,0.609756,1.646341,-0.609756,-4.875000,17.600000,19.337500,30.812,0.56831419,-0.00960699,-0.02884291,-0.82224982
'00:16:02.394,0.055176,0.028320,1.005371,0.182927,1.158537,-0.548781,-4.875000,17.600000,19.337500,30.812,0.56831673,-0.00960979,-0.02881696,-0.82224895
'00:16:02.404,0.058105,0.027344,1.004395,0.121951,1.097561,-0.548781,-4.918750,17.662500,19.468750,30.812,0.56831711,-0.00963881,-0.02879407,-0.82224914
'00:16:02.414,0.059570,0.028320,1.000977,0.426829,1.280488,-0.548781,-4.918750,17.662500,19.468750,30.812,0.56831793,-0.00964420,-0.02879680,-0.82224842
'00:16:02.424,0.059082,0.036133,0.993652,0.975610,1.890244,-0.609756,-4.818750,17.568750,19.387501,30.812,0.56831962,-0.00955078,-0.02886002,-0.82224612
'00:16:02.435,0.058594,0.036621,1.007812,-0.304878,0.792683,-0.487805,-4.818750,17.568750,19.387501,30.827,0.56832701,-0.00959811,-0.02888160,-0.82223971
'00:16:02.444,0.062500,0.021973,1.011719,-0.243902,0.853659,-0.487805,-4.825000,17.525000,19.318750,30.812,0.56833467,-0.00969839,-0.02883667,-0.82223482
'00:16:02.454,0.066406,0.020996,1.003418,0.182927,1.097561,-0.548781,-4.825000,17.525000,19.318750,30.827,0.56833959,-0.00979641,-0.02881845,-0.82223089
'00:16:02.464,0.062500,0.025879,0.995117,1.463415,2.317073,-0.670732,-4.981250,17.750000,19.468750,30.782,0.56833291,-0.00969759,-0.02884069,-0.82223590
'00:16:02.474,0.050293,0.043457,1.012695,0.121951,1.097561,-0.548781,-4.981250,17.750000,19.468750,30.812,0.56832757,-0.00961540,-0.02887134,-0.82223948
'00:16:02.484,0.062988,0.030762,1.002441,0.000000,1.036585,-0.548781,-5.181250,18.075001,19.668751,30.752,0.56831793,-0.00965900,-0.02886994,-0.82224568
'00:16:02.494,0.060059,0.027344,1.001953,1.097561,2.195122,-0.670732,-5.181250,18.075001,19.668751,30.812,0.56830410,-0.00956166,-0.02886028,-0.82225672
'00:16:02.504,0.056152,0.027344,1.000488,-0.243902,0.609756,-0.426829,-4.837500,17.581251,19.343750,30.812,0.56831600,-0.00963823,-0.02883310,-0.82224855
'00:16:02.515,0.059082,0.028320,0.998047,0.853659,1.768293,-0.609756,-4.837500,17.581251,19.343750,30.782,0.56831838,-0.00958380,-0.02884679,-0.82224706
'00:16:02.524,0.055176,0.030762,1.012695,-0.365854,0.548781,-0.426829,-4.850000,17.581251,19.375000,30.767,0.56832738,-0.00964201,-0.02882620,-0.82224089
'00:16:02.535,0.060547,0.025879,1.002441,0.914634,1.829268,-0.609756,-4.850000,17.581251,19.375000,30.812,0.56832938,-0.00959698,-0.02882942,-0.82223992
'00:16:02.544,0.058594,0.028809,1.013184,-0.121951,0.731707,-0.487805,-4.800000,17.543751,19.293751,30.827,0.56833793,-0.00965809,-0.02882133,-0.82223357
'00:16:02.554,0.058105,0.027344,1.005371,0.853659,1.768293,-0.670732,-4.800000,17.543751,19.293751,30.797,0.56833789,-0.00960662,-0.02882388,-0.82223412
'00:16:02.564,0.065918,0.028320,0.999512,0.487805,1.341463,-0.609756,-4.837500,17.525000,19.306250,30.827,0.56833721,-0.00964250,-0.02885580,-0.82223305
'00:16:02.574,0.061035,0.032227,1.002441,0.060976,0.914634,-0.487805,-4.837500,17.525000,19.306250,30.812,0.56834313,-0.00968721,-0.02887981,-0.82222758
'00:16:02.584,0.062012,0.031250,1.005859,0.609756,1.646341,-0.670732,-5.175000,17.981251,19.631250,30.797,0.56832494,-0.00964665,-0.02888769,-0.82224036
'00:16:02.594,0.063477,0.028809,0.997070,0.304878,1.219512,-0.548781,-5.175000,17.981251,19.631250,30.797,0.56831468,-0.00967186,-0.02889034,-0.82224706
'00:16:02.604,0.057129,0.034180,1.000488,0.304878,1.219512,-0.609756,-4.806250,17.618750,19.356251,30.797,0.56831669,-0.00965616,-0.02891777,-0.82224489
'00:16:02.614,0.057129,0.029785,1.001953,0.304878,1.402439,-0.548781,-4.806250,17.618750,19.356251,30.797,0.56832448,-0.00964482,-0.02891005,-0.82223991
'00:16:02.624,0.057129,0.028320,1.004395,0.060976,1.036585,-0.548781,-4.768750,17.450001,19.306250,30.797,0.56833031,-0.00967707,-0.02889271,-0.82223612
'00:16:02.634,0.059570,0.026367,1.008789,0.182927,1.097561,-0.548781,-4.831250,17.531250,19.325001,30.827,0.56833416,-0.00971596,-0.02887517,-0.82223361
'00:16:02.644,0.058594,0.028320,1.005371,-0.121951,0.792683,-0.548781,-4.831250,17.531250,19.325001,30.827,0.56833654,-0.00977896,-0.02885966,-0.82223176
'00:16:02.654,0.060059,0.030762,1.001465,0.182927,1.158537,-0.548781,-4.856250,17.531250,19.375000,30.842,0.56833746,-0.00979763,-0.02886699,-0.82223064
'00:16:02.664,0.062500,0.030273,1.000977,0.792683,1.829268,-0.670732,-4.856250,17.531250,19.375000,30.797,0.56833180,-0.00975292,-0.02889157,-0.82223422
'00:16:02.674,0.061523,0.031250,1.005859,0.731707,1.768293,-0.609756,-5.062500,17.950001,19.637501,30.812,0.56832500,-0.00970022,-0.02890769,-0.82223899
'00:16:02.684,0.061035,0.028809,1.006348,-0.060976,0.792683,-0.548781,-5.062500,17.950001,19.637501,30.812,0.56832004,-0.00976431,-0.02889954,-0.82224194
'00:16:02.694,0.062012,0.025391,1.002441,0.182927,1.036585,-0.548781,-5.056250,17.881250,19.568750,30.812,0.56831555,-0.00981641,-0.02888207,-0.82224504
'00:16:02.704,0.062500,0.025879,1.001465,1.280488,2.195122,-0.609756,-5.056250,17.881250,19.568750,30.812,0.56831037,-0.00973119,-0.02889108,-0.82224931
'00:16:02.714,0.051758,0.036621,1.010742,-0.243902,0.548781,-0.487805,-4.843750,17.537500,19.425001,30.797,0.56831372,-0.00974509,-0.02889598,-0.82224666
'00:16:02.724,0.059570,0.029785,1.002930,1.219512,2.195122,-0.670732,-4.843750,17.537500,19.425001,30.782,0.56831050,-0.00964014,-0.02891889,-0.82224932
'00:16:02.734,0.062988,0.027832,0.996582,-0.121951,0.670732,-0.365854,-4.831250,17.525000,19.350000,30.812,0.56832541,-0.00974162,-0.02892624,-0.82223756
'00:16:02.744,0.051270,0.037598,1.005859,0.182927,1.219512,-0.548781,-4.831250,17.525000,19.350000,30.812,0.56832695,-0.00968052,-0.02893438,-0.82223693
'00:16:02.754,0.062988,0.027344,0.998047,0.670732,1.768293,-0.609756,-4.825000,17.518751,19.387501,30.797,0.56832791,-0.00966481,-0.02894088,-0.82223622
'00:16:02.764,0.063965,0.025879,1.003906,-0.182927,0.792683,-0.487805,-4.825000,17.518751,19.387501,30.812,0.56833475,-0.00977152,-0.02892747,-0.82223071
'00:16:02.774,0.058105,0.030273,1.009277,0.548781,1.524390,-0.670732,-5.181250,18.043751,19.662500,30.842,0.56831721,-0.00972400,-0.02891577,-0.82224381
'00:16:02.784,0.064453,0.023926,1.003906,0.426829,1.402439,-0.487805,-5.181250,18.043751,19.662500,30.812,0.56831363,-0.00975164,-0.02889265,-0.82224677
'00:16:02.796,0.059082,0.030762,1.008789,0.121951,0.914634,-0.487805,-5.006250,17.768751,19.556250,30.812,0.56831289,-0.00978482,-0.02889459,-0.82224681
'00:16:02.804,0.056152,0.032715,1.008301,0.548781,1.524390,-0.609756,-5.006250,17.768751,19.556250,30.797,0.56830659,-0.00973550,-0.02889614,-0.82225170
'00:16:02.814,0.061035,0.029297,1.001953,0.426829,1.463415,-0.609756,-4.837500,17.575001,19.412500,30.827,0.56830668,-0.00973371,-0.02890318,-0.82225141
'00:16:02.824,0.057617,0.031738,1.000977,0.121951,1.097561,-0.426829,-4.837500,17.575001,19.412500,30.797,0.56831829,-0.00974525,-0.02890727,-0.82224310
'00:16:02.834,0.055664,0.031250,1.001953,0.365854,1.463415,-0.548781,-4.793750,17.512501,19.331251,30.827,0.56832432,-0.00971033,-0.02890203,-0.82223953
'00:16:02.844,0.062988,0.026367,1.002930,0.426829,1.402439,-0.548781,-4.793750,17.512501,19.331251,30.797,0.56833104,-0.00973702,-0.02890455,-0.82223448
'00:16:02.854,0.060059,0.027832,1.004395,0.243902,1.097561,-0.548781,-4.793750,17.493750,19.375000,30.797,0.56833597,-0.00977192,-0.02890478,-0.82223065
'00:16:02.864,0.058594,0.030762,1.004883,0.426829,1.341463,-0.548781,-4.793750,17.493750,19.375000,30.797,0.56834104,-0.00975987,-0.02891677,-0.82222687
'00:16:02.874,0.061523,0.029297,1.007812,0.426829,1.463415,-0.548781,-4.818750,17.462500,19.318750,30.812,0.56834436,-0.00975845,-0.02892177,-0.82222442
'00:16:02.884,0.061523,0.031738,1.005371,0.243902,1.219512,-0.487805,-4.818750,17.462500,19.318750,30.827,0.56835072,-0.00977469,-0.02894038,-0.82221917
'00:16:02.894,0.060547,0.030762,1.000000,0.365854,1.341463,-0.548781,-5.006250,17.825001,19.500000,30.812,0.56834821,-0.00976945,-0.02894803,-0.82222070
'00:16:02.904,0.061523,0.029297,1.000977,0.426829,1.402439,-0.609756,-4.968750,17.693750,19.406250,30.782,0.56834166,-0.00976774,-0.02895204,-0.82222510
'00:16:02.914,0.059570,0.029297,1.003418,0.304878,1.341463,-0.548781,-4.968750,17.693750,19.406250,30.812,0.56833932,-0.00976543,-0.02894182,-0.82222711
'00:16:02.924,0.060059,0.028320,1.004395,0.243902,1.219512,-0.609756,-4.881250,17.550001,19.381250,30.797,0.56833517,-0.00978431,-0.02893272,-0.82223008
'00:16:02.934,0.060547,0.028320,1.005371,0.304878,1.219512,-0.609756,-4.881250,17.550001,19.381250,30.812,0.56833106,-0.00980239,-0.02892962,-0.82223281
'00:16:02.944,0.057129,0.029297,1.009277,0.365854,1.341463,-0.609756,-4.818750,17.581251,19.293751,30.782,0.56833270,-0.00978899,-0.02892156,-0.82223212
'00:16:02.954,0.058105,0.029297,1.006348,0.426829,1.402439,-0.548781,-4.818750,17.581251,19.293751,30.782,0.56833889,-0.00977455,-0.02891984,-0.82222807
'00:16:02.964,0.057617,0.029785,1.004883,0.304878,1.341463,-0.487805,-4.868750,17.637501,19.393751,30.797,0.56834654,-0.00976455,-0.02891105,-0.82222321
'00:16:02.974,0.058594,0.030273,1.002930,0.365854,1.402439,-0.548781,-4.868750,17.637501,19.393751,30.782,0.56834988,-0.00975105,-0.02891109,-0.82222106
'00:16:02.984,0.061035,0.031250,1.001465,0.243902,1.280488,-0.609756,-5.256250,18.162500,19.762501,30.797,0.56833301,-0.00974789,-0.02890633,-0.82223293
'00:16:02.995,0.060059,0.030273,1.001953,0.182927,1.219512,-0.548781,-5.256250,18.162500,19.762501,30.812,0.56831934,-0.00975102,-0.02888958,-0.82224293
'00:16:03.004,0.060059,0.030273,1.001953,0.182927,1.219512,-0.548781,-5.037500,17.850000,19.487501,30.812,0.56831568,-0.00976037,-0.02888457,-0.82224553
'00:16:03.014,0.060059,0.031250,1.003418,0.060976,1.158537,-0.548781,-5.037500,17.850000,19.487501,30.797,0.56831116,-0.00977699,-0.02887821,-0.82224868
'00:16:03.024,0.059082,0.029297,1.002930,-0.304878,0.670732,-0.426829,-4.843750,17.531250,19.343750,30.842,0.56832058,-0.00985590,-0.02886281,-0.82224176
'00:16:03.034,0.066406,0.024902,0.999023,0.609756,1.585366,-0.548781,-4.843750,17.531250,19.343750,30.782,0.56832476,-0.00988059,-0.02887271,-0.82223823
'00:16:03.044,0.057129,0.031250,1.014648,1.341463,2.500000,-0.731707,-4.850000,17.581251,19.325001,30.797,0.56831871,-0.00972393,-0.02888451,-0.82224387
'00:16:03.054,0.064453,0.023926,1.001953,-0.487805,0.304878,-0.426829,-4.850000,17.581251,19.325001,30.782,0.56832881,-0.00988962,-0.02886561,-0.82223557
'00:16:03.064,0.062500,0.027344,0.996582,1.036585,2.073171,-0.609756,-4.800000,17.525000,19.306250,30.842,0.56833283,-0.00982985,-0.02888499,-0.82223283
'00:16:03.074,0.047363,0.041992,1.010254,0.000000,1.097561,-0.609756,-4.800000,17.525000,19.306250,30.812,0.56833091,-0.00974680,-0.02889707,-0.82223472
'00:16:03.084,0.060547,0.028809,0.997070,0.243902,1.341463,-0.609756,-5.081250,17.868750,19.525000,30.812,0.56832039,-0.00975245,-0.02888244,-0.82224244
'00:16:03.094,0.052246,0.035645,1.007812,0.548781,1.646341,-0.609756,-5.081250,17.868750,19.525000,30.827,0.56830975,-0.00964711,-0.02887699,-0.82225123
'00:16:03.104,0.061035,0.028320,1.004883,-0.487805,0.487805,-0.426829,-5.081250,17.887501,19.562500,30.812,0.56831029,-0.00975541,-0.02884907,-0.82225056
'00:16:03.115,0.063477,0.023926,1.003906,0.182927,1.219512,-0.487805,-5.081250,17.887501,19.562500,30.827,0.56830945,-0.00981150,-0.02881555,-0.82225165
'00:16:03.124,0.064941,0.022949,1.006836,1.402439,2.439024,-0.609756,-4.843750,17.462500,19.381250,30.842,0.56831086,-0.00974117,-0.02881905,-0.82225139
'00:16:03.134,0.055664,0.031738,1.013672,-0.304878,0.548781,-0.487805,-4.843750,17.462500,19.381250,30.782,0.56831366,-0.00979764,-0.02880535,-0.82224926
'00:16:03.144,0.061523,0.029785,1.000977,1.280488,2.378049,-0.670732,-4.812500,17.518751,19.343750,30.827,0.56831299,-0.00968858,-0.02883549,-0.82224996
'00:16:03.155,0.062988,0.029785,0.994629,-0.243902,0.548781,-0.426829,-4.825000,17.506250,19.293751,30.812,0.56832397,-0.00980757,-0.02885531,-0.82224026
'00:16:03.164,0.050293,0.039551,1.004395,0.487805,1.585366,-0.609756,-4.825000,17.506250,19.293751,30.797,0.56832231,-0.00970278,-0.02887423,-0.82224199
'00:16:03.174,0.062500,0.027832,0.996094,0.121951,1.219512,-0.548781,-5.075000,17.937500,19.625000,30.812,0.56831765,-0.00974028,-0.02886154,-0.82224521
'00:16:03.184,0.056152,0.032227,1.010742,0.365854,1.463415,-0.609756,-5.075000,17.937500,19.625000,30.797,0.56830878,-0.00969295,-0.02884904,-0.82225234
'00:16:03.194,0.065430,0.022461,1.003418,0.426829,1.463415,-0.548781,-5.187500,18.006250,19.618750,30.812,0.56830033,-0.00972636,-0.02881872,-0.82225885
'00:16:03.204,0.060059,0.031250,1.013672,-0.060976,0.914634,-0.487805,-5.187500,18.006250,19.618750,30.797,0.56829293,-0.00975913,-0.02880502,-0.82226406
'00:16:03.214,0.062012,0.029297,1.006836,0.731707,1.768293,-0.670732,-4.875000,17.568750,19.400000,30.752,0.56828715,-0.00972189,-0.02881910,-0.82226800
'00:16:03.224,0.062012,0.028320,1.001465,0.000000,0.975610,-0.548781,-4.875000,17.568750,19.400000,30.767,0.56828772,-0.00978361,-0.02881639,-0.82226697
'00:16:03.235,0.058105,0.030762,0.998535,0.548781,1.585366,-0.609756,-4.843750,17.537500,19.350000,30.827,0.56828698,-0.00974013,-0.02882534,-0.82226768
'00:16:03.244,0.057129,0.030762,1.000977,0.121951,1.158537,-0.548781,-4.843750,17.537500,19.350000,30.782,0.56828912,-0.00974648,-0.02881975,-0.82226632
'00:16:03.254,0.057617,0.029297,1.002930,0.121951,1.097561,-0.548781,-4.812500,17.556250,19.343750,30.797,0.56829431,-0.00976810,-0.02881235,-0.82226274
'00:16:03.264,0.057617,0.029785,1.003906,0.182927,1.219512,-0.548781,-4.812500,17.556250,19.343750,30.812,0.56829972,-0.00977550,-0.02880574,-0.82225914
'00:16:03.274,0.060059,0.027832,1.004395,0.609756,1.646341,-0.609756,-4.837500,17.543751,19.325001,30.812,0.56830053,-0.00975021,-0.02880469,-0.82225892
'00:16:03.284,0.055664,0.032715,1.010254,0.365854,1.402439,-0.548781,-4.837500,17.543751,19.325001,30.827,0.56830411,-0.00971034,-0.02880659,-0.82225685
'00:16:03.294,0.061523,0.027344,1.002930,0.121951,1.158537,-0.548781,-5.168750,18.006250,19.706251,30.797,0.56829471,-0.00974295,-0.02878351,-0.82226377
'00:16:03.304,0.062988,0.028809,1.001953,0.670732,1.707317,-0.609756,-5.168750,18.006250,19.706251,30.797,0.56828246,-0.00971096,-0.02878697,-0.82227250
'00:16:03.315,0.060059,0.032227,1.001953,0.182927,1.097561,-0.548781,-5.106250,17.843750,19.643751,30.827,0.56827169,-0.00972059,-0.02879522,-0.82227953
'00:16:03.324,0.060547,0.031250,1.000488,0.304878,1.280488,-0.609756,-5.106250,17.843750,19.643751,30.752,0.56825961,-0.00971705,-0.02879893,-0.82228779
'00:16:03.334,0.059570,0.030762,1.004395,0.182927,1.219512,-0.548781,-4.818750,17.581251,19.387501,30.797,0.56826495,-0.00973233,-0.02880566,-0.82228369
'00:16:03.344,0.061035,0.027832,1.004883,0.000000,0.975610,-0.487805,-4.818750,17.581251,19.387501,30.812,0.56827438,-0.00979355,-0.02880000,-0.82227664
'00:16:03.355,0.060547,0.025879,1.004883,0.670732,1.707317,-0.548781,-4.812500,17.456251,19.268751,30.842,0.56828068,-0.00976902,-0.02879009,-0.82227293
'00:16:03.364,0.051758,0.033691,1.010742,0.670732,1.829268,-0.609756,-4.812500,17.456251,19.268751,30.812,0.56828102,-0.00966849,-0.02878388,-0.82227410
'00:16:03.374,0.060547,0.025391,1.000488,0.121951,1.158537,-0.609756,-4.825000,17.537500,19.337500,30.812,0.56828160,-0.00971793,-0.02876295,-0.82227385
'00:16:03.386,0.053223,0.034668,1.008789,0.670732,1.646341,-0.670732,-5.137500,18.000000,19.687500,30.797,0.56826283,-0.00959471,-0.02876526,-0.82228818
'00:16:03.394,0.061523,0.028320,1.000000,0.182927,1.158537,-0.548781,-5.137500,18.000000,19.687500,30.812,0.56825710,-0.00961877,-0.02875806,-0.82229212
'00:16:03.404,0.054688,0.035156,1.003418,0.426829,1.463415,-0.609756,-5.137500,18.000000,19.687500,30.797,0.56824525,-0.00955003,-0.02876225,-0.82230096
'00:16:03.414,0.063965,0.029297,1.000488,0.243902,1.280488,-0.487805,-5.156250,18.000000,19.668751,30.797,0.56824154,-0.00957732,-0.02876478,-0.82230312
'00:16:03.424,0.063477,0.028809,1.005371,0.365854,1.463415,-0.548781,-4.768750,17.475000,19.318750,30.782,0.56824951,-0.00959875,-0.02877852,-0.82229688
'00:16:03.435,0.067383,0.024902,1.004883,0.304878,1.280488,-0.548781,-4.768750,17.475000,19.318750,30.812,0.56825825,-0.00967978,-0.02879078,-0.82228946
'00:16:03.444,0.062500,0.029297,1.005859,0.365854,1.402439,-0.609756,-4.862500,17.512501,19.350000,30.827,0.56825586,-0.00968997,-0.02879835,-0.82229072
'00:16:03.454,0.062012,0.027832,1.003418,0.365854,1.280488,-0.609756,-4.862500,17.512501,19.350000,30.797,0.56825318,-0.00971349,-0.02880350,-0.82229212
'00:16:03.464,0.057129,0.031738,1.004883,0.304878,1.280488,-0.548781,-4.775000,17.556250,19.356251,30.812,0.56826129,-0.00970310,-0.02881475,-0.82228624
'00:16:03.475,0.056641,0.029785,1.001465,0.426829,1.402439,-0.609756,-4.775000,17.556250,19.356251,30.842,0.56826627,-0.00968164,-0.02881706,-0.82228297
'00:16:03.484,0.054199,0.031250,1.001953,0.243902,1.219512,-0.548781,-4.987500,17.787500,19.500000,30.767,0.56826466,-0.00965880,-0.02880402,-0.82228481
'00:16:03.494,0.054688,0.031250,1.003906,0.426829,1.402439,-0.548781,-4.987500,17.787500,19.500000,30.797,0.56826356,-0.00961398,-0.02879497,-0.82228641
'00:16:03.504,0.057617,0.030762,1.003418,0.121951,1.219512,-0.548781,-5.012500,17.806250,19.537500,30.797,0.56826046,-0.00961516,-0.02878053,-0.82228905
'00:16:03.514,0.059082,0.030762,1.005371,0.182927,1.280488,-0.548781,-5.012500,17.806250,19.537500,30.797,0.56825758,-0.00961662,-0.02877251,-0.82229130
'00:16:03.524,0.063477,0.028320,1.006348,-0.121951,0.853659,-0.487805,-4.918750,17.687500,19.487501,30.797,0.56826191,-0.00970104,-0.02877100,-0.82228737
'00:16:03.534,0.065918,0.025391,1.004395,0.304878,1.463415,-0.548781,-4.918750,17.687500,19.487501,30.782,0.56826406,-0.00974412,-0.02876344,-0.82228564
'00:16:03.544,0.062988,0.028320,1.005371,0.609756,1.585366,-0.609756,-4.825000,17.500000,19.306250,30.827,0.56826465,-0.00973791,-0.02877987,-0.82228473
'00:16:03.555,0.063477,0.028809,1.001953,0.304878,1.280488,-0.609756,-4.825000,17.500000,19.306250,30.812,0.56826399,-0.00977351,-0.02879684,-0.82228417
'00:16:03.564,0.061523,0.031738,1.000000,0.609756,1.585366,-0.609756,-4.843750,17.587500,19.393751,30.797,0.56826415,-0.00974950,-0.02882580,-0.82228333
'00:16:03.574,0.056152,0.034668,1.005371,0.182927,1.219512,-0.548781,-4.843750,17.587500,19.393751,30.797,0.56826702,-0.00972815,-0.02883874,-0.82228115
'00:16:03.584,0.057129,0.029785,1.001953,0.365854,1.341463,-0.548781,-4.812500,17.575001,19.350000,30.782,0.56827343,-0.00971634,-0.02883823,-0.82227688
'00:16:03.594,0.055176,0.031738,1.008301,0.426829,1.524390,-0.609756,-4.812500,17.575001,19.350000,30.827,0.56827568,-0.00966854,-0.02883412,-0.82227603
'00:16:03.604,0.060059,0.027344,1.004395,0.365854,1.402439,-0.548781,-4.931250,17.687500,19.456251,30.827,0.56827675,-0.00967309,-0.02882063,-0.82227571
'00:16:03.614,0.056152,0.030762,1.007324,0.304878,1.219512,-0.487805,-4.931250,17.687500,19.456251,30.827,0.56828112,-0.00965843,-0.02881504,-0.82227305
'00:16:03.624,0.059570,0.027832,1.002441,0.487805,1.463415,-0.548781,-5.106250,17.918751,19.618750,30.782,0.56827533,-0.00964176,-0.02880129,-0.82227773
'00:16:03.635,0.059570,0.030762,1.003906,0.243902,1.097561,-0.548781,-4.837500,17.512501,19.362501,30.782,0.56827788,-0.00966378,-0.02881702,-0.82227516
'00:16:03.644,0.060059,0.028809,1.001953,0.182927,1.158537,-0.548781,-4.837500,17.512501,19.362501,30.812,0.56828033,-0.00968999,-0.02881539,-0.82227322
'00:16:03.654,0.061035,0.028809,1.002930,0.304878,1.280488,-0.487805,-4.837500,17.512501,19.362501,30.812,0.56828775,-0.00970926,-0.02881958,-0.82226772
'00:16:03.664,0.061523,0.028809,1.003906,0.731707,1.768293,-0.548781,-4.825000,17.475000,19.287500,30.797,0.56829259,-0.00967443,-0.02883187,-0.82226435
'00:16:03.674,0.059082,0.030273,1.008789,-0.060976,0.914634,-0.548781,-4.831250,17.512501,19.306250,30.857,0.56829486,-0.00972051,-0.02882680,-0.82226242
'00:16:03.684,0.062500,0.028809,1.003418,0.243902,1.097561,-0.548781,-4.831250,17.512501,19.306250,30.842,0.56829788,-0.00976335,-0.02884150,-0.82225930
'00:16:03.694,0.061035,0.028809,1.003418,0.731707,1.768293,-0.609756,-5.231250,18.143751,19.650000,30.827,0.56828506,-0.00971083,-0.02883634,-0.82226897
'00:16:03.704,0.056152,0.032715,1.005371,0.182927,1.219512,-0.548781,-5.231250,18.143751,19.650000,30.812,0.56827420,-0.00968437,-0.02882149,-0.82227731
'00:16:03.716,0.061035,0.029297,1.000488,0.243902,1.280488,-0.548781,-5.337500,18.193750,19.812500,30.827,0.56825463,-0.00968675,-0.02879920,-0.82229158
'00:16:03.724,0.057129,0.031250,1.003418,0.548781,1.646341,-0.609756,-5.337500,18.193750,19.812500,30.797,0.56823883,-0.00963199,-0.02878361,-0.82230369
'00:16:03.734,0.060547,0.026855,1.002441,0.121951,1.097561,-0.609756,-4.837500,17.531250,19.343750,30.797,0.56823814,-0.00967944,-0.02877234,-0.82230401
'00:16:03.744,0.058594,0.029785,1.007324,0.487805,1.524390,-0.670732,-4.837500,17.531250,19.343750,30.827,0.56823389,-0.00965400,-0.02877347,-0.82230720
'00:16:03.757,0.060059,0.028320,1.005371,0.121951,1.036585,-0.548781,-4.818750,17.475000,19.318750,30.842,0.56823821,-0.00970979,-0.02876993,-0.82230368
'00:16:03.764,0.060059,0.028320,1.005371,0.121951,1.036585,-0.548781,-4.818750,17.475000,19.318750,30.842,0.56824047,-0.00973925,-0.02876799,-0.82230184
'00:16:03.774,0.058594,0.028320,1.004883,0.304878,1.341463,-0.548781,-4.881250,17.512501,19.331251,30.827,0.56824109,-0.00973865,-0.02875377,-0.82230192
'00:16:03.784,0.061035,0.028320,1.001465,0.609756,1.524390,-0.548781,-4.881250,17.512501,19.331251,30.797,0.56824234,-0.00972408,-0.02876333,-0.82230089
'00:16:03.794,0.057129,0.033691,1.004395,0.304878,1.341463,-0.548781,-4.875000,17.650000,19.412500,30.827,0.56824527,-0.00969711,-0.02877772,-0.82229868
'00:16:03.804,0.061035,0.029785,0.999023,0.365854,1.402439,-0.548781,-4.875000,17.650000,19.412500,30.797,0.56824906,-0.00970123,-0.02878838,-0.82229564
'00:16:03.814,0.060059,0.032227,1.004395,0.121951,1.158537,-0.548781,-5.050000,17.868750,19.568750,30.782,0.56824415,-0.00971180,-0.02879262,-0.82229876
'00:16:03.824,0.063477,0.027832,1.005371,0.182927,1.280488,-0.548781,-5.050000,17.868750,19.568750,30.797,0.56824041,-0.00974565,-0.02878326,-0.82230127
'00:16:03.837,0.062012,0.028320,1.006836,0.243902,1.158537,-0.548781,-4.856250,17.593750,19.356251,30.827,0.56824499,-0.00979306,-0.02879163,-0.82229725
'00:16:03.844,0.062012,0.028320,1.006836,0.243902,1.158537,-0.548781,-4.856250,17.593750,19.356251,30.827,0.56824737,-0.00981808,-0.02879598,-0.82229516
'00:16:03.854,0.059082,0.028320,1.004883,0.548781,1.524390,-0.609756,-4.818750,17.518751,19.343750,30.812,0.56824851,-0.00979754,-0.02879646,-0.82229460
'00:16:03.864,0.059570,0.028809,1.001465,0.182927,1.219512,-0.548781,-4.818750,17.518751,19.343750,30.842,0.56825282,-0.00981897,-0.02879180,-0.82229153
'00:16:03.876,0.055664,0.030762,1.000488,0.426829,1.463415,-0.548781,-4.781250,17.487501,19.350000,30.842,0.56826082,-0.00977573,-0.02879088,-0.82228655
'00:16:03.884,0.056641,0.031250,1.000977,0.243902,1.219512,-0.548781,-4.781250,17.487501,19.350000,30.842,0.56826547,-0.00977142,-0.02879465,-0.82228325
'00:16:03.894,0.057617,0.029785,1.002930,0.365854,1.402439,-0.609756,-4.818750,17.587500,19.393751,30.812,0.56826733,-0.00975693,-0.02879305,-0.82228219
'00:16:03.904,0.060547,0.028320,1.004883,0.243902,1.280488,-0.548781,-4.818750,17.587500,19.393751,30.842,0.56827338,-0.00977921,-0.02879100,-0.82227782
'00:16:03.915,0.059570,0.027832,1.007812,0.365854,1.402439,-0.548781,-5.087500,17.987501,19.681250,30.812,0.56826948,-0.00977157,-0.02877071,-0.82228132
'00:16:03.924,0.062012,0.025879,1.008301,0.365854,1.280488,-0.609756,-5.087500,17.987501,19.681250,30.797,0.56826242,-0.00979166,-0.02875835,-0.82228638
'00:16:03.934,0.060547,0.029297,1.004395,0.426829,1.402439,-0.609756,-4.950000,17.768751,19.512501,30.812,0.56825911,-0.00978657,-0.02876358,-0.82228855
'00:16:03.944,0.061035,0.031250,1.001953,0.426829,1.280488,-0.548781,-4.831250,17.568750,19.312500,30.797,0.56826371,-0.00978993,-0.02879346,-0.82228429
'00:16:03.956,0.059570,0.030762,1.000488,0.426829,1.341463,-0.548781,-4.831250,17.568750,19.312500,30.797,0.56826949,-0.00978155,-0.02881574,-0.82227961
'00:16:03.965,0.060547,0.031738,1.001465,0.365854,1.341463,-0.548781,-4.806250,17.593750,19.400000,30.827,0.56827529,-0.00978117,-0.02883838,-0.82227481
'00:16:03.974,0.061035,0.029785,1.002441,0.243902,1.219512,-0.548781,-4.806250,17.593750,19.400000,30.827,0.56828104,-0.00980324,-0.02884958,-0.82227018
'00:16:03.984,0.062012,0.029297,1.004883,0.243902,1.280488,-0.548781,-4.825000,17.525000,19.287500,30.812,0.56828512,-0.00982730,-0.02885588,-0.82226686
'00:16:03.996,0.062500,0.026855,1.007324,0.243902,1.219512,-0.548781,-4.825000,17.525000,19.287500,30.827,0.56829035,-0.00987488,-0.02885147,-0.82226283
'00:16:04.004,0.060059,0.026855,1.008789,0.121951,1.097561,-0.609756,-5.168750,18.037500,19.762501,30.767,0.56827948,-0.00989697,-0.02882680,-0.82227094
'00:16:04.014,0.059570,0.026855,1.003906,0.304878,1.280488,-0.548781,-5.168750,18.037500,19.762501,30.782,0.56827090,-0.00990073,-0.02880032,-0.82227775
'00:16:04.024,0.059082,0.028320,0.999512,0.792683,1.768293,-0.609756,-5.031250,17.875000,19.531250,30.812,0.56826564,-0.00984304,-0.02879997,-0.82228209
'00:16:04.035,0.051758,0.035645,1.003418,0.121951,1.097561,-0.548781,-5.031250,17.875000,19.531250,30.797,0.56826083,-0.00979349,-0.02879584,-0.82228615
'00:16:04.044,0.056641,0.030762,0.998535,0.060976,1.219512,-0.609756,-4.825000,17.537500,19.425001,30.812,0.56826005,-0.00979699,-0.02878439,-0.82228705
'00:16:04.054,0.056641,0.031738,1.004395,0.609756,1.707317,-0.609756,-4.825000,17.537500,19.425001,30.827,0.56826074,-0.00973366,-0.02879028,-0.82228712
'00:16:04.064,0.059570,0.030273,1.008301,0.000000,0.914634,-0.487805,-4.806250,17.493750,19.312500,30.782,0.56826875,-0.00978022,-0.02879379,-0.82228091
'00:16:04.074,0.062988,0.027344,1.006348,0.000000,0.975610,-0.487805,-4.806250,17.493750,19.312500,30.842,0.56827724,-0.00985235,-0.02879145,-0.82227426
'00:16:04.084,0.063477,0.026855,1.004883,0.670732,1.646341,-0.548781,-4.762500,17.537500,19.362501,30.812,0.56828740,-0.00985041,-0.02880796,-0.82226668
'00:16:04.094,0.062988,0.028320,1.005859,0.853659,1.829268,-0.670732,-4.762500,17.537500,19.362501,30.797,0.56828912,-0.00981730,-0.02883437,-0.82226497
'00:16:04.104,0.063965,0.028809,1.000488,0.121951,0.975610,-0.548781,-4.768750,17.525000,19.381250,30.827,0.56829579,-0.00988662,-0.02885802,-0.82225870
'00:16:04.116,0.061523,0.029785,0.997070,0.487805,1.524390,-0.548781,-4.768750,17.525000,19.381250,30.812,0.56830546,-0.00987961,-0.02888166,-0.82225127
'00:16:04.124,0.056152,0.034180,1.003418,0.365854,1.402439,-0.548781,-4.981250,17.812500,19.518751,30.812,0.56830422,-0.00984132,-0.02888814,-0.82225236
'00:16:04.134,0.059570,0.029297,1.000000,0.243902,1.280488,-0.487805,-4.981250,17.812500,19.518751,30.812,0.56830760,-0.00984759,-0.02888052,-0.82225021
'00:16:04.144,0.055664,0.032227,1.008789,0.243902,1.219512,-0.548781,-4.800000,17.500000,19.318750,30.812,0.56831197,-0.00982898,-0.02888101,-0.82224740
'00:16:04.157,0.060547,0.027344,1.008789,0.121951,1.158537,-0.487805,-4.781250,17.493750,19.293751,30.812,0.56832578,-0.00988038,-0.02886455,-0.82223781
'00:16:04.164,0.059082,0.025879,1.008789,0.487805,1.524390,-0.609756,-4.781250,17.493750,19.293751,30.827,0.56832815,-0.00987460,-0.02885174,-0.82223670
'00:16:04.174,0.058594,0.027344,1.007324,0.365854,1.341463,-0.548781,-4.781250,17.493750,19.293751,30.842,0.56833506,-0.00987765,-0.02884090,-0.82223226
'00:16:04.184,0.059082,0.029297,1.001465,0.426829,1.402439,-0.609756,-4.825000,17.500000,19.362501,30.812,0.56833412,-0.00986695,-0.02884343,-0.82223295
'00:16:04.196,0.058105,0.033203,1.000488,0.426829,1.402439,-0.548781,-4.762500,17.518751,19.281250,30.812,0.56834348,-0.00983426,-0.02887572,-0.82222574
'00:16:04.204,0.059082,0.033203,0.996582,0.304878,1.341463,-0.609756,-4.762500,17.518751,19.281250,30.827,0.56834594,-0.00982599,-0.02889664,-0.82222341
'00:16:04.214,0.060059,0.033203,1.000488,0.243902,1.280488,-0.548781,-5.062500,17.918751,19.675001,30.812,0.56834037,-0.00981665,-0.02890837,-0.82222695
'00:16:04.226,0.064453,0.028809,1.004395,0.182927,1.280488,-0.548781,-5.062500,17.918751,19.675001,30.812,0.56833464,-0.00985728,-0.02890570,-0.82223052
'00:16:04.234,0.064941,0.026367,1.010254,0.243902,1.280488,-0.548781,-5.000000,17.775000,19.575001,30.827,0.56833222,-0.00989122,-0.02889740,-0.82223208
'00:16:04.244,0.066406,0.025391,1.010254,0.304878,1.280488,-0.548781,-5.000000,17.775000,19.575001,30.812,0.56832936,-0.00994167,-0.02889161,-0.82223365
'00:16:04.254,0.062012,0.025879,1.007324,0.365854,1.341463,-0.609756,-4.825000,17.581251,19.387501,30.873,0.56833049,-0.00996674,-0.02888346,-0.82223285
'00:16:04.264,0.058594,0.028809,1.000977,0.548781,1.524390,-0.609756,-4.825000,17.581251,19.387501,30.782,0.56833169,-0.00994035,-0.02888529,-0.82223228
'00:16:04.275,0.054199,0.032227,1.000000,0.243902,1.341463,-0.548781,-4.812500,17.581251,19.375000,30.812,0.56833743,-0.00990189,-0.02887732,-0.82222906
'00:16:04.284,0.053711,0.032715,0.999023,0.487805,1.463415,-0.548781,-4.812500,17.581251,19.375000,30.827,0.56834256,-0.00984811,-0.02888240,-0.82222598
'00:16:04.294,0.055176,0.032227,0.999512,0.304878,1.280488,-0.548781,-4.850000,17.618750,19.450001,30.797,0.56834574,-0.00981991,-0.02888451,-0.82222404
'00:16:04.304,0.055176,0.031250,1.006836,0.121951,1.219512,-0.548781,-4.850000,17.618750,19.450001,30.797,0.56834892,-0.00980810,-0.02886807,-0.82222256
'00:16:04.314,0.061035,0.026855,1.009766,0.304878,1.341463,-0.548781,-4.931250,17.718750,19.406250,30.812,0.56835029,-0.00982392,-0.02885208,-0.82222199
'00:16:04.324,0.062012,0.026367,1.009277,0.182927,1.219512,-0.609756,-4.931250,17.718750,19.406250,30.812,0.56834693,-0.00986143,-0.02883486,-0.82222446
'00:16:04.334,0.064941,0.026855,1.005859,0.121951,1.036585,-0.609756,-5.081250,17.925001,19.593750,30.797,0.56833676,-0.00992342,-0.02883088,-0.82223089
'00:16:04.344,0.064941,0.029297,1.000000,0.121951,1.036585,-0.548781,-5.081250,17.925001,19.593750,30.827,0.56833035,-0.00997677,-0.02884265,-0.82223426
'00:16:04.354,0.064453,0.029785,0.996094,0.792683,1.829268,-0.609756,-4.818750,17.506250,19.356251,30.857,0.56833086,-0.00994529,-0.02887645,-0.82223310
'00:16:04.364,0.056152,0.035645,1.001465,0.975610,2.012195,-0.670732,-4.818750,17.506250,19.356251,30.812,0.56832670,-0.00982126,-0.02891293,-0.82223619
'00:16:04.374,0.062500,0.030273,0.997559,-0.121951,0.792683,-0.487805,-4.818750,17.543751,19.312500,30.812,0.56833379,-0.00989927,-0.02892717,-0.82222985
'00:16:04.384,0.059082,0.028809,1.005371,0.792683,1.890244,-0.609756,-4.818750,17.543751,19.312500,30.782,0.56833603,-0.00983694,-0.02892770,-0.82222903
'00:16:04.394,0.058105,0.026855,1.008301,-0.243902,0.670732,-0.487805,-4.781250,17.500000,19.318750,30.782,0.56834517,-0.00991801,-0.02890013,-0.82222271
'00:16:04.404,0.058594,0.024902,1.005859,0.548781,1.463415,-0.609756,-4.781250,17.500000,19.318750,30.812,0.56834850,-0.00991237,-0.02888220,-0.82222111
'00:16:04.414,0.055176,0.030762,1.010254,0.670732,1.707317,-0.670732,-4.962500,17.768751,19.481251,30.842,0.56834025,-0.00983369,-0.02887184,-0.82222812
'00:16:04.424,0.061035,0.026855,0.997559,0.365854,1.280488,-0.548781,-4.962500,17.768751,19.481251,30.812,0.56834014,-0.00985230,-0.02886648,-0.82222816
'00:16:04.434,0.056641,0.035156,1.004395,0.304878,1.341463,-0.609756,-5.056250,17.793751,19.568750,30.767,0.56832805,-0.00980630,-0.02887406,-0.82223680
'00:16:04.444,0.062500,0.030762,0.998047,0.548781,1.585366,-0.609756,-5.056250,17.793751,19.568750,30.812,0.56831763,-0.00978198,-0.02888741,-0.82224382
'00:16:04.454,0.062988,0.030762,1.000977,0.000000,0.975610,-0.487805,-4.893750,17.662500,19.456251,30.767,0.56832237,-0.00983892,-0.02890170,-0.82223936
'00:16:04.464,0.061035,0.029785,1.008301,0.365854,1.463415,-0.548781,-4.793750,17.562500,19.306250,30.812,0.56832969,-0.00983757,-0.02890759,-0.82223412
'00:16:04.476,0.061035,0.029785,1.008301,0.365854,1.463415,-0.548781,-4.793750,17.562500,19.306250,30.812,0.56833842,-0.00983595,-0.02891451,-0.82222785
'00:16:04.484,0.064941,0.025391,1.005371,0.182927,1.158537,-0.548781,-4.825000,17.525000,19.350000,30.797,0.56834144,-0.00988904,-0.02891093,-0.82222526
'00:16:04.494,0.061035,0.028320,1.006836,0.548781,1.585366,-0.609756,-4.825000,17.525000,19.350000,30.767,0.56834172,-0.00987265,-0.02891249,-0.82222521
'00:16:04.504,0.059570,0.026367,1.002441,0.243902,1.219512,-0.609756,-4.775000,17.512501,19.350000,30.812,0.56834447,-0.00990139,-0.02889882,-0.82222344
'00:16:04.514,0.055176,0.033203,1.003418,0.548781,1.463415,-0.609756,-4.775000,17.512501,19.350000,30.827,0.56834678,-0.00984512,-0.02891663,-0.82222189
'00:16:04.524,0.057129,0.030273,0.999023,0.426829,1.402439,-0.609756,-5.006250,17.825001,19.531250,30.797,0.56834009,-0.00981471,-0.02891043,-0.82222709
'00:16:04.535,0.056641,0.029297,1.003418,0.304878,1.402439,-0.548781,-5.006250,17.825001,19.531250,30.812,0.56833781,-0.00978887,-0.02888417,-0.82222991
'00:16:04.544,0.056641,0.029297,1.003418,0.304878,1.402439,-0.548781,-4.993750,17.812500,19.550001,30.812,0.56833646,-0.00976864,-0.02886361,-0.82223180
'00:16:04.554,0.059082,0.027344,1.004883,0.182927,1.158537,-0.548781,-4.993750,17.812500,19.550001,30.812,0.56833467,-0.00979075,-0.02884237,-0.82223352
'00:16:04.564,0.060547,0.028809,1.006836,0.426829,1.341463,-0.548781,-4.768750,17.543751,19.312500,30.812,0.56834338,-0.00979873,-0.02885438,-0.82222698
'00:16:04.574,0.062988,0.028320,1.005371,0.243902,1.280488,-0.609756,-4.768750,17.543751,19.312500,30.812,0.56834731,-0.00983545,-0.02886330,-0.82222351
'00:16:04.584,0.062012,0.029785,1.004395,0.060976,1.097561,-0.609756,-4.831250,17.481251,19.387501,30.842,0.56834410,-0.00987839,-0.02886631,-0.82222511
'00:16:04.594,0.064453,0.027344,0.997559,0.121951,1.036585,-0.487805,-4.831250,17.481251,19.387501,30.827,0.56834981,-0.00994699,-0.02887480,-0.82222004
'00:16:04.604,0.062988,0.028320,0.999512,1.036585,2.012195,-0.609756,-4.793750,17.556250,19.343750,30.812,0.56835431,-0.00988975,-0.02890430,-0.82221659
'00:16:04.614,0.055664,0.036133,1.008301,0.121951,1.097561,-0.548781,-4.793750,17.556250,19.343750,30.782,0.56835880,-0.00987099,-0.02892559,-0.82221295
'00:16:04.624,0.060059,0.028809,1.001465,0.060976,1.097561,-0.609756,-4.943750,17.706251,19.506250,30.812,0.56835273,-0.00990349,-0.02891204,-0.82221724
'00:16:04.635,0.058105,0.028320,1.006836,0.914634,1.951220,-0.609756,-4.943750,17.706251,19.506250,30.827,0.56834944,-0.00981391,-0.02890451,-0.82222085
'00:16:04.644,0.058105,0.027344,1.004883,-0.121951,0.792683,-0.487805,-5.068750,17.937500,19.637501,30.812,0.56834831,-0.00986340,-0.02887544,-0.82222207
'00:16:04.654,0.056641,0.029297,0.999512,0.670732,1.585366,-0.609756,-5.068750,17.937500,19.637501,30.812,0.56834054,-0.00980679,-0.02886850,-0.82222835
'00:16:04.664,0.054199,0.033203,1.004395,0.121951,1.097561,-0.548781,-4.831250,17.512501,19.318750,30.827,0.56834239,-0.00979055,-0.02886589,-0.82222736
'00:16:04.674,0.059570,0.028809,1.002441,-0.060976,0.914634,-0.487805,-4.831250,17.512501,19.318750,30.782,0.56834878,-0.00984463,-0.02885590,-0.82222265
'00:16:04.684,0.061035,0.027344,1.000488,0.609756,1.646341,-0.548781,-4.787500,17.475000,19.287500,30.842,0.56835563,-0.00982849,-0.02885854,-0.82221802
'00:16:04.694,0.053711,0.034668,1.009766,0.609756,1.707317,-0.670732,-4.787500,17.475000,19.287500,30.812,0.56835267,-0.00973621,-0.02886776,-0.82222084
'00:16:04.704,0.063965,0.027832,1.003906,-0.060976,0.914634,-0.548781,-4.793750,17.506250,19.268751,30.812,0.56835744,-0.00982062,-0.02887156,-0.82221640
'00:16:04.714,0.062500,0.029297,1.003906,0.792683,1.890244,-0.609756,-4.793750,17.506250,19.268751,30.797,0.56836061,-0.00977763,-0.02889070,-0.82221405
'00:16:04.724,0.060059,0.031250,1.007812,-0.060976,0.914634,-0.548781,-5.087500,17.775000,19.531250,30.827,0.56834994,-0.00981264,-0.02887997,-0.82222139
'00:16:04.734,0.063477,0.027344,1.000488,0.000000,0.975610,-0.487805,-5.093750,17.981251,19.643751,30.842,0.56834843,-0.00987774,-0.02886908,-0.82222203
'00:16:04.744,0.062012,0.027344,0.999512,0.792683,1.829268,-0.609756,-5.093750,17.981251,19.643751,30.782,0.56834096,-0.00983346,-0.02886772,-0.82222777
'00:16:04.754,0.054199,0.036621,1.009277,0.426829,1.463415,-0.609756,-4.787500,17.512501,19.350000,30.842,0.56834180,-0.00976350,-0.02888971,-0.82222726
'00:16:04.764,0.061035,0.028320,1.001465,0.182927,1.219512,-0.609756,-4.787500,17.512501,19.350000,30.812,0.56834338,-0.00979681,-0.02888849,-0.82222581
'00:16:04.774,0.053223,0.033691,1.010254,0.609756,1.646341,-0.670732,-4.900000,17.575001,19.362501,30.797,0.56833474,-0.00970551,-0.02888615,-0.82223294
'00:16:04.784,0.059082,0.025879,1.002930,0.000000,1.036585,-0.548781,-4.900000,17.575001,19.362501,30.842,0.56833442,-0.00975435,-0.02885186,-0.82223379
'00:16:04.794,0.058105,0.027832,1.003418,0.731707,1.646341,-0.609756,-4.862500,17.468750,19.325001,30.812,0.56833171,-0.00970999,-0.02884772,-0.82223634
'00:16:04.804,0.056152,0.030762,1.005371,0.182927,1.158537,-0.609756,-4.862500,17.468750,19.325001,30.812,0.56832686,-0.00970567,-0.02883685,-0.82224012
'00:16:04.814,0.060059,0.029785,1.002930,0.121951,1.158537,-0.548781,-4.950000,17.693750,19.462500,30.812,0.56832520,-0.00972886,-0.02883068,-0.82224121
'00:16:04.824,0.060547,0.030273,1.001465,0.304878,1.341463,-0.609756,-4.950000,17.693750,19.462500,30.797,0.56831962,-0.00973048,-0.02883387,-0.82224493
'00:16:04.834,0.063965,0.029297,1.002441,0.426829,1.402439,-0.548781,-5.137500,17.931250,19.675001,30.812,0.56831094,-0.00973663,-0.02884081,-0.82225062
'00:16:04.844,0.062012,0.030762,1.004883,0.548781,1.585366,-0.548781,-5.137500,17.931250,19.675001,30.782,0.56830259,-0.00970687,-0.02884711,-0.82225652
'00:16:04.854,0.062500,0.027832,1.004883,0.182927,1.158537,-0.548781,-4.993750,17.687500,19.393751,30.842,0.56829854,-0.00974454,-0.02883954,-0.82225914
'00:16:04.864,0.061523,0.028320,1.005859,0.548781,1.524390,-0.609756,-4.993750,17.687500,19.393751,30.842,0.56829125,-0.00972979,-0.02883883,-0.82226438
'00:16:04.874,0.059570,0.029297,1.003418,0.243902,1.219512,-0.609756,-4.812500,17.537500,19.337500,30.797,0.56829197,-0.00974716,-0.02884083,-0.82226361
'00:16:04.884,0.058105,0.030762,1.001953,0.426829,1.402439,-0.548781,-4.812500,17.537500,19.337500,30.797,0.56829738,-0.00972862,-0.02885000,-0.82225977
'00:16:04.894,0.058105,0.030762,1.001465,0.243902,1.280488,-0.609756,-4.787500,17.525000,19.318750,30.812,0.56829948,-0.00972938,-0.02885392,-0.82225817
'00:16:04.904,0.057129,0.034180,1.002930,0.426829,1.463415,-0.548781,-4.787500,17.525000,19.318750,30.812,0.56830585,-0.00968877,-0.02887686,-0.82225344
'00:16:04.914,0.061035,0.029297,1.006836,0.182927,1.097561,-0.487805,-4.843750,17.493750,19.325001,30.827,0.56831172,-0.00972349,-0.02888064,-0.82224884
'00:16:04.924,0.060059,0.025879,1.005859,0.121951,1.158537,-0.487805,-4.843750,17.493750,19.325001,30.827,0.56831834,-0.00976451,-0.02885417,-0.82224471
'00:16:04.934,0.060059,0.025391,1.002930,0.487805,1.524390,-0.609756,-5.225000,18.087500,19.712500,30.827,0.56830417,-0.00974907,-0.02881999,-0.82225588
'00:16:04.946,0.054688,0.030762,1.008301,0.670732,1.768293,-0.670732,-5.018750,17.818750,19.512501,30.812,0.56829176,-0.00964693,-0.02880061,-0.82226634
'00:16:04.954,0.062012,0.028320,1.000488,0.060976,1.036585,-0.548781,-5.018750,17.818750,19.512501,30.842,0.56828901,-0.00968739,-0.02879595,-0.82226793
'00:16:04.965,0.058594,0.034668,1.001465,0.731707,1.768293,-0.609756,-4.818750,17.556250,19.325001,30.797,0.56829077,-0.00960839,-0.02883777,-0.82226618
'00:16:04.974,0.063477,0.030762,0.999023,0.000000,0.975610,-0.487805,-4.818750,17.556250,19.325001,30.827,0.56829834,-0.00966744,-0.02885738,-0.82225957
'00:16:04.984,0.063965,0.028809,1.000977,0.609756,1.707317,-0.609756,-4.793750,17.531250,19.375000,30.827,0.56830153,-0.00966052,-0.02887761,-0.82225673
'00:16:04.994,0.063965,0.027344,1.004395,-0.060976,0.914634,-0.487805,-4.793750,17.531250,19.375000,30.842,0.56831121,-0.00974896,-0.02887890,-0.82224895
'00:16:05.004,0.064941,0.026855,1.006348,0.304878,1.219512,-0.609756,-4.806250,17.468750,19.343750,30.842,0.56831088,-0.00980076,-0.02888901,-0.82224821
'00:16:05.014,0.062012,0.027344,1.006836,0.609756,1.646341,-0.670732,-4.806250,17.468750,19.343750,30.842,0.56830744,-0.00978789,-0.02889093,-0.82225067
'00:16:05.024,0.056641,0.030273,1.006836,0.182927,1.158537,-0.609756,-4.856250,17.562500,19.381250,30.812,0.56830499,-0.00978860,-0.02888050,-0.82225272
'00:16:05.034,0.057617,0.029297,1.001465,0.487805,1.524390,-0.670732,-4.856250,17.562500,19.381250,30.782,0.56829951,-0.00975820,-0.02887437,-0.82225709
'00:16:05.044,0.052734,0.032227,1.001465,0.182927,1.158537,-0.487805,-5.200000,18.106251,19.725000,30.767,0.56829366,-0.00972046,-0.02884875,-0.82226247
'00:16:05.054,0.055176,0.033203,1.000977,0.487805,1.585366,-0.609756,-5.200000,18.106251,19.725000,30.842,0.56828030,-0.00964708,-0.02883933,-0.82227290
'00:16:05.064,0.057617,0.030762,1.002930,0.060976,1.097561,-0.548781,-4.843750,17.562500,19.318750,30.842,0.56828337,-0.00966557,-0.02883353,-0.82227077
'00:16:05.074,0.058594,0.029297,1.005859,0.182927,1.219512,-0.548781,-4.843750,17.562500,19.318750,30.827,0.56828712,-0.00967957,-0.02882482,-0.82226832
'00:16:05.084,0.062500,0.027832,1.004883,0.182927,1.158537,-0.548781,-4.812500,17.568750,19.356251,30.827,0.56829299,-0.00972731,-0.02882887,-0.82226355
'00:16:05.094,0.063965,0.027344,1.005859,0.426829,1.402439,-0.548781,-4.812500,17.568750,19.356251,30.812,0.56829961,-0.00975437,-0.02884061,-0.82225825
'00:16:05.104,0.064941,0.028809,1.005371,0.426829,1.402439,-0.548781,-4.812500,17.550001,19.362501,30.797,0.56830531,-0.00978049,-0.02886381,-0.82225319
'00:16:05.114,0.065918,0.028320,1.002441,0.548781,1.463415,-0.609756,-4.812500,17.550001,19.362501,30.812,0.56830681,-0.00980349,-0.02889450,-0.82225080
'00:16:05.124,0.062012,0.032227,1.002930,0.365854,1.402439,-0.609756,-4.887500,17.618750,19.375000,30.842,0.56830366,-0.00979912,-0.02891716,-0.82225223
'00:16:05.134,0.061523,0.030762,1.000488,0.365854,1.341463,-0.548781,-4.887500,17.618750,19.375000,30.842,0.56830502,-0.00980290,-0.02893334,-0.82225068
'00:16:05.144,0.057617,0.032715,1.004883,0.365854,1.402439,-0.548781,-5.043750,17.900000,19.518751,30.812,0.56830163,-0.00976737,-0.02893488,-0.82225339
'00:16:05.154,0.057129,0.027832,1.002930,0.243902,1.280488,-0.548781,-5.043750,17.900000,19.518751,30.842,0.56829892,-0.00976373,-0.02890548,-0.82225634
'00:16:05.164,0.053223,0.026855,1.008301,0.304878,1.280488,-0.609756,-4.975000,17.737501,19.500000,30.812,0.56829320,-0.00973982,-0.02885948,-0.82226219
'00:16:05.174,0.056152,0.026855,1.006348,0.243902,1.219512,-0.548781,-4.975000,17.737501,19.500000,30.812,0.56829171,-0.00974052,-0.02882497,-0.82226442
'00:16:05.184,0.056641,0.028320,1.003906,0.609756,1.524390,-0.548781,-4.812500,17.531250,19.281250,30.812,0.56829830,-0.00970515,-0.02882115,-0.82226042
'00:16:05.194,0.056152,0.034180,1.003418,0.182927,1.219512,-0.548781,-4.812500,17.531250,19.281250,30.797,0.56830256,-0.00968754,-0.02883350,-0.82225725
'00:16:05.205,0.062988,0.031738,1.000000,0.243902,1.341463,-0.548781,-4.793750,17.487501,19.350000,30.812,0.56830785,-0.00970946,-0.02886071,-0.82225238
'00:16:05.214,0.063477,0.030273,1.001465,0.182927,1.219512,-0.548781,-4.793750,17.487501,19.350000,30.827,0.56831204,-0.00974497,-0.02887767,-0.82224847
'00:16:05.224,0.063477,0.030273,1.001465,0.182927,1.219512,-0.548781,-4.868750,17.531250,19.293751,30.827,0.56831266,-0.00977949,-0.02889133,-0.82224715
'00:16:05.234,0.065918,0.027832,1.002441,0.060976,0.975610,-0.548781,-4.868750,17.531250,19.293751,30.827,0.56831289,-0.00985948,-0.02890321,-0.82224561
'00:16:05.245,0.064941,0.025879,1.007324,0.609756,1.585366,-0.609756,-5.012500,17.800001,19.562500,30.797,0.56830589,-0.00986430,-0.02890216,-0.82225043
'00:16:05.254,0.064941,0.025879,1.007324,0.609756,1.585366,-0.609756,-5.006250,17.800001,19.575001,30.797,0.56830051,-0.00986860,-0.02890172,-0.82225412
'00:16:05.264,0.059570,0.027832,1.007812,0.975610,2.012195,-0.670732,-5.006250,17.800001,19.575001,30.782,0.56829133,-0.00978778,-0.02889661,-0.82226161
'00:16:05.274,0.057129,0.029785,1.003906,-0.060976,0.792683,-0.548781,-4.787500,17.506250,19.268751,30.827,0.56829617,-0.00983534,-0.02889129,-0.82225788
'00:16:05.285,0.055664,0.029297,1.000488,0.792683,1.768293,-0.670732,-4.787500,17.506250,19.268751,30.812,0.56829543,-0.00975692,-0.02889179,-0.82225931
'00:16:05.294,0.052246,0.033691,1.003418,0.000000,0.853659,-0.487805,-4.825000,17.531250,19.343750,30.812,0.56830120,-0.00975344,-0.02888906,-0.82225546
'00:16:05.304,0.055664,0.031738,1.000977,0.670732,1.707317,-0.609756,-4.825000,17.531250,19.343750,30.797,0.56830189,-0.00968239,-0.02889513,-0.82225560
'00:16:05.314,0.059082,0.029297,1.002930,-0.060976,0.914634,-0.548781,-4.762500,17.537500,19.306250,30.752,0.56830957,-0.00973788,-0.02889175,-0.82224976
'00:16:05.324,0.063477,0.027344,1.003906,0.121951,1.158537,-0.548781,-4.762500,17.537500,19.306250,30.842,0.56831809,-0.00979763,-0.02889481,-0.82224306
'00:16:05.334,0.063477,0.026855,1.007812,0.365854,1.341463,-0.548781,-5.250000,18.156250,19.800001,30.797,0.56830689,-0.00981228,-0.02887883,-0.82225119
'00:16:05.344,0.063477,0.028809,1.006836,0.426829,1.402439,-0.548781,-5.250000,18.156250,19.800001,30.842,0.56829553,-0.00981224,-0.02887550,-0.82225915
'00:16:05.355,0.062500,0.027832,1.004395,0.426829,1.402439,-0.609756,-5.168750,17.956251,19.618750,30.827,0.56828002,-0.00981266,-0.02886490,-0.82227024
'00:16:05.365,0.061523,0.029297,1.001465,0.548781,1.524390,-0.548781,-5.168750,17.956251,19.618750,30.782,0.56827047,-0.00978830,-0.02886366,-0.82227717
'00:16:05.374,0.058105,0.032227,1.000977,0.426829,1.402439,-0.609756,-4.837500,17.500000,19.362501,30.827,0.56826859,-0.00976407,-0.02887685,-0.82227830
'00:16:05.384,0.058594,0.029785,1.000488,0.243902,1.219512,-0.609756,-4.837500,17.500000,19.362501,30.812,0.56826642,-0.00977218,-0.02887545,-0.82227975
'00:16:05.394,0.055176,0.031250,1.004395,0.426829,1.463415,-0.548781,-4.818750,17.493750,19.325001,30.827,0.56827053,-0.00972903,-0.02886996,-0.82227761
'00:16:05.405,0.057617,0.027832,1.004883,0.121951,1.158537,-0.548781,-4.818750,17.493750,19.325001,30.812,0.56827472,-0.00975272,-0.02884551,-0.82227529
'00:16:05.414,0.059082,0.028320,1.005371,0.304878,1.280488,-0.548781,-4.806250,17.562500,19.381250,30.827,0.56828048,-0.00976298,-0.02884189,-0.82227132
'00:16:05.424,0.060059,0.028320,1.005859,0.609756,1.707317,-0.548781,-4.806250,17.562500,19.381250,30.827,0.56828813,-0.00973382,-0.02884219,-0.82226637
'00:16:05.434,0.062012,0.028809,1.007324,0.121951,1.097561,-0.548781,-4.818750,17.475000,19.256250,30.842,0.56829126,-0.00977904,-0.02884467,-0.82226358
'00:16:05.445,0.061035,0.029785,1.003418,0.548781,1.585366,-0.548781,-4.818750,17.475000,19.256250,30.812,0.56829613,-0.00975717,-0.02885797,-0.82226001
'00:16:05.455,0.061035,0.030762,1.001465,0.182927,1.158537,-0.548781,-5.106250,17.962500,19.681250,30.842,0.56828914,-0.00977353,-0.02885969,-0.82226459
'00:16:05.464,0.060547,0.030762,1.000977,0.487805,1.524390,-0.609756,-5.106250,17.962500,19.681250,30.812,0.56827997,-0.00974841,-0.02886312,-0.82227110
'00:16:05.474,0.060547,0.029297,1.002930,0.182927,1.219512,-0.548781,-4.943750,17.668751,19.450001,30.797,0.56827851,-0.00976825,-0.02885698,-0.82227209
'00:16:05.485,0.059570,0.028809,1.004883,0.365854,1.463415,-0.609756,-4.843750,17.550001,19.381250,30.782,0.56827788,-0.00976081,-0.02884900,-0.82227289
'00:16:05.494,0.059570,0.028320,1.005859,0.243902,1.280488,-0.548781,-4.843750,17.550001,19.381250,30.827,0.56828092,-0.00977375,-0.02884001,-0.82227096
'00:16:05.504,0.058594,0.028320,1.004883,0.365854,1.402439,-0.548781,-4.787500,17.506250,19.356251,30.812,0.56828771,-0.00977078,-0.02883279,-0.82226655
'00:16:05.514,0.059082,0.030762,1.002930,0.365854,1.341463,-0.548781,-4.787500,17.506250,19.356251,30.797,0.56829380,-0.00976568,-0.02884530,-0.82226197
'00:16:05.526,0.058594,0.030762,1.002441,0.365854,1.341463,-0.548781,-4.856250,17.525000,19.381250,30.812,0.56829572,-0.00975180,-0.02885197,-0.82226057
'00:16:05.534,0.059570,0.030273,1.002441,0.365854,1.402439,-0.548781,-4.856250,17.525000,19.381250,30.812,0.56829719,-0.00974509,-0.02885473,-0.82225953
'00:16:05.544,0.061035,0.030762,1.002930,0.304878,1.341463,-0.609756,-5.087500,18.012501,19.656250,30.782,0.56828894,-0.00974371,-0.02885830,-0.82226513
'00:16:05.554,0.060059,0.029297,1.003418,0.365854,1.341463,-0.548781,-5.087500,18.012501,19.656250,30.827,0.56828546,-0.00973973,-0.02885414,-0.82226772
'00:16:05.566,0.062012,0.029297,1.004883,0.304878,1.280488,-0.609756,-5.043750,17.850000,19.575001,30.797,0.56827514,-0.00975626,-0.02885540,-0.82227462
'00:16:05.574,0.061035,0.028809,1.007324,0.304878,1.402439,-0.609756,-5.043750,17.850000,19.575001,30.812,0.56826862,-0.00975695,-0.02884549,-0.82227946
'00:16:05.584,0.060059,0.029297,1.006348,0.304878,1.341463,-0.548781,-4.812500,17.550001,19.412500,30.812,0.56827407,-0.00976482,-0.02884654,-0.82227557
'00:16:05.594,0.059570,0.029297,1.003418,0.365854,1.341463,-0.548781,-4.812500,17.550001,19.412500,30.797,0.56827953,-0.00976747,-0.02885118,-0.82227160
'00:16:05.606,0.059570,0.030273,1.001953,0.426829,1.341463,-0.609756,-4.793750,17.562500,19.412500,30.782,0.56828253,-0.00976408,-0.02887145,-0.82226885
'00:16:05.614,0.059082,0.030762,1.003418,0.304878,1.280488,-0.548781,-4.793750,17.562500,19.412500,30.842,0.56828773,-0.00976632,-0.02888032,-0.82226492
'00:16:05.624,0.059570,0.030273,1.002441,0.304878,1.341463,-0.548781,-4.800000,17.556250,19.356251,30.827,0.56829408,-0.00976890,-0.02888719,-0.82226026
'00:16:05.634,0.059082,0.029297,1.003906,0.304878,1.341463,-0.609756,-4.800000,17.556250,19.356251,30.812,0.56829626,-0.00977210,-0.02888595,-0.82225876
'00:16:05.646,0.058594,0.028320,1.003906,0.304878,1.341463,-0.609756,-5.081250,17.943750,19.587500,30.842,0.56828584,-0.00976411,-0.02886056,-0.82226695
'00:16:05.654,0.059082,0.030273,1.003906,0.304878,1.341463,-0.548781,-5.081250,17.943750,19.587500,30.812,0.56828213,-0.00975517,-0.02885411,-0.82226984
'00:16:05.665,0.059570,0.028809,1.005859,0.243902,1.341463,-0.548781,-5.125000,17.956251,19.618750,30.842,0.56827433,-0.00975254,-0.02882955,-0.82227613
'00:16:05.674,0.060547,0.028320,1.004883,0.304878,1.341463,-0.548781,-5.125000,17.956251,19.618750,30.782,0.56826812,-0.00975437,-0.02881500,-0.82228091
'00:16:05.685,0.060547,0.029297,1.003906,0.365854,1.341463,-0.548781,-4.812500,17.550001,19.318750,30.782,0.56827463,-0.00976303,-0.02882489,-0.82227596
'00:16:05.694,0.059082,0.029785,1.003418,0.365854,1.402439,-0.548781,-4.812500,17.550001,19.318750,30.797,0.56828000,-0.00975711,-0.02882767,-0.82227222
'00:16:05.704,0.060547,0.031250,1.002441,0.243902,1.219512,-0.487805,-4.793750,17.512501,19.275000,30.812,0.56828999,-0.00977297,-0.02884599,-0.82226449
'00:16:05.714,0.060547,0.028809,1.004883,0.304878,1.341463,-0.548781,-4.793750,17.512501,19.275000,30.857,0.56829641,-0.00978569,-0.02884752,-0.82225985
'00:16:05.726,0.061523,0.028320,1.005371,0.304878,1.341463,-0.548781,-4.775000,17.475000,19.350000,30.797,0.56830425,-0.00981047,-0.02885070,-0.82225402
'00:16:05.734,0.059082,0.029297,1.004883,0.426829,1.402439,-0.548781,-4.775000,17.475000,19.350000,30.827,0.56830955,-0.00980450,-0.02885434,-0.82225030
'00:16:05.744,0.057617,0.030273,1.003418,0.304878,1.402439,-0.548781,-5.012500,17.837500,19.562500,30.827,0.56830720,-0.00978281,-0.02884046,-0.82225267
'00:16:05.754,0.060059,0.029785,1.002930,0.365854,1.341463,-0.548781,-5.012500,17.837500,19.562500,30.782,0.56830485,-0.00977821,-0.02884104,-0.82225432
'00:16:05.766,0.059082,0.029297,1.003418,0.304878,1.280488,-0.548781,-5.031250,17.831251,19.631250,30.812,0.56829994,-0.00977618,-0.02883003,-0.82225813
'00:16:05.774,0.059082,0.029297,1.004395,0.365854,1.402439,-0.609756,-4.843750,17.600000,19.393751,30.827,0.56830017,-0.00977112,-0.02882873,-0.82225808
'00:16:05.784,0.058105,0.029297,1.004395,0.304878,1.280488,-0.548781,-4.843750,17.600000,19.393751,30.842,0.56830452,-0.00977138,-0.02882497,-0.82225520
'00:16:05.794,0.059082,0.028809,1.004883,0.365854,1.402439,-0.548781,-4.812500,17.437500,19.350000,30.857,0.56830778,-0.00976665,-0.02881897,-0.82225321
'00:16:05.808,0.060547,0.028809,1.004395,0.365854,1.341463,-0.548781,-4.812500,17.437500,19.350000,30.797,0.56831205,-0.00977779,-0.02882317,-0.82224998
'00:16:05.814,0.059082,0.029785,1.003418,0.304878,1.341463,-0.548781,-4.781250,17.512501,19.306250,30.842,0.56831624,-0.00977891,-0.02882509,-0.82224701
'00:16:05.824,0.058105,0.029297,1.001465,0.365854,1.402439,-0.548781,-4.781250,17.512501,19.306250,30.842,0.56832352,-0.00977025,-0.02882378,-0.82224212
'00:16:05.834,0.058594,0.029297,1.002441,0.304878,1.341463,-0.609756,-4.800000,17.525000,19.287500,30.842,0.56832528,-0.00977042,-0.02882158,-0.82224098
'00:16:05.845,0.059082,0.029785,1.003418,0.304878,1.280488,-0.548781,-4.800000,17.525000,19.287500,30.812,0.56833172,-0.00977622,-0.02882717,-0.82223627
'00:16:05.854,0.060059,0.029785,1.003906,0.304878,1.341463,-0.548781,-5.031250,17.881250,19.556250,30.812,0.56832933,-0.00977419,-0.02882322,-0.82223808
'00:16:05.865,0.059082,0.028809,1.004883,0.304878,1.280488,-0.548781,-5.031250,17.881250,19.556250,30.797,0.56832654,-0.00977464,-0.02881133,-0.82224042
'00:16:05.874,0.060059,0.029297,1.005859,0.365854,1.280488,-0.548781,-4.993750,17.768751,19.512501,30.812,0.56832428,-0.00977572,-0.02881136,-0.82224197
'00:16:05.886,0.060547,0.029785,1.003906,0.426829,1.402439,-0.548781,-4.993750,17.768751,19.512501,30.812,0.56832154,-0.00976446,-0.02881583,-0.82224384
'00:16:05.894,0.059570,0.030273,1.002930,0.365854,1.341463,-0.548781,-4.843750,17.556250,19.375000,30.812,0.56832417,-0.00976195,-0.02882264,-0.82224181
'00:16:05.904,0.059570,0.030762,1.003418,0.304878,1.341463,-0.548781,-4.843750,17.556250,19.375000,30.842,0.56832729,-0.00975982,-0.02882924,-0.82223945
'00:16:05.914,0.059570,0.029785,1.002930,0.304878,1.341463,-0.548781,-4.775000,17.525000,19.381250,30.812,0.56833463,-0.00976550,-0.02883503,-0.82223410
'00:16:05.926,0.059082,0.031250,1.003418,0.304878,1.341463,-0.548781,-4.775000,17.525000,19.381250,30.782,0.56834303,-0.00976181,-0.02884934,-0.82222784
'00:16:05.934,0.058594,0.029785,1.004883,0.304878,1.341463,-0.548781,-4.825000,17.587500,19.337500,30.842,0.56834742,-0.00975972,-0.02884816,-0.82222488
'00:16:05.944,0.060547,0.028809,1.003906,0.304878,1.341463,-0.548781,-4.825000,17.587500,19.337500,30.797,0.56835300,-0.00977195,-0.02884908,-0.82222084
'00:16:05.954,0.060547,0.028809,1.003906,0.304878,1.341463,-0.548781,-5.068750,17.906250,19.568750,30.797,0.56834846,-0.00977425,-0.02883848,-0.82222432
'00:16:05.967,0.059082,0.029297,1.003418,0.365854,1.341463,-0.548781,-4.981250,17.837500,19.531250,30.812,0.56834836,-0.00976597,-0.02883364,-0.82222466
'00:16:05.974,0.061035,0.030273,1.003418,0.304878,1.402439,-0.548781,-4.981250,17.837500,19.531250,30.827,0.56834821,-0.00976548,-0.02883496,-0.82222472
'00:16:05.984,0.060059,0.029297,1.002441,0.304878,1.280488,-0.609756,-4.981250,17.837500,19.531250,30.797,0.56834354,-0.00977205,-0.02883413,-0.82222790
'00:16:05.994,0.059570,0.030762,1.002930,0.304878,1.341463,-0.609756,-4.793750,17.531250,19.312500,30.797,0.56834534,-0.00977219,-0.02884418,-0.82222630
'00:16:06.004,0.061035,0.029297,1.001465,0.304878,1.341463,-0.548781,-4.793750,17.531250,19.312500,30.827,0.56835172,-0.00978667,-0.02885193,-0.82222145
'00:16:06.014,0.060059,0.030273,1.004395,0.304878,1.280488,-0.548781,-4.781250,17.493750,19.293751,30.842,0.56835781,-0.00979559,-0.02886326,-0.82221674
'00:16:06.024,0.060547,0.029297,1.004883,0.426829,1.402439,-0.609756,-4.781250,17.493750,19.293751,30.782,0.56836007,-0.00979585,-0.02887326,-0.82221482
'00:16:06.034,0.058594,0.029297,1.004883,0.304878,1.341463,-0.548781,-4.793750,17.450001,19.318750,30.842,0.56836447,-0.00979450,-0.02886764,-0.82221199
'00:16:06.045,0.059082,0.028809,1.004395,0.304878,1.341463,-0.609756,-5.037500,17.743750,19.431250,30.873,0.56835333,-0.00978671,-0.02884794,-0.82222048
'00:16:06.054,0.059570,0.029297,1.002441,0.365854,1.341463,-0.548781,-5.037500,17.743750,19.431250,30.812,0.56834814,-0.00977900,-0.02884084,-0.82222440
'00:16:06.064,0.059570,0.028809,1.003418,0.304878,1.280488,-0.548781,-5.050000,17.862501,19.575001,30.842,0.56834370,-0.00978092,-0.02883018,-0.82222782
'00:16:06.074,0.058594,0.029785,1.003418,0.365854,1.341463,-0.548781,-5.050000,17.862501,19.575001,30.812,0.56833931,-0.00976633,-0.02882278,-0.82223129
'00:16:06.084,0.060547,0.029297,1.003418,0.365854,1.341463,-0.548781,-4.868750,17.518751,19.325001,30.812,0.56834029,-0.00977002,-0.02882641,-0.82223044
'00:16:06.094,0.059570,0.028320,1.004883,0.304878,1.280488,-0.548781,-4.868750,17.518751,19.325001,30.827,0.56834129,-0.00977917,-0.02881878,-0.82222991
'00:16:06.104,0.059570,0.028809,1.004883,0.304878,1.341463,-0.609756,-4.862500,17.543751,19.343750,30.812,0.56833891,-0.00978253,-0.02881208,-0.82223175
'00:16:06.114,0.061035,0.029785,1.003418,0.365854,1.341463,-0.609756,-4.862500,17.543751,19.343750,30.797,0.56833634,-0.00978740,-0.02882160,-0.82223314
'00:16:06.124,0.060059,0.029785,1.002930,0.304878,1.341463,-0.548781,-4.825000,17.525000,19.437500,30.827,0.56833985,-0.00979242,-0.02882525,-0.82223052
'00:16:06.134,0.059570,0.029785,1.002930,0.365854,1.402439,-0.609756,-4.825000,17.525000,19.437500,30.812,0.56833920,-0.00978708,-0.02882832,-0.82223093
'00:16:06.144,0.060059,0.029297,1.002930,0.304878,1.341463,-0.487805,-4.956250,17.712500,19.468750,30.812,0.56834245,-0.00978881,-0.02882332,-0.82222884
'00:16:06.154,0.060059,0.029297,1.004395,0.304878,1.280488,-0.548781,-4.956250,17.712500,19.468750,30.842,0.56834118,-0.00979442,-0.02882089,-0.82222973
'00:16:06.165,0.059082,0.029785,1.003418,0.304878,1.341463,-0.548781,-5.150000,18.018751,19.693750,30.812,0.56833244,-0.00978079,-0.02880577,-0.82223646
'00:16:06.174,0.058594,0.029785,1.003906,0.365854,1.341463,-0.609756,-5.150000,18.018751,19.693750,30.812,0.56832149,-0.00976454,-0.02879581,-0.82224457
'00:16:06.184,0.060059,0.029297,1.003906,0.304878,1.341463,-0.609756,-5.006250,17.712500,19.443750,30.797,0.56831286,-0.00976314,-0.02878743,-0.82225085
'00:16:06.194,0.059570,0.030273,1.004395,0.365854,1.280488,-0.548781,-5.006250,17.712500,19.443750,30.842,0.56830837,-0.00975675,-0.02878995,-0.82225394
'00:16:06.204,0.060547,0.030762,1.002930,0.365854,1.341463,-0.609756,-4.837500,17.543751,19.268751,30.812,0.56830783,-0.00975704,-0.02880592,-0.82225375
'00:16:06.214,0.060059,0.029297,1.003418,0.304878,1.341463,-0.609756,-4.837500,17.543751,19.268751,30.827,0.56830754,-0.00976327,-0.02880693,-0.82225384
'00:16:06.224,0.061035,0.029297,1.003418,0.304878,1.402439,-0.609756,-4.825000,17.462500,19.287500,30.812,0.56830622,-0.00977014,-0.02880762,-0.82225465
'00:16:06.234,0.059570,0.029785,1.003418,0.365854,1.341463,-0.609756,-4.825000,17.462500,19.287500,30.812,0.56830473,-0.00976824,-0.02881281,-0.82225552
'00:16:06.244,0.060059,0.028320,1.004395,0.365854,1.341463,-0.548781,-4.837500,17.487501,19.381250,30.812,0.56830724,-0.00977463,-0.02881043,-0.82225379
'00:16:06.254,0.059082,0.030273,1.003418,0.365854,1.341463,-0.548781,-4.837500,17.487501,19.381250,30.812,0.56830936,-0.00976801,-0.02881579,-0.82225222
'00:16:06.264,0.058594,0.029297,1.002441,0.365854,1.341463,-0.548781,-5.075000,17.893751,19.525000,30.827,0.56830448,-0.00975470,-0.02880546,-0.82225611
'00:16:06.275,0.060059,0.029297,1.002930,0.365854,1.341463,-0.548781,-5.050000,17.925001,19.562500,30.812,0.56830162,-0.00975114,-0.02880300,-0.82225822
'00:16:06.284,0.059570,0.030273,1.004395,0.243902,1.341463,-0.548781,-5.050000,17.925001,19.562500,30.827,0.56829904,-0.00974767,-0.02879587,-0.82226029
'00:16:06.294,0.058594,0.030273,1.003418,0.365854,1.341463,-0.609756,-4.831250,17.531250,19.312500,30.767,0.56829868,-0.00973946,-0.02880142,-0.82226044
'00:16:06.304,0.058594,0.029785,1.003906,0.365854,1.341463,-0.548781,-4.831250,17.531250,19.312500,30.842,0.56830280,-0.00973335,-0.02880389,-0.82225758
'00:16:06.314,0.061035,0.028809,1.003418,0.304878,1.341463,-0.548781,-4.812500,17.468750,19.281250,30.842,0.56830691,-0.00974797,-0.02880605,-0.82225449
'00:16:06.324,0.060059,0.029297,1.002441,0.365854,1.341463,-0.609756,-4.812500,17.468750,19.281250,30.842,0.56830659,-0.00975209,-0.02881195,-0.82225445
'00:16:06.334,0.060547,0.030273,1.003418,0.304878,1.280488,-0.548781,-4.843750,17.531250,19.418751,30.782,0.56830894,-0.00976167,-0.02882212,-0.82225236
'00:16:06.344,0.060547,0.029297,1.004395,0.304878,1.341463,-0.609756,-4.843750,17.531250,19.418751,30.842,0.56830724,-0.00977019,-0.02882320,-0.82225340
'00:16:06.354,0.060059,0.029297,1.004883,0.304878,1.341463,-0.609756,-4.962500,17.768751,19.493750,30.812,0.56830270,-0.00977201,-0.02881858,-0.82225668
'00:16:06.364,0.060059,0.029297,1.003906,0.365854,1.402439,-0.548781,-4.962500,17.768751,19.493750,30.812,0.56830274,-0.00976679,-0.02881573,-0.82225681
'00:16:06.374,0.060059,0.029297,1.005371,0.304878,1.341463,-0.548781,-5.100000,17.912500,19.562500,30.842,0.56829644,-0.00976279,-0.02880397,-0.82226162
'00:16:06.384,0.059570,0.029297,1.004883,0.365854,1.341463,-0.548781,-5.100000,17.912500,19.562500,30.827,0.56829024,-0.00975332,-0.02879515,-0.82226633
'00:16:06.394,0.060059,0.029785,1.003418,0.304878,1.341463,-0.548781,-4.856250,17.593750,19.400000,30.767,0.56829365,-0.00975783,-0.02879855,-0.82226380
'00:16:06.405,0.060547,0.029785,1.003418,0.304878,1.341463,-0.548781,-4.856250,17.593750,19.400000,30.842,0.56829734,-0.00976567,-0.02880427,-0.82226096
'00:16:06.414,0.060547,0.029297,1.002930,0.304878,1.402439,-0.609756,-4.837500,17.531250,19.343750,30.827,0.56829666,-0.00976983,-0.02880394,-0.82226138
'00:16:06.424,0.059082,0.029785,1.002930,0.365854,1.280488,-0.548781,-4.837500,17.531250,19.343750,30.812,0.56829998,-0.00977024,-0.02881105,-0.82225884
'00:16:06.434,0.059082,0.029297,1.004395,0.365854,1.341463,-0.609756,-4.781250,17.556250,19.356251,30.782,0.56830365,-0.00977157,-0.02881669,-0.82225609
'00:16:06.444,0.059082,0.028809,1.004883,0.365854,1.341463,-0.548781,-4.781250,17.556250,19.356251,30.737,0.56831178,-0.00977484,-0.02881920,-0.82225034
'00:16:06.454,0.060059,0.030273,1.004883,0.304878,1.341463,-0.548781,-4.837500,17.481251,19.325001,30.842,0.56831387,-0.00977607,-0.02882319,-0.82224874
'00:16:06.464,0.059082,0.029785,1.003418,0.304878,1.402439,-0.548781,-4.837500,17.481251,19.325001,30.842,0.56831623,-0.00976973,-0.02881813,-0.82224736
'00:16:06.474,0.060059,0.029297,1.003418,0.304878,1.341463,-0.609756,-4.981250,17.775000,19.606251,30.827,0.56831007,-0.00977114,-0.02881257,-0.82225180
'00:16:06.484,0.060547,0.029785,1.002441,0.304878,1.341463,-0.609756,-4.981250,17.775000,19.606251,30.797,0.56830381,-0.00977354,-0.02881212,-0.82225611
'00:16:06.494,0.059082,0.030273,1.001953,0.365854,1.341463,-0.609756,-4.893750,17.618750,19.450001,30.827,0.56830050,-0.00976569,-0.02881673,-0.82225834
'00:16:06.504,0.060547,0.030273,1.003906,0.304878,1.341463,-0.548781,-4.893750,17.618750,19.450001,30.812,0.56830148,-0.00976882,-0.02882173,-0.82225745
'00:16:06.514,0.059570,0.030273,1.002441,0.365854,1.341463,-0.548781,-4.800000,17.500000,19.275000,30.797,0.56830694,-0.00976739,-0.02883271,-0.82225330
'00:16:06.524,0.060059,0.029297,1.003906,0.304878,1.341463,-0.548781,-4.800000,17.500000,19.275000,30.812,0.56831252,-0.00977521,-0.02883489,-0.82224928
