# FW/GUI: v9.6.1-multi17-dual (PyQt5)
# StartTime: 2026-04-03 16:28:13
# Slot: 13
# DeviceID: 13
# Label: EMG13
# IP: 192.168.137.206
# TCP: 3333
# DeviceFW: EMG_FW_v9.6_MULTI17_DUALCH_RUNTIMECFG_CHEN
# EMG column notes: EMG_t_s=seconds since this Start; sample_idx=device sample index (ADS frame index); fs=sample rate (SPS); gain=gain; flags=0x01(TEST) 0x02(SHORT) 0x04(RLD); emg_valid=1 valid / 0 invalid (spike-guard decision); ch1_raw_uV=raw uV (after spike guard); ch1_filt_uV=filtered uV; ch1_env_uV=envelope (RMS) uV
EMG_t_s,sample_idx,fs,gain,flags,emg_valid,ch1_raw_uV,ch1_filt_uV,ch1_env_uV,ch2_raw_uV,ch2_filt_uV,ch2_env_uV
0.000000,1147371,1000.00,12,0,1,1317.798,0.113,1.950,1111.100,-0.392,1.104
0.001000,1147372,1000.00,12,0,1,1317.942,-0.644,1.952,1110.572,-0.208,1.103
0.002000,1147373,1000.00,12,0,1,1319.696,-0.033,1.947,1111.893,0.252,1.086
0.003000,1147374,1000.00,12,0,1,1320.969,1.316,1.897,1111.821,0.888,1.091
0.004000,1147375,1000.00,12,0,1,1320.392,0.726,1.873,1113.574,1.476,1.064
0.005000,1147376,1000.00,12,0,1,1322.746,2.775,1.908,1112.253,1.089,1.053
0.006000,1147377,1000.00,12,0,1,1319.672,1.810,1.920,1110.788,-1.196,1.032
0.007000,1147378,1000.00,12,0,1,1314.411,-2.805,1.951,1110.187,-1.278,1.034
0.008000,1147379,1000.00,12,0,1,1312.249,-3.039,1.946,1110.500,-1.033,1.030
0.009000,1147380,1000.00,12,0,1,1313.715,-0.263,1.923,1112.325,0.653,1.029
0.010000,1147381,1000.00,12,0,1,1311.745,0.281,1.914,1113.935,2.273,1.053
0.011000,1147382,1000.00,12,0,1,1312.369,0.730,1.881,1111.461,0.073,1.033
0.012000,1147383,1000.00,12,0,1,1311.889,1.899,1.844,1108.842,-2.662,1.095
0.013000,1147384,1000.00,12,0,1,1310.976,0.440,1.841,1111.629,-0.486,1.067
0.014000,1147385,1000.00,12,0,1,1311.913,1.062,1.847,1112.782,1.593,1.080
0.015000,1147386,1000.00,12,0,1,1312.369,0.888,1.793,1110.139,-1.193,1.090
0.016000,1147387,1000.00,12,0,1,1316.333,2.493,1.725,1110.980,-0.873,1.097
0.017000,1147388,1000.00,12,0,1,1316.909,2.635,1.739,1110.476,-0.490,1.067
0.018000,1147389,1000.00,12,0,1,1318.110,0.629,1.740,1112.181,0.166,1.047
0.019000,1147390,1000.00,12,0,1,1321.641,2.649,1.779,1111.941,0.932,1.055
0.020000,1147391,1000.00,12,0,1,1321.353,0.914,1.782,1110.283,-1.275,1.066
0.021000,1147392,1000.00,12,0,1,1322.290,-0.204,1.777,1112.181,0.299,1.065
0.022000,1147393,1000.00,12,0,1,1322.698,-0.064,1.765,1112.926,1.457,1.074
0.023000,1147394,1000.00,12,0,1,1323.443,-0.338,1.747,1111.533,-0.177,1.069
0.024000,1147395,1000.00,12,0,1,1322.458,-0.475,1.726,1111.845,-0.105,1.069
0.025000,1147396,1000.00,12,0,1,1320.921,-1.764,1.741,1111.340,-0.247,1.063
0.026000,1147397,1000.00,12,0,1,1321.689,-0.089,1.712,1110.308,-1.252,1.068
0.027000,1147398,1000.00,12,0,1,1316.717,-2.294,1.710,1112.253,0.295,1.066
0.028000,1147399,1000.00,12,0,1,1312.778,-5.347,1.865,1112.397,1.127,1.054
0.029000,1147400,1000.00,12,0,1,1312.682,-2.980,1.912,1112.349,0.398,1.056
0.030000,1147401,1000.00,12,0,1,1311.144,-2.389,1.940,1111.629,0.180,1.054
0.031000,1147402,1000.00,12,0,1,1311.553,-1.072,1.919,1112.013,-0.040,1.033
0.032000,1147403,1000.00,12,0,1,1313.186,1.545,1.929,1112.469,0.740,1.036
0.033000,1147404,1000.00,12,0,1,1313.186,1.689,1.940,1110.620,-0.897,1.044
0.034000,1147405,1000.00,12,0,1,1313.162,1.091,1.944,1111.653,-0.548,1.046
0.035000,1147406,1000.00,12,0,1,1314.195,1.090,1.943,1111.172,-0.049,1.045
0.036000,1147407,1000.00,12,0,1,1316.453,1.821,1.948,1112.061,-0.175,1.011
0.037000,1147408,1000.00,12,0,1,1319.143,2.673,1.957,1111.701,0.388,0.948
0.038000,1147409,1000.00,12,0,1,1322.122,3.382,1.972,1111.028,-0.919,0.936
0.039000,1147410,1000.00,12,0,1,1325.148,4.060,2.054,1110.452,-0.968,0.933
0.040000,1147411,1000.00,12,0,1,1324.500,1.966,2.068,1112.325,0.238,0.929
0.041000,1147412,1000.00,12,0,1,1321.257,-2.562,1.994,1112.830,1.302,0.932
0.042000,1147413,1000.00,12,0,1,1318.711,-5.367,2.079,1111.749,-0.088,0.932
0.043000,1147414,1000.00,12,0,1,1318.543,-5.212,2.205,1111.052,-0.776,0.930
0.044000,1147415,1000.00,12,0,1,1318.687,-3.768,2.267,1111.893,-0.056,0.921
0.045000,1147416,1000.00,12,0,1,1317.726,-3.208,2.308,1111.268,-0.261,0.921
0.046000,1147417,1000.00,12,0,1,1315.300,-3.572,2.344,1110.067,-1.394,0.934
0.047000,1147418,1000.00,12,0,1,1313.546,-3.402,2.353,1110.380,-1.060,0.946
0.048000,1147419,1000.00,12,0,1,1313.282,-1.580,2.348,1110.740,-0.253,0.939
0.049000,1147420,1000.00,12,0,1,1311.841,-0.739,2.349,1111.028,-0.049,0.933
0.050000,1147421,1000.00,12,0,1,1310.664,-0.553,2.351,1110.091,-0.438,0.934
0.051000,1147422,1000.00,12,0,1,1311.505,1.324,2.356,1112.758,1.196,0.949
0.052000,1147423,1000.00,12,0,1,1309.991,1.028,2.361,1110.956,0.929,0.957
0.053000,1147424,1000.00,12,0,1,1309.799,0.344,2.354,1109.827,-1.479,0.972
0.054000,1147425,1000.00,12,0,1,1309.631,0.493,2.353,1110.211,-0.236,0.949
0.055000,1147426,1000.00,12,0,1,1311.793,1.087,2.325,1110.139,-0.496,0.939
0.056000,1147427,1000.00,12,0,1,1312.514,1.462,2.320,1111.220,0.500,0.927
0.057000,1147428,1000.00,12,0,1,1314.075,0.785,2.288,1112.638,1.831,0.945
0.058000,1147429,1000.00,12,0,1,1317.750,2.807,2.282,1111.509,0.784,0.940
0.059000,1147430,1000.00,12,0,1,1318.086,1.978,2.299,1110.548,-0.468,0.938
0.060000,1147431,1000.00,12,0,1,1320.921,2.074,2.318,1111.629,0.323,0.883
0.061000,1147432,1000.00,12,0,1,1322.410,3.219,2.360,1111.004,0.240,0.883
0.062000,1147433,1000.00,12,0,1,1322.146,1.391,2.352,1110.812,-0.514,0.802
0.063000,1147434,1000.00,12,0,1,1320.801,0.287,2.352,1111.052,0.137,0.799
0.064000,1147435,1000.00,12,0,1,1320.560,-0.243,2.347,1113.382,1.637,0.801
0.065000,1147436,1000.00,12,0,1,1319.263,-0.124,2.344,1111.412,0.803,0.791
0.066000,1147437,1000.00,12,0,1,1318.351,-0.320,2.318,1108.962,-2.376,0.851
0.067000,1147438,1000.00,12,0,1,1315.348,-1.069,2.293,1110.476,-0.708,0.854
0.068000,1147439,1000.00,12,0,1,1312.538,-2.494,2.318,1110.139,-0.283,0.855
0.069000,1147440,1000.00,12,0,1,1313.042,-0.521,2.289,1109.995,-0.810,0.852
0.070000,1147441,1000.00,12,0,1,1312.369,0.741,2.287,1111.052,0.565,0.837
0.071000,1147442,1000.00,12,0,1,1312.946,1.397,2.296,1111.028,0.536,0.839
0.072000,1147443,1000.00,12,0,1,1312.345,1.907,2.312,1109.971,-0.324,0.815
0.073000,1147444,1000.00,12,0,1,1315.876,3.545,2.365,1111.052,0.230,0.815
0.074000,1147445,1000.00,12,0,1,1317.174,5.076,2.470,1112.469,1.814,0.854
0.075000,1147446,1000.00,12,0,1,1315.348,1.208,2.464,1110.692,0.208,0.854
0.076000,1147447,1000.00,12,0,1,1312.922,-2.136,2.482,1111.965,0.441,0.838
0.077000,1147448,1000.00,12,0,1,1314.940,-2.354,2.483,1113.791,2.533,0.910
0.078000,1147449,1000.00,12,0,1,1319.528,0.905,2.369,1110.932,-0.148,0.896
0.079000,1147450,1000.00,12,0,1,1320.368,0.665,2.333,1110.620,-1.324,0.914
0.080000,1147451,1000.00,12,0,1,1322.650,0.477,2.309,1110.620,-0.555,0.917
0.081000,1147452,1000.00,12,0,1,1323.035,0.732,2.307,1111.340,-0.400,0.919
0.082000,1147453,1000.00,12,0,1,1322.098,-1.469,2.306,1111.196,0.080,0.913
0.083000,1147454,1000.00,12,0,1,1324.188,0.315,2.294,1110.740,-0.673,0.909
0.084000,1147455,1000.00,12,0,1,1322.386,-0.301,2.289,1111.268,-0.045,0.906
0.085000,1147456,1000.00,12,0,1,1317.774,-3.993,2.352,1111.148,0.041,0.906
0.086000,1147457,1000.00,12,0,1,1318.158,-2.725,2.370,1110.476,-0.613,0.909
0.087000,1147458,1000.00,12,0,1,1316.189,-1.732,2.352,1110.332,-0.614,0.912
0.088000,1147459,1000.00,12,0,1,1315.348,-1.781,2.317,1110.235,-0.565,0.906
0.089000,1147460,1000.00,12,0,1,1313.186,-1.125,2.250,1109.827,-0.703,0.901
0.090000,1147461,1000.00,12,0,1,1313.066,-0.847,2.236,1110.380,-0.283,0.902
0.091000,1147462,1000.00,12,0,1,1313.739,1.384,2.215,1111.749,1.107,0.896
0.092000,1147463,1000.00,12,0,1,1315.876,3.030,2.125,1113.670,2.539,0.965
0.093000,1147464,1000.00,12,0,1,1317.029,4.122,2.076,1112.373,1.570,0.985
0.094000,1147465,1000.00,12,0,1,1316.789,2.687,2.043,1111.052,-0.487,0.987
0.095000,1147466,1000.00,12,0,1,1315.204,0.070,1.992,1111.533,0.001,0.986
0.096000,1147467,1000.00,12,0,1,1316.213,-0.774,1.929,1110.019,-1.072,0.978
0.097000,1147468,1000.00,12,0,1,1313.570,-3.455,1.931,1110.067,-1.494,0.989
0.098000,1147469,1000.00,12,0,1,1317.029,-2.953,1.963,1109.755,-1.005,0.999
0.099000,1147470,1000.00,12,0,1,1320.080,0.347,1.961,1110.668,-0.622,1.003
0.100000,1147471,1000.00,12,0,1,1321.761,-0.003,1.960,1112.613,1.539,1.024
0.101000,1147472,1000.00,12,0,1,1322.050,-0.008,1.951,1112.373,1.295,1.027
0.102000,1147473,1000.00,12,0,1,1323.035,-0.054,1.945,1113.334,1.502,1.040
0.103000,1147474,1000.00,12,0,1,1322.866,0.150,1.945,1111.821,0.653,1.023
0.104000,1147475,1000.00,12,0,1,1321.041,-1.082,1.950,1111.653,-0.500,1.025
0.105000,1147476,1000.00,12,0,1,1319.071,-2.084,1.966,1113.983,1.884,1.057
0.106000,1147477,1000.00,12,0,1,1318.759,-0.993,1.960,1112.445,0.737,1.059
0.107000,1147478,1000.00,12,0,1,1318.375,0.190,1.957,1111.605,-0.827,1.034
0.108000,1147479,1000.00,12,0,1,1316.837,0.418,1.917,1112.950,0.610,1.032
0.109000,1147480,1000.00,12,0,1,1316.333,0.828,1.900,1110.692,-1.004,1.039
0.110000,1147481,1000.00,12,0,1,1312.033,-1.035,1.883,1111.148,-1.400,1.057
0.111000,1147482,1000.00,12,0,1,1312.562,-1.163,1.835,1112.085,0.300,1.057
0.112000,1147483,1000.00,12,0,1,1312.706,1.008,1.830,1113.983,1.325,1.071
0.113000,1147484,1000.00,12,0,1,1312.706,0.020,1.829,1114.151,1.909,1.105
0.114000,1147485,1000.00,12,0,1,1313.835,1.079,1.835,1111.965,-0.587,1.083
0.115000,1147486,1000.00,12,0,1,1316.525,2.132,1.860,1111.316,-1.486,1.098
0.116000,1147487,1000.00,12,0,1,1314.555,-0.030,1.859,1111.893,-0.731,1.050
0.117000,1147488,1000.00,12,0,1,1315.516,-1.724,1.869,1112.397,-0.304,1.046
0.118000,1147489,1000.00,12,0,1,1314.964,-2.155,1.861,1112.541,-0.045,1.045
0.119000,1147490,1000.00,12,0,1,1315.852,-3.236,1.915,1113.022,0.131,1.039
0.120000,1147491,1000.00,12,0,1,1318.879,-0.734,1.915,1111.821,-0.587,1.039
0.121000,1147492,1000.00,12,0,1,1319.456,-0.401,1.905,1112.133,-0.885,1.044
0.122000,1147493,1000.00,12,0,1,1320.873,0.008,1.886,1113.334,0.641,1.047
0.123000,1147494,1000.00,12,0,1,1323.323,2.647,1.856,1110.956,-1.216,1.061
0.124000,1147495,1000.00,12,0,1,1323.179,2.658,1.753,1110.428,-2.198,1.075
0.125000,1147496,1000.00,12,0,1,1320.488,0.911,1.749,1111.340,-0.656,1.079
0.126000,1147497,1000.00,12,0,1,1315.973,-2.245,1.752,1110.620,-1.059,1.087
0.127000,1147498,1000.00,12,0,1,1315.684,-1.561,1.734,1110.524,-1.092,1.038
0.128000,1147499,1000.00,12,0,1,1316.765,1.471,1.742,1110.332,-0.816,1.044
0.129000,1147500,1000.00,12,0,1,1315.612,1.725,1.756,1109.899,-1.079,1.039
0.130000,1147501,1000.00,12,0,1,1312.586,0.008,1.755,1109.995,-0.736,1.041
0.131000,1147502,1000.00,12,0,1,1310.400,-1.358,1.762,1110.764,0.086,1.039
0.132000,1147503,1000.00,12,0,1,1307.805,-2.711,1.792,1112.253,1.448,1.059
0.133000,1147504,1000.00,12,0,1,1307.733,-2.775,1.833,1113.382,2.390,1.108
0.134000,1147505,1000.00,12,0,1,1311.264,0.472,1.834,1113.983,2.532,1.164
0.135000,1147506,1000.00,12,0,1,1315.852,3.950,1.832,1112.806,1.305,1.179
0.136000,1147507,1000.00,12,0,1,1317.150,3.998,1.878,1112.926,0.657,1.179
0.137000,1147508,1000.00,12,0,1,1317.750,2.294,1.890,1110.932,-0.593,1.179
0.138000,1147509,1000.00,12,0,1,1318.783,1.532,1.886,1111.533,-0.988,1.185
0.139000,1147510,1000.00,12,0,1,1318.687,-0.024,1.879,1112.902,1.006,1.189
0.140000,1147511,1000.00,12,0,1,1321.089,0.364,1.876,1111.917,-0.024,1.188
0.141000,1147512,1000.00,12,0,1,1321.377,0.542,1.868,1112.686,0.257,1.178
0.142000,1147513,1000.00,12,0,1,1321.858,-0.334,1.818,1113.550,1.377,1.139
0.143000,1147514,1000.00,12,0,1,1322.290,0.535,1.724,1113.742,1.126,1.129
0.144000,1147515,1000.00,12,0,1,1319.456,-1.555,1.696,1113.094,0.638,1.130
0.145000,1147516,1000.00,12,0,1,1319.311,-1.408,1.708,1111.172,-1.252,1.144
0.146000,1147517,1000.00,12,0,1,1319.456,0.590,1.706,1110.019,-2.230,1.177
0.147000,1147518,1000.00,12,0,1,1317.678,0.079,1.635,1110.380,-1.660,1.181
0.148000,1147519,1000.00,12,0,1,1316.189,0.049,1.580,1112.734,0.566,1.176
0.149000,1147520,1000.00,12,0,1,1314.363,-0.241,1.580,1112.445,0.883,1.179
0.150000,1147521,1000.00,12,0,1,1312.273,-1.019,1.587,1111.893,-0.248,1.159
0.151000,1147522,1000.00,12,0,1,1311.024,-1.280,1.597,1113.094,0.860,1.151
0.152000,1147523,1000.00,12,0,1,1311.865,-0.117,1.597,1111.340,-0.378,1.133
0.153000,1147524,1000.00,12,0,1,1312.586,0.845,1.601,1108.698,-3.081,1.210
0.154000,1147525,1000.00,12,0,1,1315.156,2.113,1.622,1111.004,-1.143,1.219
0.155000,1147526,1000.00,12,0,1,1316.669,2.876,1.646,1113.502,1.801,1.216
0.156000,1147527,1000.00,12,0,1,1317.390,1.581,1.655,1111.749,0.284,1.212
0.157000,1147528,1000.00,12,0,1,1318.663,1.123,1.662,1110.572,-1.321,1.221
0.158000,1147529,1000.00,12,0,1,1322.890,2.730,1.706,1114.055,1.588,1.239
0.159000,1147530,1000.00,12,0,1,1322.722,1.811,1.721,1111.052,0.133,1.230
0.160000,1147531,1000.00,12,0,1,1322.939,-0.537,1.716,1111.749,-1.098,1.224
0.161000,1147532,1000.00,12,0,1,1322.963,-0.750,1.712,1112.974,1.502,1.242
0.162000,1147533,1000.00,12,0,1,1322.434,-2.011,1.729,1111.797,-0.208,1.228
0.163000,1147534,1000.00,12,0,1,1323.035,-1.305,1.739,1114.223,1.621,1.220
0.164000,1147535,1000.00,12,0,1,1324.091,0.244,1.733,1114.223,2.284,1.259
0.165000,1147536,1000.00,12,0,1,1322.434,-0.213,1.706,1112.445,-0.170,1.242
0.166000,1147537,1000.00,12,0,1,1320.296,-1.275,1.716,1110.644,-1.399,1.253
0.167000,1147538,1000.00,12,0,1,1321.161,0.479,1.700,1111.004,-1.497,1.270
0.168000,1147539,1000.00,12,0,1,1320.296,1.615,1.688,1111.220,-0.458,1.272
0.169000,1147540,1000.00,12,0,1,1314.964,-2.094,1.651,1111.244,-0.686,1.275
0.170000,1147541,1000.00,12,0,1,1315.708,-1.325,1.659,1112.469,0.583,1.275
0.171000,1147542,1000.00,12,0,1,1310.904,-2.753,1.703,1112.469,0.727,1.273
0.172000,1147543,1000.00,12,0,1,1310.760,-4.340,1.810,1110.716,-0.941,1.277
0.173000,1147544,1000.00,12,0,1,1311.985,-1.042,1.777,1112.277,-0.051,1.265
0.174000,1147545,1000.00,12,0,1,1309.439,-3.818,1.819,1113.478,1.545,1.246
0.175000,1147546,1000.00,12,0,1,1306.989,-6.129,2.011,1113.454,1.020,1.251
0.176000,1147547,1000.00,12,0,1,1308.118,-5.505,2.133,1112.734,0.293,1.242
0.177000,1147548,1000.00,12,0,1,1313.474,-1.258,2.129,1111.388,-1.071,1.242
0.178000,1147549,1000.00,12,0,1,1320.825,4.637,2.218,1110.812,-1.656,1.259
0.179000,1147550,1000.00,12,0,1,1321.761,4.539,2.296,1112.373,-0.187,1.250
0.180000,1147551,1000.00,12,0,1,1319.600,0.612,2.297,1111.220,-0.563,1.248
0.181000,1147552,1000.00,12,0,1,1323.443,2.222,2.311,1110.740,-1.461,1.265
0.182000,1147553,1000.00,12,0,1,1326.277,5.101,2.390,1109.251,-1.907,1.277
0.183000,1147554,1000.00,12,0,1,1323.155,1.647,2.369,1111.268,-0.670,1.235
0.184000,1147555,1000.00,12,0,1,1321.689,-0.068,2.368,1109.082,-0.924,1.189
0.185000,1147556,1000.00,12,0,1,1322.098,1.222,2.308,1112.253,0.231,1.175
0.186000,1147557,1000.00,12,0,1,1320.945,1.360,2.246,1112.253,2.333,1.217
0.187000,1147558,1000.00,12,0,1,1316.813,-0.936,2.226,1109.611,-1.285,1.228
0.188000,1147559,1000.00,12,0,1,1310.736,-4.763,2.316,1110.332,-0.434,1.221
0.189000,1147560,1000.00,12,0,1,1304.250,-8.386,2.602,1110.908,0.544,1.215
0.190000,1147561,1000.00,12,0,1,1307.565,-4.297,2.671,1111.533,0.701,1.220
0.191000,1147562,1000.00,12,0,1,1307.013,-0.876,2.673,1110.740,0.536,1.221
0.192000,1147563,1000.00,12,0,1,1310.616,1.041,2.677,1113.622,1.847,1.234
0.193000,1147564,1000.00,12,0,1,1315.372,6.840,2.845,1113.622,2.998,1.295
0.194000,1147565,1000.00,12,0,1,1319.407,8.257,3.068,1112.830,0.701,1.295
0.195000,1147566,1000.00,12,0,1,1320.729,8.077,3.267,1112.205,0.591,1.286
0.196000,1147567,1000.00,12,0,1,1322.794,6.603,3.397,1111.797,-0.429,1.248
0.197000,1147568,1000.00,12,0,1,1324.692,5.947,3.500,1111.028,-0.778,1.231
0.198000,1147569,1000.00,12,0,1,1322.722,1.941,3.510,1110.620,-1.286,1.242
0.199000,1147570,1000.00,12,0,1,1321.593,-1.841,3.520,1111.989,-0.028,1.235
0.200000,1147571,1000.00,12,0,1,1322.939,-1.551,3.524,1113.310,1.446,1.252
0.201000,1147572,1000.00,12,0,1,1326.614,0.381,3.520,1112.950,0.956,1.253
0.202000,1147573,1000.00,12,0,1,1325.917,0.323,3.520,1111.533,-0.322,1.253
0.203000,1147574,1000.00,12,0,1,1325.461,-1.372,3.523,1110.908,-1.114,1.185
0.204000,1147575,1000.00,12,0,1,1320.681,-3.670,3.549,1111.869,-0.056,1.174
0.205000,1147576,1000.00,12,0,1,1317.870,-6.318,3.637,1112.085,0.349,1.147
0.206000,1147577,1000.00,12,0,1,1319.167,-2.636,3.649,1111.436,-0.251,1.147
0.207000,1147578,1000.00,12,0,1,1321.401,0.974,3.648,1111.461,-0.337,1.133
0.208000,1147579,1000.00,12,0,1,1320.873,2.297,3.642,1111.461,-0.156,1.110
0.209000,1147580,1000.00,12,0,1,1318.182,0.752,3.635,1110.452,-0.984,1.119
0.210000,1147581,1000.00,12,0,1,1316.741,-0.048,3.634,1111.388,-0.408,1.110
0.211000,1147582,1000.00,12,0,1,1317.366,1.157,3.636,1110.211,-0.735,1.094
0.212000,1147583,1000.00,12,0,1,1319.071,2.498,3.642,1109.803,-1.679,1.119
0.213000,1147584,1000.00,12,0,1,1322.866,5.072,3.707,1111.749,0.414,1.097
0.214000,1147585,1000.00,12,0,1,1323.875,4.923,3.772,1110.932,0.090,1.048
0.215000,1147586,1000.00,12,0,1,1324.692,3.146,3.798,1110.980,-0.491,1.050
0.216000,1147587,1000.00,12,0,1,1323.515,0.558,3.795,1112.205,0.954,1.040
0.217000,1147588,1000.00,12,0,1,1325.605,-0.448,3.795,1110.980,-0.071,1.019
0.218000,1147589,1000.00,12,0,1,1327.574,0.371,3.788,1111.557,-0.061,1.017
0.219000,1147590,1000.00,12,0,1,1325.485,-3.046,3.801,1113.646,2.022,1.052
0.220000,1147591,1000.00,12,0,1,1328.127,-2.652,3.815,1112.589,1.214,1.062
0.221000,1147592,1000.00,12,0,1,1328.367,-1.634,3.802,1111.629,-0.251,1.058
0.222000,1147593,1000.00,12,0,1,1328.463,-2.863,3.774,1113.190,1.098,1.061
0.223000,1147594,1000.00,12,0,1,1329.568,-0.889,3.773,1112.445,0.816,1.067
0.224000,1147595,1000.00,12,0,1,1327.983,-1.703,3.742,1111.653,-0.437,1.046
0.225000,1147596,1000.00,12,0,1,1327.935,-1.136,3.644,1114.079,1.602,1.061
0.226000,1147597,1000.00,12,0,1,1327.623,0.256,3.560,1111.725,0.289,1.061
0.227000,1147598,1000.00,12,0,1,1326.229,-0.008,3.555,1110.956,-1.613,1.074
0.228000,1147599,1000.00,12,0,1,1327.070,1.707,3.503,1111.893,0.043,1.049
0.229000,1147600,1000.00,12,0,1,1325.293,1.571,3.450,1111.773,-0.252,1.049
0.230000,1147601,1000.00,12,0,1,1315.204,-6.066,3.554,1112.061,-0.010,1.046
0.231000,1147602,1000.00,12,0,1,1310.664,-10.375,3.833,1111.941,-0.033,1.025
0.232000,1147603,1000.00,12,0,1,1311.721,-6.967,3.891,1111.509,-0.601,0.993
0.233000,1147604,1000.00,12,0,1,1316.357,-2.417,3.899,1113.310,0.760,0.994
0.234000,1147605,1000.00,12,0,1,1318.879,0.832,3.901,1113.791,1.409,1.005
0.235000,1147606,1000.00,12,0,1,1317.222,-1.549,3.903,1111.749,-0.673,1.009
0.236000,1147607,1000.00,12,0,1,1317.029,-2.995,3.921,1112.061,-0.956,0.963
0.237000,1147608,1000.00,12,0,1,1319.431,-1.589,3.925,1110.187,-1.721,0.977
0.238000,1147609,1000.00,12,0,1,1321.521,-0.588,3.868,1113.142,-0.305,0.976
0.239000,1147610,1000.00,12,0,1,1321.593,-1.190,3.686,1113.094,1.374,0.992
0.240000,1147611,1000.00,12,0,1,1324.764,0.174,3.635,1111.869,-0.993,0.997
0.241000,1147612,1000.00,12,0,1,1326.806,2.360,3.648,1113.406,0.743,1.000
0.242000,1147613,1000.00,12,0,1,1328.679,2.907,3.668,1111.749,-0.281,0.966
0.243000,1147614,1000.00,12,0,1,1328.319,3.197,3.567,1111.701,-1.080,0.881
0.244000,1147615,1000.00,12,0,1,1325.076,0.318,3.371,1111.388,-0.363,0.877
0.245000,1147616,1000.00,12,0,1,1325.413,0.970,3.175,1111.461,-0.832,0.881
0.246000,1147617,1000.00,12,0,1,1322.650,0.789,3.036,1112.902,0.951,0.889
0.247000,1147618,1000.00,12,0,1,1319.263,-1.668,2.927,1113.334,1.246,0.900
0.248000,1147619,1000.00,12,0,1,1317.774,-0.901,2.917,1113.070,0.887,0.890
0.249000,1147620,1000.00,12,0,1,1313.811,-2.524,2.927,1111.605,-0.443,0.892
0.250000,1147621,1000.00,12,0,1,1310.880,-3.905,2.971,1110.908,-1.329,0.888
0.251000,1147622,1000.00,12,0,1,1309.103,-3.663,3.015,1112.229,-0.056,0.878
0.252000,1147623,1000.00,12,0,1,1314.315,0.962,3.018,1111.268,-0.451,0.879
0.253000,1147624,1000.00,12,0,1,1315.756,4.014,3.065,1109.683,-2.140,0.916
0.254000,1147625,1000.00,12,0,1,1314.555,1.065,3.024,1111.292,-0.720,0.922
0.255000,1147626,1000.00,12,0,1,1315.900,1.376,2.896,1112.013,0.530,0.924
0.256000,1147627,1000.00,12,0,1,1318.951,2.556,2.894,1111.509,-0.192,0.923
0.257000,1147628,1000.00,12,0,1,1321.713,3.458,2.932,1109.707,-1.464,0.945
0.258000,1147629,1000.00,12,0,1,1327.118,5.839,3.029,1109.419,-1.969,0.985
0.259000,1147630,1000.00,12,0,1,1332.090,8.383,3.251,1112.830,1.254,0.991
0.260000,1147631,1000.00,12,0,1,1333.195,7.138,3.404,1113.574,2.531,1.052
0.261000,1147632,1000.00,12,0,1,1337.687,7.969,3.582,1111.340,0.068,1.047
0.262000,1147633,1000.00,12,0,1,1334.372,5.159,3.638,1111.629,-0.052,1.020
0.263000,1147634,1000.00,12,0,1,1330.409,-1.176,3.571,1111.773,0.536,1.021
0.264000,1147635,1000.00,12,0,1,1328.247,-1.879,3.512,1110.788,-0.439,1.023
0.265000,1147636,1000.00,12,0,1,1327.863,-2.033,3.496,1111.677,0.235,1.021
0.266000,1147637,1000.00,12,0,1,1325.437,-1.953,3.506,1112.541,1.325,1.029
0.267000,1147638,1000.00,12,0,1,1323.539,-2.740,3.527,1112.589,1.158,1.042
0.268000,1147639,1000.00,12,0,1,1321.569,-2.348,3.542,1114.391,2.347,1.094
0.269000,1147640,1000.00,12,0,1,1318.158,-3.736,3.555,1113.214,1.625,1.080
0.270000,1147641,1000.00,12,0,1,1316.741,-3.914,3.578,1110.548,-1.443,1.086
0.271000,1147642,1000.00,12,0,1,1318.567,-1.010,3.574,1110.572,-1.498,1.106
0.272000,1147643,1000.00,12,0,1,1319.023,0.056,3.551,1111.509,-0.342,1.096
0.273000,1147644,1000.00,12,0,1,1317.654,-1.342,3.553,1111.388,-0.322,1.091
0.274000,1147645,1000.00,12,0,1,1318.519,-1.680,3.553,1112.974,0.743,1.094
0.275000,1147646,1000.00,12,0,1,1321.545,0.258,3.550,1111.581,0.102,1.071
0.276000,1147647,1000.00,12,0,1,1323.539,0.652,3.551,1112.013,-0.528,1.072
0.277000,1147648,1000.00,12,0,1,1324.740,-0.009,3.551,1113.791,1.544,1.070
0.278000,1147649,1000.00,12,0,1,1324.524,-1.701,3.551,1112.638,0.427,1.072
0.279000,1147650,1000.00,12,0,1,1327.863,-0.722,3.545,1111.845,-0.781,1.077
0.280000,1147651,1000.00,12,0,1,1328.007,-0.532,3.441,1113.142,0.414,1.079
0.281000,1147652,1000.00,12,0,1,1327.334,-2.617,3.134,1111.749,-0.439,1.081
0.282000,1147653,1000.00,12,0,1,1328.415,-1.338,2.981,1110.908,-1.617,1.101
0.283000,1147654,1000.00,12,0,1,1329.232,-0.161,2.962,1112.830,0.264,1.097
0.284000,1147655,1000.00,12,0,1,1326.974,-0.993,2.963,1112.229,0.337,1.079
0.285000,1147656,1000.00,12,0,1,1327.671,0.087,2.955,1114.631,1.442,1.094
0.286000,1147657,1000.00,12,0,1,1328.079,2.545,2.946,1113.887,1.907,1.119
0.287000,1147658,1000.00,12,0,1,1322.290,-0.873,2.940,1112.421,-0.664,1.096
0.288000,1147659,1000.00,12,0,1,1320.560,-2.030,2.953,1110.139,-1.889,1.127
0.289000,1147660,1000.00,12,0,1,1319.047,-0.510,2.949,1109.419,-2.992,1.188
0.290000,1147661,1000.00,12,0,1,1316.741,-1.915,2.961,1112.181,-0.064,1.180
0.291000,1147662,1000.00,12,0,1,1318.711,0.741,2.944,1113.646,1.737,1.201
0.292000,1147663,1000.00,12,0,1,1320.897,3.254,2.952,1113.935,1.479,1.218
0.293000,1147664,1000.00,12,0,1,1319.888,1.937,2.930,1111.725,-0.205,1.209
0.294000,1147665,1000.00,12,0,1,1318.471,-0.553,2.930,1112.517,-0.590,1.211
0.295000,1147666,1000.00,12,0,1,1320.512,-0.234,2.927,1111.869,-0.071,1.205
0.296000,1147667,1000.00,12,0,1,1322.314,0.496,2.926,1113.022,-0.198,1.198
0.297000,1147668,1000.00,12,0,1,1323.203,-0.573,2.918,1113.334,0.999,1.193
0.298000,1147669,1000.00,12,0,1,1327.262,1.175,2.920,1109.251,-2.797,1.251
0.299000,1147670,1000.00,12,0,1,1328.511,1.488,2.905,1110.259,-2.562,1.301
0.300000,1147671,1000.00,12,0,1,1330.337,0.912,2.855,1112.301,0.535,1.289
0.301000,1147672,1000.00,12,0,1,1326.926,-1.682,2.818,1113.022,0.781,1.294
0.302000,1147673,1000.00,12,0,1,1326.878,-3.474,2.857,1112.782,0.915,1.299
0.303000,1147674,1000.00,12,0,1,1327.839,-0.738,2.802,1112.373,0.139,1.263
0.304000,1147675,1000.00,12,0,1,1326.974,-0.999,2.802,1111.941,-0.033,1.259
0.305000,1147676,1000.00,12,0,1,1325.965,-0.440,2.796,1111.461,-0.516,1.259
0.306000,1147677,1000.00,12,0,1,1322.650,-1.483,2.780,1113.791,1.301,1.272
0.307000,1147678,1000.00,12,0,1,1322.482,-0.711,2.739,1113.622,1.803,1.281
0.308000,1147679,1000.00,12,0,1,1324.116,3.079,2.647,1113.334,0.622,1.253
0.309000,1147680,1000.00,12,0,1,1322.218,2.560,2.394,1111.653,-0.314,1.242
0.310000,1147681,1000.00,12,0,1,1319.552,0.812,2.174,1113.382,0.183,1.189
0.311000,1147682,1000.00,12,0,1,1323.107,3.562,1.926,1112.181,0.369,1.190
0.312000,1147683,1000.00,12,0,1,1326.902,7.437,2.070,1111.557,-1.348,1.205
0.313000,1147684,1000.00,12,0,1,1324.236,3.940,2.137,1111.340,-0.728,1.207
0.314000,1147685,1000.00,12,0,1,1321.305,-0.772,2.123,1110.932,-1.322,1.220
0.315000,1147686,1000.00,12,0,1,1323.131,-0.779,2.107,1112.854,0.340,1.221
0.316000,1147687,1000.00,12,0,1,1323.155,-1.501,2.099,1112.229,0.474,1.208
0.317000,1147688,1000.00,12,0,1,1321.041,-5.016,2.182,1111.653,-0.854,1.203
0.318000,1147689,1000.00,12,0,1,1321.401,-5.859,2.310,1111.533,-0.372,1.158
0.319000,1147690,1000.00,12,0,1,1324.716,-3.460,2.301,1114.031,1.117,1.146
0.320000,1147691,1000.00,12,0,1,1326.085,-2.212,2.256,1112.373,0.773,1.132
0.321000,1147692,1000.00,12,0,1,1325.965,-2.709,2.283,1110.884,-1.782,1.141
0.322000,1147693,1000.00,12,0,1,1326.470,-2.046,2.302,1112.613,0.253,1.140
0.323000,1147694,1000.00,12,0,1,1325.389,-1.986,2.311,1113.550,1.222,1.152
0.324000,1147695,1000.00,12,0,1,1327.022,-0.150,2.299,1112.589,0.321,1.148
0.325000,1147696,1000.00,12,0,1,1322.890,-1.031,2.303,1114.055,1.117,1.159
0.326000,1147697,1000.00,12,0,1,1321.761,-2.167,2.322,1112.421,0.348,1.158
0.327000,1147698,1000.00,12,0,1,1320.320,-0.070,2.322,1112.325,-0.691,1.141
0.328000,1147699,1000.00,12,0,1,1319.167,-0.368,2.310,1113.502,0.906,1.147
0.329000,1147700,1000.00,12,0,1,1318.327,1.042,2.312,1114.271,1.328,1.157
0.330000,1147701,1000.00,12,0,1,1318.206,1.636,2.323,1113.766,0.863,1.162
0.331000,1147702,1000.00,12,0,1,1320.849,4.322,2.373,1112.325,-0.586,1.163
0.332000,1147703,1000.00,12,0,1,1322.458,5.969,2.511,1111.340,-1.617,1.163
0.333000,1147704,1000.00,12,0,1,1321.113,3.569,2.562,1111.917,-0.935,1.170
0.334000,1147705,1000.00,12,0,1,1319.672,1.002,2.562,1111.653,-0.858,1.175
0.335000,1147706,1000.00,12,0,1,1324.043,2.613,2.588,1113.262,0.273,1.158
0.336000,1147707,1000.00,12,0,1,1325.941,3.844,2.620,1110.740,-1.048,1.136
0.337000,1147708,1000.00,12,0,1,1322.674,-1.444,2.625,1112.373,-0.943,1.140
0.338000,1147709,1000.00,12,0,1,1324.764,-1.828,2.622,1113.286,1.256,1.122
0.339000,1147710,1000.00,12,0,1,1327.334,0.137,2.621,1110.187,-1.932,1.075
0.340000,1147711,1000.00,12,0,1,1326.974,-1.340,2.614,1112.373,-0.619,1.078
0.341000,1147712,1000.00,12,0,1,1325.965,-2.653,2.639,1112.085,0.543,1.053
0.342000,1147713,1000.00,12,0,1,1327.286,-1.733,2.610,1112.037,-0.676,1.036
0.343000,1147714,1000.00,12,0,1,1326.926,-0.874,2.598,1112.541,0.656,1.040
0.344000,1147715,1000.00,12,0,1,1326.806,-0.678,2.599,1112.301,-0.022,1.037
0.345000,1147716,1000.00,12,0,1,1323.611,-1.512,2.607,1112.301,0.218,1.037
0.346000,1147717,1000.00,12,0,1,1321.713,-2.523,2.631,1112.541,0.319,1.038
0.347000,1147718,1000.00,12,0,1,1321.689,-0.347,2.630,1113.406,1.045,1.038
0.348000,1147719,1000.00,12,0,1,1320.368,0.141,2.625,1112.734,0.671,0.965
0.349000,1147720,1000.00,12,0,1,1321.449,1.849,2.629,1112.469,-0.038,0.894
0.350000,1147721,1000.00,12,0,1,1320.008,2.253,2.646,1112.325,0.167,0.891
0.351000,1147722,1000.00,12,0,1,1318.327,0.258,2.635,1110.115,-1.689,0.916
0.352000,1147723,1000.00,12,0,1,1318.278,0.633,2.590,1112.205,-0.356,0.908
0.353000,1147724,1000.00,12,0,1,1317.774,-0.250,2.589,1113.334,1.645,0.937
0.354000,1147725,1000.00,12,0,1,1319.840,0.566,2.586,1112.133,0.060,0.937
0.355000,1147726,1000.00,12,0,1,1321.665,1.513,2.594,1109.467,-2.010,0.977
0.356000,1147727,1000.00,12,0,1,1323.011,0.931,2.589,1110.692,-1.489,0.982
0.357000,1147728,1000.00,12,0,1,1324.091,0.522,2.588,1113.502,1.731,0.980
0.358000,1147729,1000.00,12,0,1,1325.509,0.052,2.551,1114.175,2.196,1.024
0.359000,1147730,1000.00,12,0,1,1326.301,-0.278,2.526,1112.301,0.329,1.024
0.360000,1147731,1000.00,12,0,1,1328.175,0.072,2.523,1112.301,-0.278,1.024
0.361000,1147732,1000.00,12,0,1,1326.734,-1.050,2.477,1112.613,0.281,1.024
0.362000,1147733,1000.00,12,0,1,1327.767,-1.218,2.249,1114.247,1.289,1.022
0.363000,1147734,1000.00,12,0,1,1326.734,-0.555,2.180,1113.622,1.112,1.029
0.364000,1147735,1000.00,12,0,1,1327.046,-0.528,2.179,1112.421,-0.559,1.015
0.365000,1147736,1000.00,12,0,1,1324.620,-0.413,2.177,1111.797,-0.960,1.023
0.366000,1147737,1000.00,12,0,1,1324.116,-0.638,2.168,1113.502,0.338,1.022
0.367000,1147738,1000.00,12,0,1,1324.524,1.860,2.066,1114.535,1.633,1.041
0.368000,1147739,1000.00,12,0,1,1323.827,2.206,1.918,1113.430,0.488,1.042
0.369000,1147740,1000.00,12,0,1,1322.434,1.846,1.873,1114.295,0.661,1.034
0.370000,1147741,1000.00,12,0,1,1318.206,-0.835,1.850,1111.749,-0.727,1.033
0.371000,1147742,1000.00,12,0,1,1316.333,-2.780,1.852,1111.701,-1.936,1.039
0.372000,1147743,1000.00,12,0,1,1318.327,-0.232,1.830,1111.148,-1.054,1.049
0.373000,1147744,1000.00,12,0,1,1319.287,0.547,1.810,1112.902,-0.425,1.036
0.374000,1147745,1000.00,12,0,1,1319.864,0.274,1.810,1113.863,1.464,1.056
0.375000,1147746,1000.00,12,0,1,1322.362,1.110,1.811,1114.031,0.846,1.051
0.376000,1147747,1000.00,12,0,1,1323.155,0.905,1.789,1114.751,1.430,1.069
0.377000,1147748,1000.00,12,0,1,1324.476,-0.040,1.789,1112.950,-0.117,1.065
0.378000,1147749,1000.00,12,0,1,1327.719,1.507,1.801,1112.613,-1.216,1.071
0.379000,1147750,1000.00,12,0,1,1329.040,1.489,1.808,1112.517,-0.650,1.058
0.380000,1147751,1000.00,12,0,1,1331.082,1.587,1.807,1111.412,-1.883,1.084
0.381000,1147752,1000.00,12,0,1,1329.544,0.181,1.700,1111.581,-1.493,1.102
0.382000,1147753,1000.00,12,0,1,1328.295,-2.089,1.505,1110.067,-2.287,1.125
0.383000,1147754,1000.00,12,0,1,1326.614,-2.422,1.459,1112.613,-0.547,1.120
0.384000,1147755,1000.00,12,0,1,1324.524,-3.636,1.540,1112.830,0.978,1.122
0.385000,1147756,1000.00,12,0,1,1325.653,-1.299,1.507,1111.461,-0.960,1.129
0.386000,1147757,1000.00,12,0,1,1326.974,1.754,1.427,1112.277,-0.003,1.120
0.387000,1147758,1000.00,12,0,1,1324.548,1.061,1.420,1114.391,1.866,1.143
0.388000,1147759,1000.00,12,0,1,1322.770,0.230,1.397,1112.782,0.869,1.135
0.389000,1147760,1000.00,12,0,1,1321.834,0.682,1.400,1111.653,-0.845,1.108
0.390000,1147761,1000.00,12,0,1,1322.050,1.424,1.402,1111.340,-0.680,1.109
0.391000,1147762,1000.00,12,0,1,1318.447,-0.696,1.354,1111.340,-0.656,1.110
0.392000,1147763,1000.00,12,0,1,1316.501,-3.147,1.404,1111.701,-0.140,1.106
0.393000,1147764,1000.00,12,0,1,1316.117,-2.862,1.456,1110.908,-0.501,1.105
0.394000,1147765,1000.00,12,0,1,1319.960,-0.486,1.455,1110.428,-1.093,1.116
0.395000,1147766,1000.00,12,0,1,1323.875,2.827,1.493,1111.100,-0.175,1.115
0.396000,1147767,1000.00,12,0,1,1321.761,-0.183,1.450,1112.133,0.736,1.119
0.397000,1147768,1000.00,12,0,1,1322.698,-1.872,1.473,1113.190,1.696,1.135
0.398000,1147769,1000.00,12,0,1,1325.797,0.458,1.475,1112.541,1.050,1.141
0.399000,1147770,1000.00,12,0,1,1326.854,0.073,1.451,1112.085,0.216,1.141
0.400000,1147771,1000.00,12,0,1,1327.791,0.016,1.416,1112.277,0.371,1.142
0.401000,1147772,1000.00,12,0,1,1329.760,1.023,1.423,1113.502,1.195,1.130
0.402000,1147773,1000.00,12,0,1,1328.463,0.245,1.420,1112.589,0.663,1.132
0.403000,1147774,1000.00,12,0,1,1326.109,-2.013,1.448,1111.340,-0.943,1.116
0.404000,1147775,1000.00,12,0,1,1324.620,-2.212,1.479,1114.175,1.286,1.131
0.405000,1147776,1000.00,12,0,1,1325.365,-0.456,1.465,1113.574,1.575,1.117
0.406000,1147777,1000.00,12,0,1,1325.485,1.507,1.475,1114.391,0.969,1.106
0.407000,1147778,1000.00,12,0,1,1318.278,-2.770,1.524,1113.022,0.736,1.083
0.408000,1147779,1000.00,12,0,1,1310.952,-8.302,1.924,1111.509,-1.603,1.062
0.409000,1147780,1000.00,12,0,1,1312.946,-4.640,2.032,1114.247,0.958,1.070
0.410000,1147781,1000.00,12,0,1,1314.795,-0.047,2.032,1114.007,1.385,1.087
0.411000,1147782,1000.00,12,0,1,1314.363,0.225,2.027,1112.974,-0.355,1.087
0.412000,1147783,1000.00,12,0,1,1316.429,2.176,2.043,1111.436,-1.194,1.085
0.413000,1147784,1000.00,12,0,1,1318.134,3.648,2.106,1110.836,-2.137,1.115
0.414000,1147785,1000.00,12,0,1,1320.416,4.169,2.186,1111.941,-0.656,1.116
0.415000,1147786,1000.00,12,0,1,1318.591,1.887,2.201,1111.989,-0.385,1.109
0.416000,1147787,1000.00,12,0,1,1319.456,-0.151,2.199,1112.085,-0.401,1.110
0.417000,1147788,1000.00,12,0,1,1321.810,1.354,2.192,1113.022,0.446,1.087
0.418000,1147789,1000.00,12,0,1,1322.842,0.556,2.171,1112.974,0.454,1.087
0.419000,1147790,1000.00,12,0,1,1321.113,-1.698,2.169,1111.076,-1.232,1.097
0.420000,1147791,1000.00,12,0,1,1319.936,-3.768,2.230,1111.004,-1.641,1.117
0.421000,1147792,1000.00,12,0,1,1319.191,-3.987,2.266,1113.286,0.642,1.086
0.422000,1147793,1000.00,12,0,1,1322.746,-0.810,2.269,1112.974,0.736,1.081
0.423000,1147794,1000.00,12,0,1,1323.491,1.674,2.280,1111.701,-0.805,1.085
0.424000,1147795,1000.00,12,0,1,1323.371,1.634,2.291,1111.941,-0.553,1.068
0.425000,1147796,1000.00,12,0,1,1323.563,3.097,2.327,1110.139,-1.596,1.085
0.426000,1147797,1000.00,12,0,1,1324.836,4.854,2.423,1112.133,-0.485,1.068
0.427000,1147798,1000.00,12,0,1,1324.380,5.565,2.548,1112.758,1.312,1.084
0.428000,1147799,1000.00,12,0,1,1321.521,3.540,2.588,1110.187,-1.338,1.087
0.429000,1147800,1000.00,12,0,1,1317.318,0.311,2.580,1110.452,-1.196,1.096
0.430000,1147801,1000.00,12,0,1,1312.682,-2.976,2.604,1111.268,0.190,1.064
0.431000,1147802,1000.00,12,0,1,1309.919,-4.887,2.694,1112.301,0.925,1.051
0.432000,1147803,1000.00,12,0,1,1308.502,-4.977,2.769,1111.701,0.863,1.007
0.433000,1147804,1000.00,12,0,1,1310.496,-3.208,2.785,1110.716,-0.454,1.006
0.434000,1147805,1000.00,12,0,1,1312.634,-0.689,2.739,1113.430,1.735,1.027
0.435000,1147806,1000.00,12,0,1,1312.273,-1.715,2.743,1112.998,1.979,1.055
0.436000,1147807,1000.00,12,0,1,1314.483,-1.050,2.736,1113.526,1.214,1.069
0.437000,1147808,1000.00,12,0,1,1317.894,1.245,2.737,1112.806,1.162,1.049
0.438000,1147809,1000.00,12,0,1,1323.323,4.217,2.801,1111.412,-0.880,1.049
0.439000,1147810,1000.00,12,0,1,1327.574,6.847,2.963,1110.932,-1.094,1.054
0.440000,1147811,1000.00,12,0,1,1327.214,4.770,3.032,1111.412,-0.730,1.055
0.441000,1147812,1000.00,12,0,1,1328.535,3.860,3.079,1112.902,0.639,1.054
0.442000,1147813,1000.00,12,0,1,1327.815,3.148,3.079,1112.830,0.835,1.061
0.443000,1147814,1000.00,12,0,1,1325.413,0.217,3.052,1113.887,1.073,1.069
0.444000,1147815,1000.00,12,0,1,1324.884,0.185,3.052,1113.118,0.931,1.066
0.445000,1147816,1000.00,12,0,1,1322.170,-0.842,3.028,1111.701,-1.017,1.076
0.446000,1147817,1000.00,12,0,1,1320.993,-1.229,3.033,1111.869,-0.644,1.074
0.447000,1147818,1000.00,12,0,1,1320.512,0.346,3.021,1109.611,-2.121,1.089
0.448000,1147819,1000.00,12,0,1,1319.480,0.521,3.022,1112.638,-0.267,1.080
0.449000,1147820,1000.00,12,0,1,1319.576,1.636,3.030,1113.262,1.874,1.112
0.450000,1147821,1000.00,12,0,1,1319.888,2.581,3.052,1112.301,-0.079,1.110
0.451000,1147822,1000.00,12,0,1,1321.641,3.870,3.098,1112.013,0.102,1.098
0.452000,1147823,1000.00,12,0,1,1319.720,2.335,3.115,1111.557,-0.511,1.096
0.453000,1147824,1000.00,12,0,1,1315.396,-2.824,3.128,1112.301,0.106,1.088
0.454000,1147825,1000.00,12,0,1,1315.516,-3.799,3.158,1113.094,0.976,1.081
0.455000,1147826,1000.00,12,0,1,1315.876,-3.599,3.198,1112.830,0.528,1.061
0.456000,1147827,1000.00,12,0,1,1317.966,-3.211,3.223,1112.686,0.254,1.053
0.457000,1147828,1000.00,12,0,1,1320.032,-1.812,3.209,1112.109,-0.351,1.049
0.458000,1147829,1000.00,12,0,1,1322.122,-1.468,2.994,1111.605,-0.847,1.031
0.459000,1147830,1000.00,12,0,1,1323.683,-0.803,2.924,1111.533,-0.910,1.030
0.460000,1147831,1000.00,12,0,1,1324.788,-0.837,2.926,1109.899,-1.923,1.047
0.461000,1147832,1000.00,12,0,1,1324.091,-1.616,2.935,1109.923,-2.164,1.090
0.462000,1147833,1000.00,12,0,1,1320.993,-4.170,2.977,1112.157,0.320,1.078
0.463000,1147834,1000.00,12,0,1,1316.237,-7.351,3.111,1113.286,1.524,1.056
0.464000,1147835,1000.00,12,0,1,1311.913,-9.290,3.325,1112.638,0.860,1.059
0.465000,1147836,1000.00,12,0,1,1310.568,-8.013,3.503,1110.788,-0.838,1.065
0.466000,1147837,1000.00,12,0,1,1308.598,-6.189,3.611,1112.229,-0.021,1.063
0.467000,1147838,1000.00,12,0,1,1309.271,-3.419,3.638,1112.013,0.680,1.066
0.468000,1147839,1000.00,12,0,1,1311.361,1.441,3.643,1112.181,0.085,1.064
0.469000,1147840,1000.00,12,0,1,1312.874,4.204,3.683,1112.974,1.220,1.063
0.470000,1147841,1000.00,12,0,1,1314.844,6.700,3.766,1113.118,1.071,1.049
0.471000,1147842,1000.00,12,0,1,1320.416,10.960,4.033,1110.860,-0.687,1.049
0.472000,1147843,1000.00,12,0,1,1323.611,13.200,4.442,1109.995,-1.891,1.078
0.473000,1147844,1000.00,12,0,1,1323.515,10.539,4.680,1112.493,0.512,1.074
0.474000,1147845,1000.00,12,0,1,1326.109,9.712,4.872,1113.502,1.879,1.104
0.475000,1147846,1000.00,12,0,1,1325.965,7.572,4.969,1111.533,-0.146,1.081
0.476000,1147847,1000.00,12,0,1,1322.434,1.303,4.925,1112.109,-0.153,1.079
0.477000,1147848,1000.00,12,0,1,1318.230,-4.234,4.898,1112.349,0.507,1.065
0.478000,1147849,1000.00,12,0,1,1320.272,-4.505,4.914,1112.325,0.087,1.048
0.479000,1147850,1000.00,12,0,1,1323.035,-1.705,4.920,1112.301,0.161,1.035
0.480000,1147851,1000.00,12,0,1,1327.214,0.557,4.902,1111.292,-0.744,1.040
0.481000,1147852,1000.00,12,0,1,1331.778,4.460,4.894,1112.157,-0.315,1.033
0.482000,1147853,1000.00,12,0,1,1334.084,5.597,4.907,1112.253,0.309,1.026
0.483000,1147854,1000.00,12,0,1,1333.580,4.521,4.928,1111.292,-0.842,1.031
0.484000,1147855,1000.00,12,0,1,1329.688,0.936,4.929,1111.148,-0.832,1.008
0.485000,1147856,1000.00,12,0,1,1323.323,-4.350,4.961,1113.238,0.853,0.976
0.486000,1147857,1000.00,12,0,1,1322.746,-4.322,4.996,1112.493,0.846,0.968
0.487000,1147858,1000.00,12,0,1,1322.098,-2.357,5.004,1111.989,-0.371,0.956
0.488000,1147859,1000.00,12,0,1,1319.119,-3.794,4.998,1112.613,0.519,0.951
0.489000,1147860,1000.00,12,0,1,1318.110,-3.528,4.928,1114.439,1.776,0.971
0.490000,1147861,1000.00,12,0,1,1318.134,-2.146,4.891,1112.325,0.464,0.968
0.491000,1147862,1000.00,12,0,1,1315.564,-3.507,4.886,1112.013,-0.891,0.972
0.492000,1147863,1000.00,12,0,1,1318.038,-1.888,4.873,1109.923,-1.648,0.992
0.493000,1147864,1000.00,12,0,1,1317.822,-0.925,4.875,1109.659,-2.592,1.047
0.494000,1147865,1000.00,12,0,1,1318.951,-1.800,4.881,1113.166,1.066,1.049
0.495000,1147866,1000.00,12,0,1,1320.008,-0.852,4.881,1113.574,1.967,1.076
0.496000,1147867,1000.00,12,0,1,1322.482,-0.574,4.879,1112.325,0.144,1.072
0.497000,1147868,1000.00,12,0,1,1324.428,0.454,4.879,1111.388,-0.534,1.032
0.498000,1147869,1000.00,12,0,1,1325.653,-0.055,4.878,1112.613,0.031,1.032
0.499000,1147870,1000.00,12,0,1,1328.079,0.802,4.874,1112.421,0.542,1.000
0.500000,1147871,1000.00,12,0,1,1327.839,0.290,4.861,1113.815,0.826,1.007
0.501000,1147872,1000.00,12,0,1,1326.614,-1.821,4.837,1112.421,0.472,1.009
0.502000,1147873,1000.00,12,0,1,1325.869,-1.944,4.833,1113.911,0.362,1.007
0.503000,1147874,1000.00,12,0,1,1324.116,-2.835,4.833,1112.830,0.659,1.012
0.504000,1147875,1000.00,12,0,1,1323.923,-1.918,4.811,1113.142,-0.438,1.004
0.505000,1147876,1000.00,12,0,1,1324.548,0.214,4.784,1110.932,-1.152,1.014
0.506000,1147877,1000.00,12,0,1,1322.770,0.359,4.763,1111.941,-1.438,1.034
0.507000,1147878,1000.00,12,0,1,1319.960,-0.940,4.758,1111.821,-0.153,1.033
0.508000,1147879,1000.00,12,0,1,1315.492,-3.046,4.773,1112.469,-0.322,1.027
0.509000,1147880,1000.00,12,0,1,1314.747,-2.909,4.789,1112.229,0.175,1.019
0.510000,1147881,1000.00,12,0,1,1316.621,0.533,4.788,1112.229,-0.168,0.983
0.511000,1147882,1000.00,12,0,1,1319.888,3.628,4.810,1113.574,0.992,0.944
0.512000,1147883,1000.00,12,0,1,1321.425,5.080,4.828,1114.415,1.916,0.981
0.513000,1147884,1000.00,12,0,1,1319.239,2.119,4.724,1113.983,1.047,0.969
0.514000,1147885,1000.00,12,0,1,1314.579,-3.133,4.559,1112.277,-0.355,0.962
0.515000,1147886,1000.00,12,0,1,1316.885,-2.915,4.435,1112.782,-0.647,0.959
0.516000,1147887,1000.00,12,0,1,1318.711,-0.880,4.350,1111.965,-0.499,0.962
0.517000,1147888,1000.00,12,0,1,1322.818,0.575,4.324,1110.620,-2.240,1.008
0.518000,1147889,1000.00,12,0,1,1324.476,2.021,4.328,1112.734,-0.201,1.009
0.519000,1147890,1000.00,12,0,1,1324.524,0.129,4.287,1113.214,0.764,1.000
0.520000,1147891,1000.00,12,0,1,1325.485,0.359,4.182,1113.022,0.119,0.988
0.521000,1147892,1000.00,12,0,1,1326.325,0.752,3.885,1111.028,-1.197,0.998
0.522000,1147893,1000.00,12,0,1,1326.397,0.741,3.409,1112.517,-0.700,0.966
0.523000,1147894,1000.00,12,0,1,1326.325,1.122,3.070,1111.172,-0.509,0.966
0.524000,1147895,1000.00,12,0,1,1322.963,-0.840,2.748,1111.965,-0.998,0.940
0.525000,1147896,1000.00,12,0,1,1318.254,-3.878,2.590,1112.469,0.649,0.944
0.526000,1147897,1000.00,12,0,1,1319.672,-1.628,2.593,1110.668,-1.275,0.961
0.527000,1147898,1000.00,12,0,1,1319.624,1.279,2.530,1109.467,-2.149,1.005
0.528000,1147899,1000.00,12,0,1,1321.713,3.103,2.487,1111.989,0.096,1.005
0.529000,1147900,1000.00,12,0,1,1318.327,2.581,2.502,1111.100,0.310,1.006
0.530000,1147901,1000.00,12,0,1,1310.736,-4.584,2.584,1112.229,0.377,1.002
0.531000,1147902,1000.00,12,0,1,1309.439,-5.251,2.613,1112.638,1.566,1.025
0.532000,1147903,1000.00,12,0,1,1313.594,-0.684,2.492,1114.295,2.131,1.068
0.533000,1147904,1000.00,12,0,1,1317.222,2.716,2.439,1112.085,0.912,1.069
0.534000,1147905,1000.00,12,0,1,1319.143,3.496,2.486,1111.244,-1.021,1.072
0.535000,1147906,1000.00,12,0,1,1318.687,1.654,2.420,1111.605,-0.087,1.065
0.536000,1147907,1000.00,12,0,1,1320.969,1.540,2.351,1111.869,0.007,1.059
0.537000,1147908,1000.00,12,0,1,1324.524,3.358,2.375,1114.631,2.081,1.097
0.538000,1147909,1000.00,12,0,1,1323.275,1.068,2.319,1111.941,0.680,1.099
0.539000,1147910,1000.00,12,0,1,1321.641,-2.313,2.288,1110.668,-2.047,1.109
0.540000,1147911,1000.00,12,0,1,1323.443,-1.255,2.275,1112.493,0.491,1.109
0.541000,1147912,1000.00,12,0,1,1324.692,-0.040,2.220,1114.439,1.792,1.130
0.542000,1147913,1000.00,12,0,1,1325.749,0.828,2.207,1113.911,1.667,1.131
0.543000,1147914,1000.00,12,0,1,1324.956,0.876,2.207,1113.478,0.447,1.072
0.544000,1147915,1000.00,12,0,1,1321.665,-1.303,2.200,1113.863,0.834,1.068
0.545000,1147916,1000.00,12,0,1,1319.888,-1.928,2.213,1112.109,-0.631,1.035
0.546000,1147917,1000.00,12,0,1,1319.335,-0.622,2.214,1112.710,-0.754,1.040
0.547000,1147918,1000.00,12,0,1,1318.711,0.312,2.213,1113.430,0.583,1.040
0.548000,1147919,1000.00,12,0,1,1317.318,0.537,2.214,1113.935,0.503,1.043
0.549000,1147920,1000.00,12,0,1,1316.117,0.336,2.212,1112.854,-0.029,1.040
0.550000,1147921,1000.00,12,0,1,1314.267,-0.342,2.212,1111.292,-1.823,1.065
0.551000,1147922,1000.00,12,0,1,1313.859,-0.644,2.199,1111.485,-1.462,1.083
0.552000,1147923,1000.00,12,0,1,1314.219,-0.022,2.182,1111.268,-1.220,1.095
0.553000,1147924,1000.00,12,0,1,1315.997,0.828,2.148,1113.094,0.104,1.091
0.554000,1147925,1000.00,12,0,1,1315.684,0.212,2.131,1113.022,0.791,1.095
0.555000,1147926,1000.00,12,0,1,1317.798,0.100,2.131,1112.662,-0.244,1.084
0.556000,1147927,1000.00,12,0,1,1319.311,0.886,2.134,1113.022,0.342,1.066
0.557000,1147928,1000.00,12,0,1,1322.842,1.711,2.143,1111.557,-0.917,1.073
0.558000,1147929,1000.00,12,0,1,1324.164,2.274,2.124,1110.980,-1.655,1.098
0.559000,1147930,1000.00,12,0,1,1326.253,1.841,2.100,1112.013,-0.445,1.099
0.560000,1147931,1000.00,12,0,1,1328.727,3.356,2.152,1112.469,0.152,1.099
0.561000,1147932,1000.00,12,0,1,1329.760,3.252,2.140,1113.959,1.233,1.104
0.562000,1147933,1000.00,12,0,1,1328.175,1.481,2.026,1112.469,0.387,1.072
0.563000,1147934,1000.00,12,0,1,1322.266,-3.249,2.056,1112.349,-0.576,1.064
0.564000,1147935,1000.00,12,0,1,1318.158,-6.544,2.211,1112.061,-0.129,1.063
0.565000,1147936,1000.00,12,0,1,1318.038,-4.404,2.259,1111.749,-0.754,1.065
0.566000,1147937,1000.00,12,0,1,1316.045,-3.697,2.316,1111.893,-0.290,1.063
0.567000,1147938,1000.00,12,0,1,1315.660,-2.463,2.340,1111.605,-0.419,1.017
0.568000,1147939,1000.00,12,0,1,1314.964,-0.753,2.325,1111.629,-0.388,1.018
0.569000,1147940,1000.00,12,0,1,1315.252,0.365,2.326,1110.067,-1.239,1.027
0.570000,1147941,1000.00,12,0,1,1314.579,1.100,2.331,1110.932,-0.952,1.036
0.571000,1147942,1000.00,12,0,1,1309.631,-2.711,2.359,1111.076,0.187,1.022
0.572000,1147943,1000.00,12,0,1,1311.841,-1.865,2.372,1111.509,0.021,1.017
0.573000,1147944,1000.00,12,0,1,1312.393,0.206,2.367,1110.500,-0.148,1.015
0.574000,1147945,1000.00,12,0,1,1313.234,-1.072,2.369,1111.917,0.313,1.006
0.575000,1147946,1000.00,12,0,1,1315.276,0.588,2.306,1111.821,1.123,1.014
0.576000,1147947,1000.00,12,0,1,1317.750,1.029,2.299,1110.428,-0.698,1.003
0.577000,1147948,1000.00,12,0,1,1321.593,3.074,2.333,1114.439,2.312,1.010
0.578000,1147949,1000.00,12,0,1,1324.212,4.000,2.360,1113.382,2.548,1.073
0.579000,1147950,1000.00,12,0,1,1325.533,3.370,2.379,1110.259,-1.671,1.097
0.580000,1147951,1000.00,12,0,1,1325.461,2.318,2.313,1109.539,-1.822,1.126
0.581000,1147952,1000.00,12,0,1,1326.277,1.801,2.205,1111.244,-0.497,1.106
0.582000,1147953,1000.00,12,0,1,1324.812,1.009,2.208,1111.533,0.553,1.067
0.583000,1147954,1000.00,12,0,1,1324.548,0.258,2.174,1110.692,-0.493,1.062
0.584000,1147955,1000.00,12,0,1,1322.410,0.100,2.117,1110.956,-0.177,1.052
0.585000,1147956,1000.00,12,0,1,1322.482,0.268,2.105,1109.010,-1.316,1.068
0.586000,1147957,1000.00,12,0,1,1320.753,1.098,2.099,1109.971,-1.076,1.079
0.587000,1147958,1000.00,12,0,1,1323.419,3.205,2.094,1111.148,1.020,1.048
0.588000,1147959,1000.00,12,0,1,1321.017,3.694,2.153,1110.163,-0.085,1.044
0.589000,1147960,1000.00,12,0,1,1318.351,0.259,2.129,1111.533,0.913,1.011
0.590000,1147961,1000.00,12,0,1,1317.846,0.806,2.124,1112.974,2.437,1.066
0.591000,1147962,1000.00,12,0,1,1315.132,-1.393,2.133,1113.815,2.678,1.103
0.592000,1147963,1000.00,12,0,1,1312.033,-4.515,2.224,1113.382,2.133,1.119
0.593000,1147964,1000.00,12,0,1,1313.763,-3.365,2.271,1109.539,-1.429,1.135
0.594000,1147965,1000.00,12,0,1,1316.789,-0.934,2.267,1109.467,-2.271,1.174
0.595000,1147966,1000.00,12,0,1,1316.165,-1.966,2.268,1112.085,0.746,1.175
0.596000,1147967,1000.00,12,0,1,1316.429,-3.599,2.322,1112.998,1.575,1.191
0.597000,1147968,1000.00,12,0,1,1316.477,-3.755,2.382,1112.734,1.083,1.198
0.598000,1147969,1000.00,12,0,1,1318.519,-3.427,2.430,1114.799,2.269,1.238
0.599000,1147970,1000.00,12,0,1,1322.266,-0.144,2.429,1113.358,1.440,1.255
0.600000,1147971,1000.00,12,0,1,1321.954,-0.582,2.430,1110.620,-1.865,1.256
0.601000,1147972,1000.00,12,0,1,1321.593,-1.535,2.438,1112.061,-0.752,1.244
0.602000,1147973,1000.00,12,0,1,1322.002,-0.494,2.439,1112.493,0.326,1.232
0.603000,1147974,1000.00,12,0,1,1324.260,1.798,2.450,1113.863,0.825,1.238
0.604000,1147975,1000.00,12,0,1,1323.251,2.561,2.476,1113.094,0.834,1.238
0.605000,1147976,1000.00,12,0,1,1322.146,1.719,2.488,1111.821,-1.098,1.248
0.606000,1147977,1000.00,12,0,1,1320.128,1.711,2.496,1112.013,-0.642,1.250
0.607000,1147978,1000.00,12,0,1,1315.900,-0.949,2.488,1112.950,0.106,1.243
0.608000,1147979,1000.00,12,0,1,1312.297,-2.772,2.498,1111.629,-0.652,1.225
0.609000,1147980,1000.00,12,0,1,1312.297,-1.489,2.494,1113.094,-0.094,1.223
0.610000,1147981,1000.00,12,0,1,1314.868,1.939,2.463,1112.613,0.384,1.224
0.611000,1147982,1000.00,12,0,1,1314.411,2.432,2.444,1111.509,-1.297,1.225
0.612000,1147983,1000.00,12,0,1,1313.378,0.647,2.437,1111.461,-1.038,1.233
0.613000,1147984,1000.00,12,0,1,1312.586,-0.290,2.394,1111.941,-0.588,1.233
0.614000,1147985,1000.00,12,0,1,1314.099,-0.330,2.208,1111.100,-1.046,1.242
0.615000,1147986,1000.00,12,0,1,1319.191,3.054,2.162,1113.334,0.440,1.239
0.616000,1147987,1000.00,12,0,1,1320.008,2.840,2.136,1111.412,-0.207,1.238
0.617000,1147988,1000.00,12,0,1,1322.074,1.774,2.122,1112.013,-0.987,1.245
0.618000,1147989,1000.00,12,0,1,1324.740,3.088,2.164,1112.061,0.221,1.244
0.619000,1147990,1000.00,12,0,1,1326.614,2.719,2.197,1109.899,-2.053,1.265
0.620000,1147991,1000.00,12,0,1,1326.902,2.008,2.210,1112.037,-0.442,1.260
0.621000,1147992,1000.00,12,0,1,1323.515,-1.619,2.189,1112.710,1.211,1.271
0.622000,1147993,1000.00,12,0,1,1324.812,-1.434,2.182,1112.854,0.498,1.273
0.623000,1147994,1000.00,12,0,1,1327.478,2.327,2.207,1113.670,1.603,1.293
0.624000,1147995,1000.00,12,0,1,1326.638,2.050,2.221,1112.926,0.644,1.295
0.625000,1147996,1000.00,12,0,1,1319.648,-2.622,2.250,1111.292,-0.774,1.290
0.626000,1147997,1000.00,12,0,1,1314.892,-6.348,2.418,1111.316,-0.998,1.294
0.627000,1147998,1000.00,12,0,1,1314.243,-4.329,2.456,1111.653,-0.232,1.253
0.628000,1147999,1000.00,12,0,1,1312.634,-3.434,2.439,1112.013,0.024,1.200
0.629000,1148000,1000.00,12,0,1,1314.435,-0.797,2.394,1111.533,-0.130,1.176
0.630000,1148001,1000.00,12,0,1,1315.204,1.805,2.386,1112.541,0.415,1.149
0.631000,1148002,1000.00,12,0,1,1314.075,0.580,2.373,1111.893,0.366,1.148
0.632000,1148003,1000.00,12,0,1,1314.603,0.843,2.372,1110.908,-0.950,1.153
0.633000,1148004,1000.00,12,0,1,1318.206,2.985,2.409,1112.205,0.203,1.152
0.634000,1148005,1000.00,12,0,1,1316.645,1.356,2.417,1113.742,1.713,1.177
0.635000,1148006,1000.00,12,0,1,1320.008,1.039,2.421,1114.871,2.325,1.207
0.636000,1148007,1000.00,12,0,1,1322.554,3.151,2.457,1113.766,1.327,1.212
0.637000,1148008,1000.00,12,0,1,1323.611,1.223,2.421,1110.235,-2.161,1.242
0.638000,1148009,1000.00,12,0,1,1323.803,0.263,2.364,1111.533,-1.587,1.262
0.639000,1148010,1000.00,12,0,1,1325.821,0.137,2.364,1112.854,0.563,1.258
0.640000,1148011,1000.00,12,0,1,1325.172,-0.543,2.362,1113.646,0.760,1.215
0.641000,1148012,1000.00,12,0,1,1324.716,-1.896,2.369,1112.133,-0.088,1.154
0.642000,1148013,1000.00,12,0,1,1324.644,-1.372,2.290,1112.541,-0.531,1.116
0.643000,1148014,1000.00,12,0,1,1322.650,-2.149,2.260,1113.430,0.853,1.105
0.644000,1148015,1000.00,12,0,1,1320.176,-3.320,2.305,1111.773,-0.625,1.061
0.645000,1148016,1000.00,12,0,1,1318.951,-2.537,2.316,1112.373,-0.576,1.058
0.646000,1148017,1000.00,12,0,1,1317.510,-1.924,2.276,1112.541,0.308,1.036
0.647000,1148018,1000.00,12,0,1,1316.309,-1.090,2.218,1112.710,-0.062,1.024
0.648000,1148019,1000.00,12,0,1,1315.300,-0.422,2.165,1110.332,-1.372,0.992
0.649000,1148020,1000.00,12,0,1,1315.372,0.834,2.168,1110.788,-1.831,1.005
0.650000,1148021,1000.00,12,0,1,1314.675,1.118,2.173,1111.725,0.112,0.970
0.651000,1148022,1000.00,12,0,1,1314.435,0.877,2.165,1111.773,-0.171,0.964
0.652000,1148023,1000.00,12,0,1,1313.763,0.256,2.164,1109.587,-1.539,0.987
0.653000,1148024,1000.00,12,0,1,1314.243,-0.259,2.150,1111.340,-0.738,0.986
0.654000,1148025,1000.00,12,0,1,1317.366,1.459,2.129,1112.061,1.006,0.989
0.655000,1148026,1000.00,12,0,1,1320.488,3.001,2.157,1110.980,-0.437,0.979
0.656000,1148027,1000.00,12,0,1,1323.827,3.834,2.211,1109.058,-1.838,1.009
0.657000,1148028,1000.00,12,0,1,1327.334,4.953,2.316,1110.115,-1.169,1.022
0.658000,1148029,1000.00,12,0,1,1329.400,4.629,2.374,1111.749,0.885,1.026
0.659000,1148030,1000.00,12,0,1,1326.590,0.725,2.367,1112.493,1.487,1.047
0.660000,1148031,1000.00,12,0,1,1324.212,-3.174,2.394,1113.791,2.263,1.093
0.661000,1148032,1000.00,12,0,1,1320.560,-5.689,2.502,1112.109,1.123,1.089
0.662000,1148033,1000.00,12,0,1,1318.567,-7.211,2.700,1111.509,-0.407,1.081
0.663000,1148034,1000.00,12,0,1,1318.158,-5.393,2.805,1111.292,0.077,1.078
0.664000,1148035,1000.00,12,0,1,1318.687,-3.138,2.840,1115.352,2.633,1.131
0.665000,1148036,1000.00,12,0,1,1316.645,-2.346,2.826,1113.526,2.493,1.183
0.666000,1148037,1000.00,12,0,1,1315.540,-1.882,2.810,1110.716,-1.730,1.207
0.667000,1148038,1000.00,12,0,1,1314.627,-0.359,2.800,1110.572,-1.188,1.211
0.668000,1148039,1000.00,12,0,1,1313.643,0.172,2.765,1110.932,-0.831,1.216
0.669000,1148040,1000.00,12,0,1,1309.823,-1.497,2.747,1112.541,0.656,1.185
0.670000,1148041,1000.00,12,0,1,1312.105,0.253,2.732,1112.277,0.902,1.190
0.671000,1148042,1000.00,12,0,1,1312.682,2.556,2.746,1113.815,1.305,1.192
0.672000,1148043,1000.00,12,0,1,1313.426,1.761,2.750,1113.574,1.821,1.217
0.673000,1148044,1000.00,12,0,1,1312.706,1.153,2.735,1112.301,-0.321,1.197
0.674000,1148045,1000.00,12,0,1,1310.832,-2.003,2.735,1110.932,-1.177,1.205
0.675000,1148046,1000.00,12,0,1,1312.994,-1.467,2.717,1111.773,-0.989,1.208
0.676000,1148047,1000.00,12,0,1,1314.267,-0.581,2.566,1111.917,-0.164,1.200
0.677000,1148048,1000.00,12,0,1,1318.471,0.908,2.495,1113.334,0.442,1.201
0.678000,1148049,1000.00,12,0,1,1322.074,3.949,2.511,1112.758,0.533,1.204
0.679000,1148050,1000.00,12,0,1,1323.443,3.231,2.549,1112.782,-0.249,1.204
0.680000,1148051,1000.00,12,0,1,1326.133,4.558,2.617,1112.950,0.245,1.203
0.681000,1148052,1000.00,12,0,1,1325.413,3.586,2.664,1112.301,-0.489,1.204
0.682000,1148053,1000.00,12,0,1,1318.663,-2.392,2.683,1111.821,-0.955,1.204
0.683000,1148054,1000.00,12,0,1,1321.041,-1.170,2.655,1113.815,0.701,1.208
0.684000,1148055,1000.00,12,0,1,1322.770,3.399,2.691,1112.421,0.123,1.183
0.685000,1148056,1000.00,12,0,1,1319.528,0.922,2.690,1112.541,-0.619,1.140
0.686000,1148057,1000.00,12,0,1,1315.036,-1.530,2.662,1112.421,0.023,1.125
0.687000,1148058,1000.00,12,0,1,1314.219,-1.320,2.663,1112.565,-0.259,1.083
0.688000,1148059,1000.00,12,0,1,1313.474,0.096,2.663,1112.325,-0.086,1.059
0.689000,1148060,1000.00,12,0,1,1310.592,-1.359,2.670,1108.818,-2.810,1.129
0.690000,1148061,1000.00,12,0,1,1308.790,-2.435,2.691,1112.013,-0.989,1.132
0.691000,1148062,1000.00,12,0,1,1309.391,-1.256,2.683,1112.037,1.111,1.143
0.692000,1148063,1000.00,12,0,1,1312.153,0.913,2.679,1111.821,-0.621,1.144
0.693000,1148064,1000.00,12,0,1,1313.090,1.625,2.672,1112.589,0.972,1.146
0.694000,1148065,1000.00,12,0,1,1313.931,0.538,2.631,1112.373,0.264,1.143
0.695000,1148066,1000.00,12,0,1,1313.594,-0.615,2.608,1110.980,-0.746,1.145
0.696000,1148067,1000.00,12,0,1,1315.997,-0.740,2.596,1112.710,0.181,1.145
0.697000,1148068,1000.00,12,0,1,1320.320,2.178,2.610,1111.412,-0.050,1.145
0.698000,1148069,1000.00,12,0,1,1320.440,1.139,2.614,1112.830,0.033,1.128
0.699000,1148070,1000.00,12,0,1,1320.681,-0.434,2.612,1112.589,0.873,1.105
0.700000,1148071,1000.00,12,0,1,1321.882,0.306,2.608,1111.316,-0.980,1.113
0.701000,1148072,1000.00,12,0,1,1321.425,-0.272,2.605,1111.461,-0.668,1.117
0.702000,1148073,1000.00,12,0,1,1317.678,-2.853,2.636,1112.157,0.141,1.096
0.703000,1148074,1000.00,12,0,1,1316.045,-3.850,2.691,1110.572,-0.974,1.099
0.704000,1148075,1000.00,12,0,1,1314.675,-2.689,2.710,1112.854,0.505,1.093
0.705000,1148076,1000.00,12,0,1,1315.444,-0.742,2.679,1113.142,1.706,1.117
0.706000,1148077,1000.00,12,0,1,1313.306,0.176,2.623,1112.469,0.413,1.088
0.707000,1148078,1000.00,12,0,1,1310.520,-1.347,2.535,1111.316,-0.311,1.076
0.708000,1148079,1000.00,12,0,1,1309.295,-0.599,2.451,1111.148,-0.688,1.073
0.709000,1148080,1000.00,12,0,1,1311.361,2.030,2.465,1112.469,0.600,1.056
0.710000,1148081,1000.00,12,0,1,1312.465,4.045,2.491,1112.806,1.176,1.020
0.711000,1148082,1000.00,12,0,1,1311.841,3.034,2.396,1113.935,1.550,1.031
0.712000,1148083,1000.00,12,0,1,1314.387,3.953,2.239,1112.181,0.561,1.033
0.713000,1148084,1000.00,12,0,1,1311.841,1.675,2.118,1110.283,-2.005,1.071
0.714000,1148085,1000.00,12,0,1,1314.771,0.757,2.074,1112.998,0.434,1.006
0.715000,1148086,1000.00,12,0,1,1318.471,4.048,2.126,1112.734,0.892,0.950
0.716000,1148087,1000.00,12,0,1,1320.921,3.165,2.156,1111.749,-0.758,0.925
0.717000,1148088,1000.00,12,0,1,1321.089,2.057,2.175,1113.502,0.788,0.916
0.718000,1148089,1000.00,12,0,1,1322.170,0.458,2.176,1112.782,0.482,0.911
0.719000,1148090,1000.00,12,0,1,1322.794,0.278,2.166,1111.773,-0.987,0.917
0.720000,1148091,1000.00,12,0,1,1323.779,-0.003,2.166,1110.644,-1.573,0.935
0.721000,1148092,1000.00,12,0,1,1324.188,0.287,2.136,1112.277,-0.550,0.920
0.722000,1148093,1000.00,12,0,1,1325.244,1.143,2.127,1113.694,1.423,0.906
0.723000,1148094,1000.00,12,0,1,1325.244,1.773,2.136,1113.694,1.052,0.917
0.724000,1148095,1000.00,12,0,1,1325.244,2.268,2.141,1113.694,0.929,0.911
0.725000,1148096,1000.00,12,0,1,1317.750,-2.430,2.159,1110.980,-1.201,0.916
0.726000,1148097,1000.00,12,0,1,1317.150,-3.503,2.213,1111.725,-1.337,0.935
0.727000,1148098,1000.00,12,0,1,1317.101,-0.108,2.210,1111.388,-0.355,0.934
0.728000,1148099,1000.00,12,0,1,1314.555,-1.813,2.153,1111.028,-1.314,0.950
0.729000,1148100,1000.00,12,0,1,1315.036,-0.491,2.105,1110.788,-0.752,0.955
0.730000,1148101,1000.00,12,0,1,1313.643,-0.493,2.005,1110.956,-0.797,0.961
0.731000,1148102,1000.00,12,0,1,1314.747,-0.509,1.942,1110.812,-0.455,0.961
0.732000,1148103,1000.00,12,0,1,1315.492,0.762,1.915,1109.058,-1.789,0.984
0.733000,1148104,1000.00,12,0,1,1320.512,2.730,1.946,1109.227,-1.799,1.012
0.734000,1148105,1000.00,12,0,1,1322.290,4.272,1.980,1112.229,1.231,1.026
0.735000,1148106,1000.00,12,0,1,1320.392,-0.456,1.977,1112.325,1.698,1.051
0.736000,1148107,1000.00,12,0,1,1321.858,-1.087,1.971,1112.998,1.494,1.072
0.737000,1148108,1000.00,12,0,1,1319.191,-3.994,2.042,1112.277,1.165,1.084
0.738000,1148109,1000.00,12,0,1,1319.359,-6.031,2.213,1111.557,-0.160,1.084
0.739000,1148110,1000.00,12,0,1,1323.275,-2.095,2.225,1113.791,1.610,1.034
0.740000,1148111,1000.00,12,0,1,1324.380,-1.147,2.204,1112.493,1.023,1.034
0.741000,1148112,1000.00,12,0,1,1323.083,-2.057,2.216,1114.823,1.563,1.046
0.742000,1148113,1000.00,12,0,1,1322.987,-1.828,2.227,1113.935,2.102,1.084
0.743000,1148114,1000.00,12,0,1,1323.011,-0.442,2.216,1113.382,-0.057,1.075
0.744000,1148115,1000.00,12,0,1,1322.554,0.322,2.215,1112.349,-0.030,1.074
0.745000,1148116,1000.00,12,0,1,1320.729,0.287,2.214,1112.373,-0.805,1.075
0.746000,1148117,1000.00,12,0,1,1315.900,-2.269,2.234,1114.391,1.342,1.092
0.747000,1148118,1000.00,12,0,1,1316.717,-0.953,2.217,1113.334,0.740,1.097
0.748000,1148119,1000.00,12,0,1,1312.922,-1.020,2.216,1113.526,0.015,1.097
0.749000,1148120,1000.00,12,0,1,1310.880,-3.349,2.265,1113.142,0.397,1.091
0.750000,1148121,1000.00,12,0,1,1312.586,0.028,2.265,1111.148,-1.840,1.113
0.751000,1148122,1000.00,12,0,1,1312.922,0.545,2.266,1111.412,-1.505,1.129
0.752000,1148123,1000.00,12,0,1,1311.433,-0.895,2.233,1112.109,-0.588,1.132
0.753000,1148124,1000.00,12,0,1,1310.592,-2.369,2.192,1111.629,-0.836,1.130
0.754000,1148125,1000.00,12,0,1,1313.667,-0.782,2.161,1111.893,-0.783,1.133
0.755000,1148126,1000.00,12,0,1,1318.447,2.734,2.193,1111.917,-0.486,1.109
0.756000,1148127,1000.00,12,0,1,1320.176,2.790,2.228,1112.686,-0.094,1.108
0.757000,1148128,1000.00,12,0,1,1323.467,3.416,2.272,1112.589,0.102,1.107
0.758000,1148129,1000.00,12,0,1,1324.716,3.448,2.322,1112.782,-0.144,1.103
0.759000,1148130,1000.00,12,0,1,1325.869,2.416,2.330,1113.766,0.755,1.105
0.760000,1148131,1000.00,12,0,1,1326.325,2.259,2.281,1115.088,1.685,1.118
0.761000,1148132,1000.00,12,0,1,1326.614,1.706,2.253,1113.791,0.645,1.100
0.762000,1148133,1000.00,12,0,1,1327.935,2.847,2.219,1112.349,-1.156,1.109
0.763000,1148134,1000.00,12,0,1,1320.320,-2.155,2.228,1113.670,-0.041,1.072
0.764000,1148135,1000.00,12,0,1,1318.471,-4.774,2.325,1113.670,0.497,1.073
0.765000,1148136,1000.00,12,0,1,1316.717,-2.325,2.277,1112.589,-0.733,1.071
0.766000,1148137,1000.00,12,0,1,1313.763,-4.099,2.307,1111.605,-1.288,1.081
0.767000,1148138,1000.00,12,0,1,1315.276,-0.566,2.290,1112.421,-0.655,1.079
0.768000,1148139,1000.00,12,0,1,1317.125,2.801,2.323,1112.662,0.203,1.077
0.769000,1148140,1000.00,12,0,1,1315.756,2.435,2.348,1111.821,-0.620,1.072
0.770000,1148141,1000.00,12,0,1,1314.267,1.072,2.353,1112.638,0.048,1.048
0.771000,1148142,1000.00,12,0,1,1311.625,-1.199,2.359,1114.343,1.687,1.072
0.772000,1148143,1000.00,12,0,1,1311.048,-2.420,2.378,1111.917,-0.141,1.053
0.773000,1148144,1000.00,12,0,1,1310.544,-2.966,2.402,1110.932,-1.845,1.075
0.774000,1148145,1000.00,12,0,1,1314.147,-1.226,2.386,1111.797,-0.563,1.070
0.775000,1148146,1000.00,12,0,1,1316.357,0.523,2.363,1114.415,1.408,1.075
0.776000,1148147,1000.00,12,0,1,1316.717,-0.985,2.314,1113.070,0.851,1.065
0.777000,1148148,1000.00,12,0,1,1318.903,-0.469,2.315,1109.947,-2.653,1.128
0.778000,1148149,1000.00,12,0,1,1320.200,-0.017,2.301,1112.277,-0.910,1.120
0.779000,1148150,1000.00,12,0,1,1316.693,-3.605,2.356,1111.677,-0.158,1.115
0.780000,1148151,1000.00,12,0,1,1317.005,-4.165,2.427,1113.718,0.295,1.110
0.781000,1148152,1000.00,12,0,1,1317.294,-2.314,2.448,1112.037,0.462,1.110
0.782000,1148153,1000.00,12,0,1,1316.549,-2.278,2.467,1111.725,-1.393,1.099
0.783000,1148154,1000.00,12,0,1,1320.056,1.814,2.450,1112.397,0.421,1.071
0.784000,1148155,1000.00,12,0,1,1320.008,4.087,2.444,1111.220,-0.824,1.063
0.785000,1148156,1000.00,12,0,1,1316.981,1.860,2.457,1111.581,-0.472,1.038
0.786000,1148157,1000.00,12,0,1,1313.883,0.737,2.454,1113.815,1.769,1.046
0.787000,1148158,1000.00,12,0,1,1314.675,2.064,2.406,1112.589,1.057,1.044
0.788000,1148159,1000.00,12,0,1,1316.309,5.161,2.365,1111.052,-0.722,1.049
0.789000,1148160,1000.00,12,0,1,1317.894,6.421,2.516,1110.620,-0.913,1.032
0.790000,1148161,1000.00,12,0,1,1319.095,7.228,2.711,1111.701,0.152,1.022
0.791000,1148162,1000.00,12,0,1,1317.606,4.942,2.785,1110.740,-0.216,0.998
0.792000,1148163,1000.00,12,0,1,1316.165,1.899,2.786,1111.412,-0.114,0.953
0.793000,1148164,1000.00,12,0,1,1316.885,1.096,2.789,1111.533,0.537,0.956
0.794000,1148165,1000.00,12,0,1,1318.711,1.066,2.793,1112.493,0.830,0.963
0.795000,1148166,1000.00,12,0,1,1321.521,1.750,2.804,1112.469,1.089,0.969
0.796000,1148167,1000.00,12,0,1,1321.497,0.232,2.785,1112.686,0.680,0.955
0.797000,1148168,1000.00,12,0,1,1322.794,-0.992,2.786,1112.421,0.502,0.952
0.798000,1148169,1000.00,12,0,1,1321.882,-2.288,2.801,1112.085,-0.117,0.952
0.799000,1148170,1000.00,12,0,1,1324.836,-1.704,2.771,1114.127,1.289,0.967
0.800000,1148171,1000.00,12,0,1,1324.476,-0.938,2.774,1115.112,2.436,0.993
0.801000,1148172,1000.00,12,0,1,1323.443,-2.980,2.805,1112.830,0.006,0.970
0.802000,1148173,1000.00,12,0,1,1324.428,-1.121,2.806,1112.013,-1.158,0.981
0.803000,1148174,1000.00,12,0,1,1322.170,-1.822,2.798,1110.524,-1.915,1.010
0.804000,1148175,1000.00,12,0,1,1319.792,-3.173,2.832,1113.070,-0.220,1.005
0.805000,1148176,1000.00,12,0,1,1320.681,-0.696,2.807,1110.932,-0.446,1.004
0.806000,1148177,1000.00,12,0,1,1319.119,-0.117,2.779,1111.893,-1.113,1.017
0.807000,1148178,1000.00,12,0,1,1319.239,0.672,2.739,1112.902,1.326,1.034
0.808000,1148179,1000.00,12,0,1,1318.230,1.417,2.702,1111.773,-0.239,1.034
0.809000,1148180,1000.00,12,0,1,1317.077,0.499,2.682,1112.133,0.093,1.029
0.810000,1148181,1000.00,12,0,1,1315.924,0.008,2.662,1111.436,-0.106,1.001
0.811000,1148182,1000.00,12,0,1,1318.375,1.416,2.659,1111.773,-0.363,0.998
0.812000,1148183,1000.00,12,0,1,1319.648,2.563,2.653,1113.742,1.704,1.013
0.813000,1148184,1000.00,12,0,1,1320.536,1.554,2.645,1113.334,1.196,1.027
0.814000,1148185,1000.00,12,0,1,1323.443,2.497,2.582,1111.941,-0.368,1.026
0.815000,1148186,1000.00,12,0,1,1323.227,1.057,2.565,1112.806,-0.097,1.021
0.816000,1148187,1000.00,12,0,1,1323.875,-0.980,2.502,1113.310,0.673,1.009
0.817000,1148188,1000.00,12,0,1,1328.439,1.670,2.512,1110.692,-1.727,1.034
0.818000,1148189,1000.00,12,0,1,1330.457,2.336,2.503,1109.467,-3.100,1.123
0.819000,1148190,1000.00,12,0,1,1330.121,0.498,2.480,1111.100,-1.288,1.134
0.820000,1148191,1000.00,12,0,1,1329.328,-1.017,2.479,1112.541,0.430,1.136
0.821000,1148192,1000.00,12,0,1,1326.397,-3.455,2.521,1113.502,1.208,1.124
0.822000,1148193,1000.00,12,0,1,1323.419,-5.656,2.623,1112.902,0.812,1.129
0.823000,1148194,1000.00,12,0,1,1323.155,-4.529,2.667,1113.022,0.463,1.101
0.824000,1148195,1000.00,12,0,1,1323.323,-2.380,2.683,1113.070,0.779,1.103
0.825000,1148196,1000.00,12,0,1,1320.969,-2.463,2.704,1113.622,0.939,1.093
0.826000,1148197,1000.00,12,0,1,1319.792,-2.181,2.718,1111.052,-0.733,1.092
0.827000,1148198,1000.00,12,0,1,1319.167,-0.744,2.720,1112.710,-0.326,1.026
0.828000,1148199,1000.00,12,0,1,1318.206,-0.431,2.720,1113.526,1.662,1.045
0.829000,1148200,1000.00,12,0,1,1316.525,-0.831,2.675,1114.583,1.579,1.068
0.830000,1148201,1000.00,12,0,1,1315.924,-1.079,2.613,1111.100,-0.531,1.070
0.831000,1148202,1000.00,12,0,1,1317.150,0.158,2.593,1110.139,-2.703,1.134
0.832000,1148203,1000.00,12,0,1,1318.351,0.953,2.576,1112.541,0.246,1.118
0.833000,1148204,1000.00,12,0,1,1318.567,0.248,2.564,1112.349,0.377,1.117
0.834000,1148205,1000.00,12,0,1,1319.600,-0.158,2.498,1110.067,-1.878,1.142
0.835000,1148206,1000.00,12,0,1,1321.882,0.537,2.485,1111.268,-1.034,1.150
0.836000,1148207,1000.00,12,0,1,1323.467,0.721,2.485,1112.806,0.741,1.127
0.837000,1148208,1000.00,12,0,1,1324.812,0.374,2.468,1113.286,1.041,1.127
0.838000,1148209,1000.00,12,0,1,1326.373,0.680,2.360,1113.070,0.584,1.125
0.839000,1148210,1000.00,12,0,1,1326.614,0.179,2.179,1110.764,-1.277,1.132
0.840000,1148211,1000.00,12,0,1,1325.725,-1.011,1.929,1111.292,-1.500,1.152
0.841000,1148212,1000.00,12,0,1,1323.923,-2.291,1.827,1113.911,1.455,1.170
0.842000,1148213,1000.00,12,0,1,1325.341,-0.751,1.810,1112.421,0.385,1.171
0.843000,1148214,1000.00,12,0,1,1326.133,1.669,1.819,1112.349,-0.389,1.170
0.844000,1148215,1000.00,12,0,1,1327.214,3.085,1.864,1113.046,0.756,1.169
0.845000,1148216,1000.00,12,0,1,1322.746,1.210,1.856,1112.109,-0.116,1.159
0.846000,1148217,1000.00,12,0,1,1316.669,-3.805,1.932,1113.526,0.807,1.160
0.847000,1148218,1000.00,12,0,1,1314.844,-3.746,1.998,1112.181,0.424,1.160
0.848000,1148219,1000.00,12,0,1,1312.225,-3.757,2.042,1111.701,-0.846,1.166
0.849000,1148220,1000.00,12,0,1,1312.802,-2.618,2.062,1112.421,0.431,1.153
0.850000,1148221,1000.00,12,0,1,1315.084,1.010,2.062,1112.157,0.097,1.100
0.851000,1148222,1000.00,12,0,1,1317.702,2.933,2.061,1114.127,1.499,1.121
0.852000,1148223,1000.00,12,0,1,1317.198,2.492,2.085,1112.301,0.594,1.112
0.853000,1148224,1000.00,12,0,1,1321.473,3.665,2.133,1111.412,-1.363,1.095
0.854000,1148225,1000.00,12,0,1,1322.939,4.815,2.193,1112.277,0.006,1.095
0.855000,1148226,1000.00,12,0,1,1324.116,2.562,2.221,1111.797,-0.549,1.096
0.856000,1148227,1000.00,12,0,1,1325.509,2.538,2.250,1111.533,-0.858,1.091
0.857000,1148228,1000.00,12,0,1,1326.085,0.954,2.252,1111.316,-0.913,1.083
0.858000,1148229,1000.00,12,0,1,1326.566,0.042,2.243,1112.133,-0.368,1.083
0.859000,1148230,1000.00,12,0,1,1326.446,-0.797,2.245,1111.340,-0.557,1.086
0.860000,1148231,1000.00,12,0,1,1327.478,-0.623,2.246,1112.301,-0.349,1.087
0.861000,1148232,1000.00,12,0,1,1327.094,-0.217,2.238,1112.301,0.423,1.088
0.862000,1148233,1000.00,12,0,1,1325.797,-1.289,2.216,1113.622,0.810,1.067
0.863000,1148234,1000.00,12,0,1,1322.194,-2.781,2.239,1111.100,-0.373,1.055
0.864000,1148235,1000.00,12,0,1,1318.591,-4.922,2.318,1110.668,-1.892,1.087
0.865000,1148236,1000.00,12,0,1,1318.375,-3.050,2.353,1112.710,0.815,1.093
0.866000,1148237,1000.00,12,0,1,1318.639,-0.619,2.351,1113.286,1.379,1.106
0.867000,1148238,1000.00,12,0,1,1318.014,0.400,2.340,1115.160,2.560,1.138
0.868000,1148239,1000.00,12,0,1,1316.837,0.538,2.318,1113.815,1.918,1.084
0.869000,1148240,1000.00,12,0,1,1319.383,2.847,2.351,1113.430,0.306,1.070
0.870000,1148241,1000.00,12,0,1,1318.399,3.055,2.386,1111.773,-0.273,1.069
0.871000,1148242,1000.00,12,0,1,1316.093,-0.372,2.336,1112.974,-0.373,1.056
0.872000,1148243,1000.00,12,0,1,1317.005,-0.165,2.195,1112.974,0.783,1.056
0.873000,1148244,1000.00,12,0,1,1318.735,0.507,2.101,1114.055,0.614,1.058
0.874000,1148245,1000.00,12,0,1,1317.870,-1.195,2.081,1115.376,2.213,1.097
0.875000,1148246,1000.00,12,0,1,1320.200,-1.118,2.057,1116.313,2.273,1.136
0.876000,1148247,1000.00,12,0,1,1323.731,1.273,2.042,1113.094,-0.389,1.132
0.877000,1148248,1000.00,12,0,1,1325.124,1.156,2.046,1111.124,-3.090,1.213
0.878000,1148249,1000.00,12,0,1,1326.686,1.071,2.051,1111.701,-2.151,1.228
0.879000,1148250,1000.00,12,0,1,1325.797,-0.041,2.047,1111.893,-1.559,1.228
0.880000,1148251,1000.00,12,0,1,1325.485,-1.296,2.050,1112.782,-0.887,1.232
0.881000,1148252,1000.00,12,0,1,1327.959,1.279,2.058,1114.703,1.097,1.181
0.882000,1148253,1000.00,12,0,1,1327.214,1.547,2.065,1112.541,-0.506,1.183
0.883000,1148254,1000.00,12,0,1,1325.797,0.530,2.066,1111.821,-1.790,1.208
0.884000,1148255,1000.00,12,0,1,1327.094,2.586,2.098,1112.013,-0.966,1.187
0.885000,1148256,1000.00,12,0,1,1326.085,3.153,2.143,1111.917,-0.969,1.186
0.886000,1148257,1000.00,12,0,1,1320.368,-0.899,2.145,1112.974,0.076,1.181
0.887000,1148258,1000.00,12,0,1,1316.837,-3.442,2.199,1112.349,0.055,1.172
0.888000,1148259,1000.00,12,0,1,1319.456,-0.011,2.196,1111.701,-0.854,1.175
0.889000,1148260,1000.00,12,0,1,1318.543,0.964,2.201,1112.710,0.312,1.162
0.890000,1148261,1000.00,12,0,1,1317.630,-0.619,2.198,1113.334,0.971,1.151
0.891000,1148262,1000.00,12,0,1,1317.534,-0.323,2.174,1110.572,-1.100,1.143
0.892000,1148263,1000.00,12,0,1,1320.368,0.863,2.175,1111.581,-1.054,1.151
0.893000,1148264,1000.00,12,0,1,1321.713,1.756,2.176,1111.412,0.067,1.150
0.894000,1148265,1000.00,12,0,1,1328.463,4.702,2.233,1111.629,-0.528,1.147
0.895000,1148266,1000.00,12,0,1,1329.448,5.337,2.351,1112.950,1.136,1.159
0.896000,1148267,1000.00,12,0,1,1327.406,-0.110,2.289,1111.196,-0.277,1.154
0.897000,1148268,1000.00,12,0,1,1326.614,-2.064,2.246,1111.076,-1.010,1.161
0.898000,1148269,1000.00,12,0,1,1326.758,-3.160,2.227,1111.797,0.237,1.155
0.899000,1148270,1000.00,12,0,1,1326.734,-3.459,2.250,1113.310,1.111,1.164
0.900000,1148271,1000.00,12,0,1,1323.947,-5.287,2.367,1113.502,1.701,1.189
0.901000,1148272,1000.00,12,0,1,1324.332,-5.031,2.436,1112.734,0.428,1.171
0.902000,1148273,1000.00,12,0,1,1325.677,-1.614,2.422,1111.292,-0.657,1.172
0.903000,1148274,1000.00,12,0,1,1324.140,-1.778,2.379,1111.148,-1.074,1.166
0.904000,1148275,1000.00,12,0,1,1324.932,0.150,2.279,1111.316,-0.434,1.167
0.905000,1148276,1000.00,12,0,1,1320.368,-1.284,2.258,1111.965,0.097,1.165
0.906000,1148277,1000.00,12,0,1,1316.405,-4.267,2.309,1113.622,1.634,1.181
0.907000,1148278,1000.00,12,0,1,1313.883,-3.869,2.369,1113.310,1.588,1.196
0.908000,1148279,1000.00,12,0,1,1314.675,-2.165,2.389,1113.839,1.334,1.209
0.909000,1148280,1000.00,12,0,1,1315.997,0.874,2.390,1114.823,2.355,1.252
0.910000,1148281,1000.00,12,0,1,1315.420,0.711,2.390,1113.815,1.145,1.261
0.911000,1148282,1000.00,12,0,1,1316.549,1.228,2.396,1111.653,-0.963,1.267
0.912000,1148283,1000.00,12,0,1,1317.798,2.096,2.408,1111.605,-1.327,1.276
0.913000,1148284,1000.00,12,0,1,1317.077,0.290,2.376,1112.301,-0.301,1.276
0.914000,1148285,1000.00,12,0,1,1317.990,-0.333,2.272,1111.509,-0.868,1.253
0.915000,1148286,1000.00,12,0,1,1322.410,2.078,2.250,1112.397,-0.396,1.249
0.916000,1148287,1000.00,12,0,1,1321.882,1.201,2.254,1112.662,0.325,1.235
0.917000,1148288,1000.00,12,0,1,1323.131,-0.321,2.254,1110.404,-1.748,1.206
0.918000,1148289,1000.00,12,0,1,1324.740,1.163,2.259,1111.725,-1.040,1.184
0.919000,1148290,1000.00,12,0,1,1326.854,1.631,2.235,1112.565,0.538,1.186
0.920000,1148291,1000.00,12,0,1,1327.454,2.446,2.220,1112.878,0.295,1.186
0.921000,1148292,1000.00,12,0,1,1327.839,2.207,2.241,1112.589,0.323,1.186
0.922000,1148293,1000.00,12,0,1,1326.878,2.068,2.260,1110.812,-1.356,1.196
0.923000,1148294,1000.00,12,0,1,1325.533,1.282,2.266,1113.839,0.704,1.197
0.924000,1148295,1000.00,12,0,1,1321.329,-0.934,2.263,1113.310,1.508,1.175
0.925000,1148296,1000.00,12,0,1,1314.507,-5.461,2.386,1114.655,1.080,1.140
0.926000,1148297,1000.00,12,0,1,1314.555,-4.374,2.459,1111.605,-0.060,1.139
0.927000,1148298,1000.00,12,0,1,1315.564,-0.299,2.453,1112.181,-1.467,1.072
0.928000,1148299,1000.00,12,0,1,1318.014,2.175,2.468,1112.469,0.521,1.031
0.929000,1148300,1000.00,12,0,1,1319.239,4.650,2.554,1112.181,-0.599,1.010
0.930000,1148301,1000.00,12,0,1,1320.633,4.694,2.633,1112.565,0.231,1.003
0.931000,1148302,1000.00,12,0,1,1322.914,6.005,2.760,1112.181,-0.054,0.991
0.932000,1148303,1000.00,12,0,1,1323.563,4.936,2.839,1114.103,1.126,1.001
0.933000,1148304,1000.00,12,0,1,1322.074,1.706,2.848,1113.142,1.158,0.982
0.934000,1148305,1000.00,12,0,1,1321.233,-1.071,2.828,1112.589,-0.566,0.976
0.935000,1148306,1000.00,12,0,1,1324.500,-0.172,2.793,1111.581,-0.577,0.970
0.936000,1148307,1000.00,12,0,1,1325.941,0.420,2.791,1111.388,-1.488,0.992
0.937000,1148308,1000.00,12,0,1,1326.662,-1.015,2.752,1111.436,-0.714,0.998
0.938000,1148309,1000.00,12,0,1,1330.145,1.039,2.756,1112.613,-0.098,0.990
0.939000,1148310,1000.00,12,0,1,1329.904,0.584,2.754,1113.070,0.772,0.995
0.940000,1148311,1000.00,12,0,1,1327.430,-2.400,2.773,1112.517,-0.033,0.986
0.941000,1148312,1000.00,12,0,1,1327.815,-1.942,2.786,1114.968,1.628,1.000
0.942000,1148313,1000.00,12,0,1,1325.677,-2.285,2.802,1114.487,1.842,1.023
0.943000,1148314,1000.00,12,0,1,1321.497,-4.992,2.879,1113.742,0.034,1.023
0.944000,1148315,1000.00,12,0,1,1320.729,-4.087,2.860,1112.589,-0.448,1.022
0.945000,1148316,1000.00,12,0,1,1319.768,-2.402,2.780,1112.734,-0.953,1.018
0.946000,1148317,1000.00,12,0,1,1320.344,-0.638,2.781,1115.040,1.400,1.037
0.947000,1148318,1000.00,12,0,1,1317.846,-0.490,2.767,1114.199,0.958,1.036
0.948000,1148319,1000.00,12,0,1,1317.438,-0.883,2.733,1112.950,-0.753,1.041
0.949000,1148320,1000.00,12,0,1,1320.729,3.056,2.724,1111.869,-1.295,1.045
0.950000,1148321,1000.00,12,0,1,1322.170,4.339,2.690,1111.557,-1.695,1.045
0.951000,1148322,1000.00,12,0,1,1320.969,2.337,2.615,1110.860,-1.641,1.068
0.952000,1148323,1000.00,12,0,1,1321.041,0.902,2.608,1113.166,0.011,1.064
0.953000,1148324,1000.00,12,0,1,1326.614,3.881,2.654,1113.310,1.152,1.066
0.954000,1148325,1000.00,12,0,1,1328.223,4.615,2.733,1113.742,0.601,1.068
0.955000,1148326,1000.00,12,0,1,1326.806,0.413,2.727,1113.478,0.852,1.074
0.956000,1148327,1000.00,12,0,1,1329.448,0.770,2.662,1111.100,-1.541,1.072
0.957000,1148328,1000.00,12,0,1,1333.412,2.920,2.637,1111.773,-1.347,1.065
0.958000,1148329,1000.00,12,0,1,1331.850,0.712,2.622,1112.638,0.132,1.048
0.959000,1148330,1000.00,12,0,1,1332.042,-1.038,2.623,1113.911,0.719,0.999
0.960000,1148331,1000.00,12,0,1,1329.496,-2.333,2.642,1112.109,-0.163,0.986
0.961000,1148332,1000.00,12,0,1,1326.349,-5.425,2.745,1111.605,-1.595,1.002
0.962000,1148333,1000.00,12,0,1,1325.076,-4.904,2.816,1112.253,-0.267,0.985
0.963000,1148334,1000.00,12,0,1,1322.002,-5.522,2.922,1112.950,0.111,0.985
0.964000,1148335,1000.00,12,0,1,1318.735,-6.513,3.063,1112.806,0.316,0.978
0.965000,1148336,1000.00,12,0,1,1317.678,-4.968,3.129,1113.718,0.758,0.982
0.966000,1148337,1000.00,12,0,1,1315.036,-4.639,3.193,1113.262,0.745,0.987
0.967000,1148338,1000.00,12,0,1,1312.874,-4.719,3.261,1110.764,-1.533,0.980
0.968000,1148339,1000.00,12,0,1,1311.505,-3.920,3.304,1111.821,-0.971,0.978
0.969000,1148340,1000.00,12,0,1,1314.771,-0.293,3.296,1112.662,0.743,0.981
0.970000,1148341,1000.00,12,0,1,1318.711,4.220,3.332,1112.349,0.121,0.980
0.971000,1148342,1000.00,12,0,1,1318.831,3.843,3.361,1112.806,0.695,0.984
0.972000,1148343,1000.00,12,0,1,1321.641,4.308,3.404,1112.830,0.693,0.970
0.973000,1148344,1000.00,12,0,1,1323.755,5.298,3.480,1114.775,1.993,1.005
0.974000,1148345,1000.00,12,0,1,1329.977,7.422,3.633,1113.454,1.338,1.000
0.975000,1148346,1000.00,12,0,1,1330.769,7.408,3.701,1112.950,-0.239,0.989
0.976000,1148347,1000.00,12,0,1,1329.016,2.063,3.661,1115.184,1.877,1.024
0.977000,1148348,1000.00,12,0,1,1327.478,-0.379,3.661,1113.334,0.474,1.005
0.978000,1148349,1000.00,12,0,1,1328.872,-0.856,3.650,1115.208,0.712,1.008
0.979000,1148350,1000.00,12,0,1,1329.376,-0.055,3.590,1113.022,0.178,1.004
0.980000,1148351,1000.00,12,0,1,1326.301,-2.656,3.548,1113.911,-1.009,1.014
0.981000,1148352,1000.00,12,0,1,1325.293,-3.350,3.478,1112.133,-0.758,1.020
0.982000,1148353,1000.00,12,0,1,1328.367,0.785,3.409,1112.205,-2.228,1.055
0.983000,1148354,1000.00,12,0,1,1326.566,1.143,3.404,1109.611,-2.701,1.110
0.984000,1148355,1000.00,12,0,1,1321.425,-2.438,3.418,1109.707,-3.605,1.219
0.985000,1148356,1000.00,12,0,1,1319.191,-3.149,3.447,1112.710,0.253,1.217
0.986000,1148357,1000.00,12,0,1,1316.885,-2.827,3.469,1113.286,1.161,1.210
0.987000,1148358,1000.00,12,0,1,1317.438,-1.541,3.473,1112.613,0.236,1.206
0.988000,1148359,1000.00,12,0,1,1318.519,1.197,3.474,1112.589,0.414,1.207
0.989000,1148360,1000.00,12,0,1,1319.864,2.173,3.487,1112.253,-0.053,1.202
0.990000,1148361,1000.00,12,0,1,1321.257,3.331,3.502,1113.430,1.014,1.211
0.991000,1148362,1000.00,12,0,1,1324.596,4.689,3.554,1112.613,0.511,1.191
0.992000,1148363,1000.00,12,0,1,1320.681,0.979,3.542,1112.229,-0.218,1.163
0.993000,1148364,1000.00,12,0,1,1320.200,-2.823,3.493,1113.070,0.577,1.165
0.994000,1148365,1000.00,12,0,1,1324.476,0.529,3.446,1113.478,0.999,1.172
0.995000,1148366,1000.00,12,0,1,1327.719,1.856,3.439,1113.502,0.748,1.169
0.996000,1148367,1000.00,12,0,1,1330.241,2.407,3.455,1113.983,1.021,1.161
0.997000,1148368,1000.00,12,0,1,1330.409,1.424,3.460,1114.295,1.085,1.164
0.998000,1148369,1000.00,12,0,1,1329.160,-1.086,3.461,1115.088,1.467,1.177
0.999000,1148370,1000.00,12,0,1,1325.965,-3.705,3.474,1112.662,-0.447,1.165
1.000000,1148371,1000.00,12,0,1,1325.965,-4.060,3.467,1112.854,-1.217,1.152
1.001000,1148372,1000.00,12,0,1,1326.325,-1.735,3.460,1114.103,0.585,1.132
1.002000,1148373,1000.00,12,0,1,1323.035,-3.327,3.490,1113.766,0.096,1.132
1.003000,1148374,1000.00,12,0,1,1320.512,-4.017,3.493,1116.072,1.634,1.144
1.004000,1148375,1000.00,12,0,1,1321.665,-1.148,3.435,1117.346,3.086,1.221
1.005000,1148376,1000.00,12,0,1,1324.524,3.230,3.465,1113.046,-0.938,1.223
1.006000,1148377,1000.00,12,0,1,1323.347,3.787,3.504,1112.589,-2.354,1.248
1.007000,1148378,1000.00,12,0,1,1319.407,0.556,3.481,1112.541,-1.282,1.247
1.008000,1148379,1000.00,12,0,1,1320.368,1.267,3.484,1111.749,-2.180,1.284
1.009000,1148380,1000.00,12,0,1,1320.657,2.375,3.497,1111.917,-1.582,1.300
1.010000,1148381,1000.00,12,0,1,1320.608,1.250,3.486,1114.703,0.796,1.304
1.011000,1148382,1000.00,12,0,1,1323.155,2.590,3.420,1114.295,1.164,1.295
1.012000,1148383,1000.00,12,0,1,1327.454,4.845,3.418,1111.388,-1.875,1.321
1.013000,1148384,1000.00,12,0,1,1329.496,4.979,3.402,1112.589,-1.178,1.332
1.014000,1148385,1000.00,12,0,1,1329.016,2.164,3.289,1112.854,0.015,1.331
1.015000,1148386,1000.00,12,0,1,1329.376,0.172,3.213,1110.980,-1.943,1.355
1.016000,1148387,1000.00,12,0,1,1330.313,-0.415,3.146,1113.430,0.001,1.351
1.017000,1148388,1000.00,12,0,1,1329.880,-1.891,3.086,1113.791,1.181,1.344
1.018000,1148389,1000.00,12,0,1,1326.902,-4.804,3.111,1114.463,0.869,1.342
1.019000,1148390,1000.00,12,0,1,1326.157,-5.757,3.215,1115.040,1.727,1.360
1.020000,1148391,1000.00,12,0,1,1328.968,-2.195,3.175,1113.959,0.367,1.361
1.021000,1148392,1000.00,12,0,1,1329.496,-0.225,3.128,1112.638,-0.918,1.364
1.022000,1148393,1000.00,12,0,1,1326.013,-2.106,3.082,1111.509,-1.782,1.383
1.023000,1148394,1000.00,12,0,1,1324.692,-2.345,3.008,1113.190,-0.450,1.356
1.024000,1148395,1000.00,12,0,1,1324.716,-0.284,2.820,1112.205,-0.263,1.343
1.025000,1148396,1000.00,12,0,1,1323.971,0.487,2.619,1110.788,-2.064,1.374
1.026000,1148397,1000.00,12,0,1,1325.172,2.389,2.624,1112.662,-0.014,1.348
1.027000,1148398,1000.00,12,0,1,1324.452,2.952,2.657,1112.301,0.330,1.347
1.028000,1148399,1000.00,12,0,1,1319.792,-1.014,2.658,1112.061,-0.303,1.344
1.029000,1148400,1000.00,12,0,1,1318.807,-2.400,2.679,1112.421,0.432,1.345
1.030000,1148401,1000.00,12,0,1,1317.726,-2.522,2.677,1113.262,0.935,1.344
1.031000,1148402,1000.00,12,0,1,1319.071,-2.381,2.656,1112.085,0.305,1.341
1.032000,1148403,1000.00,12,0,1,1321.882,0.078,2.654,1113.070,0.384,1.304
1.033000,1148404,1000.00,12,0,1,1322.650,-0.278,2.649,1114.559,2.155,1.284
1.034000,1148405,1000.00,12,0,1,1325.653,0.634,2.628,1112.493,0.201,1.179
1.035000,1148406,1000.00,12,0,1,1327.767,1.766,2.602,1113.622,0.249,1.179
1.036000,1148407,1000.00,12,0,1,1330.121,1.841,2.584,1112.950,0.586,1.170
1.037000,1148408,1000.00,12,0,1,1330.577,1.705,2.586,1113.022,-0.441,1.171
1.038000,1148409,1000.00,12,0,1,1332.979,2.028,2.597,1112.710,0.054,1.170
1.039000,1148410,1000.00,12,0,1,1331.178,1.174,2.584,1112.734,-0.536,1.172
1.040000,1148411,1000.00,12,0,1,1326.397,-3.703,2.594,1113.382,0.393,1.165
1.041000,1148412,1000.00,12,0,1,1323.731,-4.988,2.605,1112.830,-0.074,1.163
1.042000,1148413,1000.00,12,0,1,1322.866,-3.997,2.662,1113.094,-0.093,1.162
1.043000,1148414,1000.00,12,0,1,1323.395,-1.661,2.642,1114.463,1.278,1.173
1.044000,1148415,1000.00,12,0,1,1321.569,-0.847,2.644,1114.944,1.596,1.187
1.045000,1148416,1000.00,12,0,1,1321.641,0.028,2.631,1113.815,0.560,1.184
1.046000,1148417,1000.00,12,0,1,1323.083,3.172,2.647,1115.352,1.163,1.187
1.047000,1148418,1000.00,12,0,1,1322.794,3.452,2.684,1113.550,0.454,1.179
1.048000,1148419,1000.00,12,0,1,1320.104,1.489,2.688,1111.989,-1.979,1.194
1.049000,1148420,1000.00,12,0,1,1320.969,1.323,2.643,1112.133,-1.190,1.204
1.050000,1148421,1000.00,12,0,1,1322.939,3.145,2.618,1112.950,-0.550,1.194
1.051000,1148422,1000.00,12,0,1,1323.347,2.273,2.626,1111.941,-0.892,1.198
1.052000,1148423,1000.00,12,0,1,1324.236,1.507,2.593,1113.598,-0.048,1.198
1.053000,1148424,1000.00,12,0,1,1329.088,3.769,2.585,1112.133,-0.298,1.176
1.054000,1148425,1000.00,12,0,1,1331.442,4.619,2.661,1110.019,-2.867,1.165
1.055000,1148426,1000.00,12,0,1,1331.130,1.864,2.635,1112.686,-0.432,1.159
1.056000,1148427,1000.00,12,0,1,1330.529,-0.354,2.581,1112.349,0.327,1.111
1.057000,1148428,1000.00,12,0,1,1330.889,-1.299,2.586,1113.142,-0.064,1.096
1.058000,1148429,1000.00,12,0,1,1332.763,-0.324,2.580,1112.133,0.147,1.052
1.059000,1148430,1000.00,12,0,1,1330.529,-1.717,2.570,1111.701,-1.234,1.043
1.060000,1148431,1000.00,12,0,1,1330.001,-2.836,2.595,1113.574,0.962,1.046
1.061000,1148432,1000.00,12,0,1,1329.112,-1.739,2.581,1114.127,1.442,1.052
1.062000,1148433,1000.00,12,0,1,1327.839,-2.220,2.508,1112.013,-0.379,1.020
1.063000,1148434,1000.00,12,0,1,1325.629,-2.137,2.426,1113.214,0.024,1.006
1.064000,1148435,1000.00,12,0,1,1323.995,-2.369,2.429,1110.812,-0.884,1.014
1.065000,1148436,1000.00,12,0,1,1323.203,-1.236,2.436,1114.271,0.584,0.980
1.066000,1148437,1000.00,12,0,1,1325.605,1.755,2.448,1114.055,2.424,1.038
1.067000,1148438,1000.00,12,0,1,1324.140,2.101,2.451,1112.349,-0.637,1.028
1.068000,1148439,1000.00,12,0,1,1321.545,-0.704,2.357,1113.022,0.423,1.023
1.069000,1148440,1000.00,12,0,1,1321.834,-0.427,2.213,1113.454,0.812,1.000
1.070000,1148441,1000.00,12,0,1,1322.842,0.314,2.191,1113.406,0.583,1.002
1.071000,1148442,1000.00,12,0,1,1323.923,0.341,2.192,1112.373,-0.099,0.993
1.072000,1148443,1000.00,12,0,1,1326.494,1.433,2.181,1112.229,-0.750,0.967
1.073000,1148444,1000.00,12,0,1,1329.112,2.275,2.179,1111.989,-0.379,0.966
1.074000,1148445,1000.00,12,0,1,1331.009,2.277,2.203,1111.941,-0.822,0.972
1.075000,1148446,1000.00,12,0,1,1330.145,0.005,2.201,1112.061,-0.293,0.928
1.076000,1148447,1000.00,12,0,1,1330.817,-1.232,2.182,1111.148,-1.158,0.943
1.077000,1148448,1000.00,12,0,1,1332.811,-0.050,2.142,1113.526,0.599,0.945
1.078000,1148449,1000.00,12,0,1,1330.049,-2.398,2.164,1113.502,1.325,0.963
1.079000,1148450,1000.00,12,0,1,1327.094,-5.443,2.272,1112.301,-0.506,0.963
1.080000,1148451,1000.00,12,0,1,1326.157,-4.926,2.349,1112.229,-0.414,0.956
1.081000,1148452,1000.00,12,0,1,1328.559,-1.743,2.338,1114.679,1.378,0.975
1.082000,1148453,1000.00,12,0,1,1330.865,2.311,2.361,1114.223,1.577,0.999
1.083000,1148454,1000.00,12,0,1,1329.568,2.366,2.384,1112.181,-0.900,0.959
1.084000,1148455,1000.00,12,0,1,1328.535,2.073,2.400,1111.893,-1.128,0.972
1.085000,1148456,1000.00,12,0,1,1326.061,1.305,2.394,1111.268,-1.227,0.987
1.086000,1148457,1000.00,12,0,1,1323.995,-0.175,2.380,1111.821,-0.864,0.991
1.087000,1148458,1000.00,12,0,1,1319.792,-2.376,2.392,1111.629,-0.297,0.990
1.088000,1148459,1000.00,12,0,1,1320.416,-2.309,2.397,1113.550,0.837,0.997
1.089000,1148460,1000.00,12,0,1,1319.888,-0.997,2.395,1112.109,0.652,0.998
1.090000,1148461,1000.00,12,0,1,1321.449,-0.922,2.341,1112.085,-0.555,1.000
1.091000,1148462,1000.00,12,0,1,1321.978,0.116,2.232,1112.277,0.524,1.003
1.092000,1148463,1000.00,12,0,1,1326.397,1.785,2.174,1111.989,-0.210,1.003
1.093000,1148464,1000.00,12,0,1,1329.640,4.351,2.247,1112.541,0.394,0.988
1.094000,1148465,1000.00,12,0,1,1327.743,0.734,2.246,1112.902,0.712,0.967
1.095000,1148466,1000.00,12,0,1,1329.016,-0.475,2.247,1112.734,0.355,0.965
1.096000,1148467,1000.00,12,0,1,1333.123,2.482,2.230,1112.950,0.442,0.953
1.097000,1148468,1000.00,12,0,1,1331.586,0.481,2.177,1112.782,0.157,0.951
1.098000,1148469,1000.00,12,0,1,1330.529,-1.717,2.180,1113.718,0.732,0.915
1.099000,1148470,1000.00,12,0,1,1331.250,-0.787,2.175,1114.055,1.056,0.912
1.100000,1148471,1000.00,12,0,1,1329.280,-1.617,2.141,1113.478,0.302,0.909
1.101000,1148472,1000.00,12,0,1,1324.332,-4.982,2.231,1112.950,-0.351,0.902
1.102000,1148473,1000.00,12,0,1,1323.083,-4.847,2.324,1113.791,0.260,0.903
1.103000,1148474,1000.00,12,0,1,1323.995,-1.621,2.274,1114.127,0.719,0.907
1.104000,1148475,1000.00,12,0,1,1323.611,0.014,2.178,1113.718,0.207,0.812
1.105000,1148476,1000.00,12,0,1,1320.753,-0.840,2.166,1113.887,0.209,0.811
1.106000,1148477,1000.00,12,0,1,1318.927,-1.425,2.174,1113.694,0.184,0.810
1.107000,1148478,1000.00,12,0,1,1319.263,0.017,2.167,1111.869,-1.343,0.832
1.108000,1148479,1000.00,12,0,1,1320.248,1.589,2.178,1111.749,-1.615,0.862
1.109000,1148480,1000.00,12,0,1,1320.200,1.625,2.176,1110.740,-1.733,0.879
1.110000,1148481,1000.00,12,0,1,1319.960,0.830,2.142,1110.836,-1.839,0.907
1.111000,1148482,1000.00,12,0,1,1319.984,0.050,2.128,1111.893,-0.291,0.884
1.112000,1148483,1000.00,12,0,1,1323.299,1.554,2.116,1112.541,0.342,0.884
1.113000,1148484,1000.00,12,0,1,1328.752,5.112,2.216,1112.301,0.223,0.885
1.114000,1148485,1000.00,12,0,1,1331.250,5.735,2.336,1111.965,-0.210,0.876
1.115000,1148486,1000.00,12,0,1,1331.346,3.493,2.381,1111.725,-0.431,0.875
1.116000,1148487,1000.00,12,0,1,1332.210,2.345,2.391,1112.013,-0.206,0.805
1.117000,1148488,1000.00,12,0,1,1331.370,0.663,2.374,1112.349,0.113,0.800
1.118000,1148489,1000.00,12,0,1,1328.968,-2.210,2.393,1112.253,0.048,0.798
1.119000,1148490,1000.00,12,0,1,1326.926,-3.834,2.453,1113.670,0.948,0.801
1.120000,1148491,1000.00,12,0,1,1326.205,-3.602,2.505,1114.727,2.070,0.849
1.121000,1148492,1000.00,12,0,1,1325.725,-2.495,2.529,1112.109,-0.291,0.850
1.122000,1148493,1000.00,12,0,1,1323.107,-2.929,2.555,1111.845,-1.228,0.861
1.123000,1148494,1000.00,12,0,1,1321.882,-2.657,2.562,1114.055,1.169,0.875
1.124000,1148495,1000.00,12,0,1,1320.921,-1.219,2.547,1112.878,0.507,0.870
1.125000,1148496,1000.00,12,0,1,1320.608,-0.225,2.548,1111.677,-1.039,0.881
1.126000,1148497,1000.00,12,0,1,1318.759,-0.105,2.542,1110.692,-1.356,0.887
1.127000,1148498,1000.00,12,0,1,1318.927,0.236,2.542,1109.947,-1.931,0.924
1.128000,1148499,1000.00,12,0,1,1317.510,0.231,2.519,1112.157,0.203,0.906
1.129000,1148500,1000.00,12,0,1,1319.720,1.066,2.404,1111.509,0.526,0.906
1.130000,1148501,1000.00,12,0,1,1322.362,3.707,2.359,1111.172,-0.460,0.906
1.131000,1148502,1000.00,12,0,1,1321.761,1.826,2.361,1111.076,0.067,0.885
1.132000,1148503,1000.00,12,0,1,1322.578,0.716,2.340,1111.292,-0.073,0.857
1.133000,1148504,1000.00,12,0,1,1324.692,1.398,2.325,1112.638,1.208,0.864
1.134000,1148505,1000.00,12,0,1,1328.223,2.575,2.335,1112.806,1.361,0.871
1.135000,1148506,1000.00,12,0,1,1330.073,3.186,2.371,1114.655,2.212,0.909
1.136000,1148507,1000.00,12,0,1,1332.090,2.786,2.403,1111.581,0.238,0.901
1.137000,1148508,1000.00,12,0,1,1330.313,0.942,2.383,1111.388,-1.626,0.929
1.138000,1148509,1000.00,12,0,1,1325.965,-3.986,2.427,1112.277,0.313,0.923
1.139000,1148510,1000.00,12,0,1,1329.760,-1.083,2.428,1110.836,-1.320,0.937
1.140000,1148511,1000.00,12,0,1,1330.481,1.821,2.438,1111.941,-0.509,0.936
1.141000,1148512,1000.00,12,0,1,1327.574,-0.871,2.441,1114.055,1.729,0.965
1.142000,1148513,1000.00,12,0,1,1323.779,-2.521,2.454,1113.574,1.276,0.981
1.143000,1148514,1000.00,12,0,1,1322.218,-2.940,2.412,1111.557,-0.631,0.984
1.144000,1148515,1000.00,12,0,1,1322.002,-0.952,2.413,1112.349,-0.373,0.980
1.145000,1148516,1000.00,12,0,1,1325.076,2.600,2.440,1112.253,0.365,0.980
1.146000,1148517,1000.00,12,0,1,1324.380,3.742,2.472,1113.286,0.617,0.982
1.147000,1148518,1000.00,12,0,1,1321.329,0.594,2.472,1112.397,0.658,0.986
1.148000,1148519,1000.00,12,0,1,1321.449,0.471,2.461,1111.388,-0.916,0.989
1.149000,1148520,1000.00,12,0,1,1320.849,0.169,2.459,1111.581,-0.344,0.979
1.150000,1148521,1000.00,12,0,1,1320.320,-1.416,2.456,1113.550,1.153,0.991
1.151000,1148522,1000.00,12,0,1,1324.788,1.421,2.362,1112.830,1.017,1.001
1.152000,1148523,1000.00,12,0,1,1325.725,1.800,2.274,1112.061,-0.398,1.002
1.153000,1148524,1000.00,12,0,1,1327.094,0.456,2.264,1112.325,-0.057,0.996
1.154000,1148525,1000.00,12,0,1,1329.544,1.508,2.274,1114.271,1.308,1.013
1.155000,1148526,1000.00,12,0,1,1327.214,-1.633,2.282,1114.439,1.600,1.038
1.156000,1148527,1000.00,12,0,1,1328.559,-2.504,2.301,1113.022,-0.168,1.037
1.157000,1148528,1000.00,12,0,1,1328.631,-1.589,2.312,1113.718,-0.091,1.020
1.158000,1148529,1000.00,12,0,1,1330.361,-1.302,2.308,1113.863,0.379,0.996
1.159000,1148530,1000.00,12,0,1,1330.313,0.157,2.297,1113.863,-0.186,0.965
1.160000,1148531,1000.00,12,0,1,1327.767,-2.062,2.312,1111.581,-1.639,0.958
1.161000,1148532,1000.00,12,0,1,1325.293,-2.893,2.348,1111.821,-2.175,1.005
1.162000,1148533,1000.00,12,0,1,1323.035,-3.318,2.385,1113.286,0.043,1.004
1.163000,1148534,1000.00,12,0,1,1321.930,-2.566,2.301,1112.782,-0.359,1.005
1.164000,1148535,1000.00,12,0,1,1320.440,-1.689,2.167,1112.830,-0.377,1.006
1.165000,1148536,1000.00,12,0,1,1319.239,-1.434,2.119,1111.340,-1.126,1.017
1.166000,1148537,1000.00,12,0,1,1320.608,1.054,2.099,1112.253,-0.826,1.023
1.167000,1148538,1000.00,12,0,1,1321.569,2.780,2.133,1112.613,0.484,1.025
1.168000,1148539,1000.00,12,0,1,1322.122,3.120,2.156,1110.163,-1.780,1.056
1.169000,1148540,1000.00,12,0,1,1323.323,3.501,2.144,1111.100,-1.163,1.060
1.170000,1148541,1000.00,12,0,1,1324.764,3.693,2.147,1112.758,1.004,1.028
1.171000,1148542,1000.00,12,0,1,1325.220,2.653,2.151,1113.502,1.412,1.047
1.172000,1148543,1000.00,12,0,1,1325.797,1.341,2.119,1111.629,0.012,1.032
1.173000,1148544,1000.00,12,0,1,1328.079,1.543,2.097,1112.830,0.080,1.019
1.174000,1148545,1000.00,12,0,1,1328.776,0.936,2.094,1113.550,1.467,1.038
1.175000,1148546,1000.00,12,0,1,1332.955,2.246,2.118,1110.908,-1.235,1.042
1.176000,1148547,1000.00,12,0,1,1334.516,3.373,2.171,1112.974,-0.178,1.024
1.177000,1148548,1000.00,12,0,1,1335.549,2.102,2.191,1113.598,1.405,1.007
1.178000,1148549,1000.00,12,0,1,1335.333,1.831,2.206,1114.103,0.767,1.012
1.179000,1148550,1000.00,12,0,1,1328.079,-4.369,2.286,1113.526,0.827,1.017
1.180000,1148551,1000.00,12,0,1,1323.203,-8.772,2.547,1112.854,-0.493,1.017
1.181000,1148552,1000.00,12,0,1,1322.914,-6.563,2.699,1113.310,0.141,1.017
1.182000,1148553,1000.00,12,0,1,1324.284,-3.305,2.737,1112.950,-0.073,1.017
1.183000,1148554,1000.00,12,0,1,1323.515,-1.362,2.737,1112.998,-0.180,1.003
1.184000,1148555,1000.00,12,0,1,1322.866,-0.809,2.715,1113.214,0.298,0.985
1.185000,1148556,1000.00,12,0,1,1322.410,0.529,2.678,1110.788,-1.565,0.960
1.186000,1148557,1000.00,12,0,1,1320.512,-0.217,2.649,1111.605,-1.267,0.976
1.187000,1148558,1000.00,12,0,1,1321.137,0.511,2.647,1112.782,0.667,0.953
1.188000,1148559,1000.00,12,0,1,1322.458,2.195,2.605,1114.487,1.727,0.983
1.189000,1148560,1000.00,12,0,1,1319.383,-0.649,2.602,1113.887,1.626,0.992
1.190000,1148561,1000.00,12,0,1,1320.488,-1.311,2.596,1111.533,-0.995,0.999
1.191000,1148562,1000.00,12,0,1,1324.164,1.759,2.605,1111.340,-1.373,0.988
1.192000,1148563,1000.00,12,0,1,1327.166,2.865,2.612,1112.181,-0.295,0.973
1.193000,1148564,1000.00,12,0,1,1329.304,3.192,2.618,1112.565,-0.014,0.968
1.194000,1148565,1000.00,12,0,1,1330.193,2.194,2.633,1111.533,-0.716,0.972
1.195000,1148566,1000.00,12,0,1,1331.322,1.419,2.615,1112.758,-0.237,0.972
1.196000,1148567,1000.00,12,0,1,1331.850,0.927,2.564,1113.526,1.024,0.978
1.197000,1148568,1000.00,12,0,1,1335.309,2.500,2.587,1112.565,-0.240,0.975
1.198000,1148569,1000.00,12,0,1,1330.937,-0.177,2.586,1113.286,0.149,0.966
1.199000,1148570,1000.00,12,0,1,1327.526,-4.779,2.673,1112.133,-0.413,0.967
1.200000,1148571,1000.00,12,0,1,1325.557,-4.169,2.730,1111.028,-1.804,0.986
1.201000,1148572,1000.00,12,0,1,1322.698,-5.458,2.830,1112.301,-0.377,0.977
1.202000,1148573,1000.00,12,0,1,1324.116,-2.449,2.839,1112.638,0.339,0.977
1.203000,1148574,1000.00,12,0,1,1323.491,-0.192,2.839,1112.686,0.271,0.978
1.204000,1148575,1000.00,12,0,1,1323.371,0.321,2.831,1113.454,1.029,0.971
1.205000,1148576,1000.00,12,0,1,1320.392,0.041,2.822,1114.247,1.690,0.974
1.206000,1148577,1000.00,12,0,1,1317.678,-2.403,2.820,1112.493,0.338,0.975
1.207000,1148578,1000.00,12,0,1,1316.189,-2.215,2.828,1111.773,-0.838,0.982
1.208000,1148579,1000.00,12,0,1,1320.368,0.925,2.825,1113.334,0.767,0.986
1.209000,1148580,1000.00,12,0,1,1323.731,4.742,2.904,1112.301,0.249,0.987
1.210000,1148581,1000.00,12,0,1,1325.437,4.404,2.955,1112.349,-0.365,0.960
1.211000,1148582,1000.00,12,0,1,1326.157,3.659,2.972,1113.694,1.139,0.924
1.212000,1148583,1000.00,12,0,1,1330.961,5.153,3.024,1113.935,1.136,0.938
1.213000,1148584,1000.00,12,0,1,1333.123,5.856,3.114,1113.142,0.250,0.937
1.214000,1148585,1000.00,12,0,1,1326.854,-1.574,3.113,1110.283,-2.231,0.987
1.215000,1148586,1000.00,12,0,1,1331.154,-1.347,3.113,1112.397,-1.162,0.988
1.216000,1148587,1000.00,12,0,1,1330.457,0.262,3.109,1112.734,0.460,0.983
1.217000,1148588,1000.00,12,0,1,1326.205,-5.872,3.194,1113.022,-0.309,0.982
1.218000,1148589,1000.00,12,0,1,1325.605,-5.056,3.243,1112.061,-0.369,0.951
1.219000,1148590,1000.00,12,0,1,1326.662,-3.302,3.239,1110.259,-2.380,0.995
1.220000,1148591,1000.00,12,0,1,1325.989,-1.942,3.208,1112.181,-0.665,0.989
1.221000,1148592,1000.00,12,0,1,1325.653,-1.093,3.190,1112.638,0.627,0.973
1.222000,1148593,1000.00,12,0,1,1324.812,-0.023,3.185,1113.791,0.920,0.982
1.223000,1148594,1000.00,12,0,1,1324.236,0.785,3.179,1112.013,0.317,0.982
1.224000,1148595,1000.00,12,0,1,1321.858,0.211,3.176,1111.893,-0.892,0.969
1.225000,1148596,1000.00,12,0,1,1321.353,0.387,3.161,1110.500,-0.847,0.960
1.226000,1148597,1000.00,12,0,1,1319.504,0.093,3.125,1110.596,-1.492,0.983
1.227000,1148598,1000.00,12,0,1,1320.152,0.365,3.111,1112.133,0.716,0.968
1.228000,1148599,1000.00,12,0,1,1320.993,1.660,3.109,1112.517,1.059,0.973
1.229000,1148600,1000.00,12,0,1,1323.227,2.501,3.068,1110.187,-0.768,0.972
1.230000,1148601,1000.00,12,0,1,1326.349,4.311,2.871,1109.419,-1.775,1.002
1.231000,1148602,1000.00,12,0,1,1326.325,2.942,2.749,1111.220,0.088,1.002
1.232000,1148603,1000.00,12,0,1,1326.902,1.004,2.712,1111.725,1.007,1.012
1.233000,1148604,1000.00,12,0,1,1324.644,-1.661,2.716,1111.605,0.465,1.014
1.234000,1148605,1000.00,12,0,1,1325.725,-3.123,2.749,1111.917,0.813,1.019
1.235000,1148606,1000.00,12,0,1,1329.520,0.316,2.748,1113.142,1.452,1.016
1.236000,1148607,1000.00,12,0,1,1330.769,0.705,2.750,1112.181,0.905,1.008
1.237000,1148608,1000.00,12,0,1,1330.649,0.136,2.749,1111.388,-0.544,1.007
1.238000,1148609,1000.00,12,0,1,1329.088,-1.099,2.736,1111.268,-0.354,0.978
1.239000,1148610,1000.00,12,0,1,1329.016,-1.066,2.738,1110.980,-0.683,0.955
1.240000,1148611,1000.00,12,0,1,1330.217,1.170,2.737,1112.181,0.339,0.946
1.241000,1148612,1000.00,12,0,1,1326.806,-0.374,2.726,1112.061,0.656,0.931
1.242000,1148613,1000.00,12,0,1,1320.681,-4.680,2.776,1110.812,-0.679,0.935
1.243000,1148614,1000.00,12,0,1,1318.399,-5.261,2.838,1112.301,0.502,0.937
1.244000,1148615,1000.00,12,0,1,1317.246,-3.685,2.869,1112.109,0.941,0.941
1.245000,1148616,1000.00,12,0,1,1317.366,-2.185,2.879,1111.941,0.263,0.941
1.246000,1148617,1000.00,12,0,1,1320.560,1.850,2.888,1112.037,0.662,0.935
1.247000,1148618,1000.00,12,0,1,1316.789,0.097,2.866,1114.295,2.109,0.981
1.248000,1148619,1000.00,12,0,1,1316.477,-1.837,2.877,1113.670,2.113,1.025
1.249000,1148620,1000.00,12,0,1,1322.002,3.479,2.840,1113.334,0.712,1.028
1.250000,1148621,1000.00,12,0,1,1323.707,4.331,2.845,1113.406,0.984,1.006
1.251000,1148622,1000.00,12,0,1,1325.413,3.561,2.784,1113.070,0.263,1.005
1.252000,1148623,1000.00,12,0,1,1328.607,4.750,2.843,1114.271,0.948,1.013
1.253000,1148624,1000.00,12,0,1,1330.145,4.093,2.901,1115.544,2.026,1.052
1.254000,1148625,1000.00,12,0,1,1328.439,0.952,2.904,1115.736,1.632,1.067
1.255000,1148626,1000.00,12,0,1,1330.265,0.280,2.904,1112.806,-0.926,1.048
1.256000,1148627,1000.00,12,0,1,1332.427,2.074,2.899,1112.277,-2.379,1.100
1.257000,1148628,1000.00,12,0,1,1327.767,-2.250,2.900,1113.983,-0.281,1.094
1.258000,1148629,1000.00,12,0,1,1325.389,-5.060,2.984,1111.989,-1.712,1.115
1.259000,1148630,1000.00,12,0,1,1326.830,-2.268,2.925,1112.734,-1.739,1.141
1.260000,1148631,1000.00,12,0,1,1326.806,-0.803,2.860,1113.983,0.244,1.141
1.261000,1148632,1000.00,12,0,1,1321.593,-3.452,2.855,1113.382,-0.499,1.132
1.262000,1148633,1000.00,12,0,1,1320.104,-4.075,2.820,1112.181,-1.377,1.137
1.263000,1148634,1000.00,12,0,1,1319.359,-1.777,2.707,1112.325,-1.338,1.152
1.264000,1148635,1000.00,12,0,1,1320.320,-0.043,2.698,1112.974,-0.356,1.109
1.265000,1148636,1000.00,12,0,1,1320.512,2.011,2.706,1113.262,0.003,1.097
1.266000,1148637,1000.00,12,0,1,1319.912,1.612,2.716,1112.061,-0.822,1.101
1.267000,1148638,1000.00,12,0,1,1321.521,2.906,2.618,1110.740,-1.985,1.136
1.268000,1148639,1000.00,12,0,1,1324.260,4.879,2.611,1111.557,-1.164,1.146
1.269000,1148640,1000.00,12,0,1,1324.812,4.230,2.638,1110.668,-1.145,1.108
1.270000,1148641,1000.00,12,0,1,1325.052,2.609,2.650,1111.557,-0.860,1.110
1.271000,1148642,1000.00,12,0,1,1326.061,1.674,2.656,1112.950,1.092,1.117
1.272000,1148643,1000.00,12,0,1,1327.935,1.584,2.665,1112.373,0.413,1.111
1.273000,1148644,1000.00,12,0,1,1326.758,-0.705,2.665,1113.334,0.879,1.117
1.274000,1148645,1000.00,12,0,1,1330.745,0.343,2.665,1114.055,1.695,1.136
1.275000,1148646,1000.00,12,0,1,1332.090,1.843,2.677,1113.022,0.468,1.131
1.276000,1148647,1000.00,12,0,1,1331.970,-0.177,2.677,1113.454,0.435,1.113
1.277000,1148648,1000.00,12,0,1,1331.057,-0.763,2.679,1112.541,-0.034,1.109
1.278000,1148649,1000.00,12,0,1,1331.178,-1.060,2.673,1112.133,-0.855,1.105
1.279000,1148650,1000.00,12,0,1,1331.033,-0.203,2.649,1112.998,0.176,1.100
1.280000,1148651,1000.00,12,0,1,1329.448,-0.734,2.580,1112.950,0.278,1.072
1.281000,1148652,1000.00,12,0,1,1326.421,-2.211,2.566,1114.031,0.923,1.080
1.282000,1148653,1000.00,12,0,1,1320.657,-5.363,2.672,1112.613,0.258,1.071
1.283000,1148654,1000.00,12,0,1,1318.855,-5.933,2.790,1112.589,-0.568,1.072
1.284000,1148655,1000.00,12,0,1,1319.504,-2.586,2.779,1112.445,0.091,1.066
1.285000,1148656,1000.00,12,0,1,1320.128,-0.867,2.782,1110.596,-1.667,1.072
1.286000,1148657,1000.00,12,0,1,1319.480,-0.128,2.780,1111.172,-1.175,1.077
1.287000,1148658,1000.00,12,0,1,1317.462,-1.722,2.791,1112.325,0.408,1.076
1.288000,1148659,1000.00,12,0,1,1317.918,-1.546,2.795,1112.926,0.827,1.081
1.289000,1148660,1000.00,12,0,1,1321.161,1.032,2.795,1113.550,1.368,1.094
1.290000,1148661,1000.00,12,0,1,1321.521,0.943,2.793,1111.869,-0.079,1.093
1.291000,1148662,1000.00,12,0,1,1323.419,0.646,2.794,1112.782,-0.005,1.089
1.292000,1148663,1000.00,12,0,1,1327.599,3.189,2.752,1113.382,1.089,1.096
1.293000,1148664,1000.00,12,0,1,1328.247,2.527,2.673,1113.622,0.682,1.098
1.294000,1148665,1000.00,12,0,1,1329.712,1.571,2.631,1115.304,1.970,1.125
1.295000,1148666,1000.00,12,0,1,1329.544,0.994,2.617,1113.742,0.759,1.129
1.296000,1148667,1000.00,12,0,1,1330.889,0.550,2.605,1111.893,-1.658,1.149
1.297000,1148668,1000.00,12,0,1,1329.232,-0.071,2.605,1112.589,-0.886,1.117
1.298000,1148669,1000.00,12,0,1,1330.409,-0.109,2.592,1114.727,0.990,1.086
1.299000,1148670,1000.00,12,0,1,1329.616,1.160,2.550,1114.175,0.924,1.089
1.300000,1148671,1000.00,12,0,1,1329.520,0.848,2.478,1111.893,-1.485,1.100
1.301000,1148672,1000.00,12,0,1,1324.452,-1.134,2.432,1111.220,-2.019,1.136
1.302000,1148673,1000.00,12,0,1,1321.786,-3.469,2.388,1111.893,-1.054,1.138
1.303000,1148674,1000.00,12,0,1,1320.729,-1.742,2.330,1112.710,-0.035,1.101
1.304000,1148675,1000.00,12,0,1,1320.440,-0.887,2.329,1111.148,-0.923,1.084
1.305000,1148676,1000.00,12,0,1,1322.794,2.169,2.349,1112.061,-0.642,1.080
1.306000,1148677,1000.00,12,0,1,1320.633,1.641,2.342,1112.061,0.318,1.028
1.307000,1148678,1000.00,12,0,1,1317.005,-2.496,2.347,1112.710,0.233,1.027
1.308000,1148679,1000.00,12,0,1,1314.747,-3.983,2.306,1111.869,0.189,0.999
1.309000,1148680,1000.00,12,0,1,1315.708,-3.875,2.348,1114.151,1.166,0.982
1.310000,1148681,1000.00,12,0,1,1318.110,-1.492,2.355,1114.583,2.396,1.038
1.311000,1148682,1000.00,12,0,1,1320.993,-0.084,2.304,1111.076,-1.313,1.052
1.312000,1148683,1000.00,12,0,1,1321.954,0.159,2.230,1112.565,-0.817,1.041
1.313000,1148684,1000.00,12,0,1,1324.428,0.465,2.217,1112.253,0.153,1.024
1.314000,1148685,1000.00,12,0,1,1326.013,1.362,2.226,1111.461,-1.507,1.044
1.315000,1148686,1000.00,12,0,1,1327.959,1.565,2.218,1112.710,0.131,1.044
1.316000,1148687,1000.00,12,0,1,1330.577,3.347,2.257,1113.742,0.906,1.046
1.317000,1148688,1000.00,12,0,1,1332.883,4.739,2.318,1113.190,0.594,1.011
1.318000,1148689,1000.00,12,0,1,1332.235,4.062,2.286,1112.253,-0.518,1.000
1.319000,1148690,1000.00,12,0,1,1330.937,2.612,2.237,1112.950,0.035,0.987
1.320000,1148691,1000.00,12,0,1,1330.529,2.675,2.239,1112.854,0.338,0.981
1.321000,1148692,1000.00,12,0,1,1333.460,5.565,2.361,1111.893,-0.651,0.973
1.322000,1148693,1000.00,12,0,1,1327.887,2.669,2.381,1111.773,-0.616,0.975
1.323000,1148694,1000.00,12,0,1,1319.119,-5.371,2.497,1111.533,-0.572,0.970
1.324000,1148695,1000.00,12,0,1,1320.008,-3.710,2.551,1110.812,-0.987,0.951
1.325000,1148696,1000.00,12,0,1,1321.089,-0.122,2.538,1111.485,-0.395,0.950
1.326000,1148697,1000.00,12,0,1,1320.512,-0.551,2.539,1111.388,0.035,0.948
1.327000,1148698,1000.00,12,0,1,1323.299,2.019,2.553,1110.476,-0.859,0.956
1.328000,1148699,1000.00,12,0,1,1326.421,4.292,2.620,1110.836,-0.489,0.950
1.329000,1148700,1000.00,12,0,1,1323.275,0.882,2.622,1112.758,1.234,0.966
1.330000,1148701,1000.00,12,0,1,1322.482,-2.455,2.643,1111.124,0.276,0.966
1.331000,1148702,1000.00,12,0,1,1324.836,-1.041,2.629,1111.653,-0.265,0.958
1.332000,1148703,1000.00,12,0,1,1324.260,-2.646,2.545,1114.223,2.411,1.016
1.333000,1148704,1000.00,12,0,1,1330.865,0.614,2.404,1112.613,1.040,1.024
1.334000,1148705,1000.00,12,0,1,1333.171,3.226,2.419,1111.581,-0.749,1.029
1.335000,1148706,1000.00,12,0,1,1331.946,-0.588,2.418,1110.692,-1.015,1.012
1.336000,1148707,1000.00,12,0,1,1332.283,-0.706,2.420,1109.851,-1.968,1.036
1.337000,1148708,1000.00,12,0,1,1332.571,-0.872,2.411,1109.779,-1.523,1.057
1.338000,1148709,1000.00,12,0,1,1332.018,-0.978,2.405,1112.349,0.629,1.054
1.339000,1148710,1000.00,12,0,1,1327.719,-3.575,2.453,1112.902,1.899,1.070
1.340000,1148711,1000.00,12,0,1,1327.695,-3.340,2.494,1111.893,0.491,1.072
1.341000,1148712,1000.00,12,0,1,1326.373,-1.415,2.501,1111.653,0.300,1.073
1.342000,1148713,1000.00,12,0,1,1324.452,-2.317,2.481,1114.679,2.560,1.122
1.343000,1148714,1000.00,12,0,1,1325.196,0.343,2.456,1114.391,2.903,1.191
1.344000,1148715,1000.00,12,0,1,1325.220,1.758,2.459,1113.526,1.040,1.167
1.345000,1148716,1000.00,12,0,1,1325.749,2.720,2.484,1111.893,-0.120,1.162
1.346000,1148717,1000.00,12,0,1,1324.524,2.300,2.504,1112.253,-0.476,1.141
1.347000,1148718,1000.00,12,0,1,1318.519,-2.999,2.540,1111.412,-0.536,1.136
1.348000,1148719,1000.00,12,0,1,1318.903,-3.880,2.599,1111.292,-1.148,1.139
1.349000,1148720,1000.00,12,0,1,1322.722,0.106,2.594,1111.509,-0.535,1.134
1.350000,1148721,1000.00,12,0,1,1325.437,1.435,2.599,1109.875,-1.770,1.142
1.351000,1148722,1000.00,12,0,1,1329.328,3.228,2.634,1112.037,-0.484,1.108
1.352000,1148723,1000.00,12,0,1,1330.289,2.786,2.617,1112.229,0.848,1.105
1.353000,1148724,1000.00,12,0,1,1328.391,-1.038,2.610,1111.653,-0.631,1.108
1.354000,1148725,1000.00,12,0,1,1327.839,-2.915,2.639,1111.653,-0.156,1.101
1.355000,1148726,1000.00,12,0,1,1331.226,-0.969,2.625,1111.581,-0.521,1.099
1.356000,1148727,1000.00,12,0,1,1332.595,0.596,2.616,1114.079,1.501,1.119
1.357000,1148728,1000.00,12,0,1,1331.322,-1.035,2.596,1112.806,1.014,1.128
1.358000,1148729,1000.00,12,0,1,1330.337,-1.507,2.543,1113.094,0.020,1.127
1.359000,1148730,1000.00,12,0,1,1331.106,-0.150,2.484,1112.157,0.168,1.115
1.360000,1148731,1000.00,12,0,1,1331.202,1.342,2.482,1112.205,-0.717,1.067
1.361000,1148732,1000.00,12,0,1,1324.884,-2.383,2.505,1112.469,0.277,1.052
1.362000,1148733,1000.00,12,0,1,1320.416,-5.662,2.629,1112.181,-0.249,1.046
1.363000,1148734,1000.00,12,0,1,1323.275,-1.027,2.633,1111.941,-0.252,1.047
1.364000,1148735,1000.00,12,0,1,1322.314,0.805,2.628,1113.791,1.154,1.038
1.365000,1148736,1000.00,12,0,1,1320.801,-0.341,2.619,1113.214,1.142,1.050
1.366000,1148737,1000.00,12,0,1,1319.119,-0.473,2.577,1113.430,0.561,1.045
1.367000,1148738,1000.00,12,0,1,1319.648,-0.391,2.489,1111.989,-0.186,1.042
1.368000,1148739,1000.00,12,0,1,1318.999,-0.276,2.422,1110.908,-1.678,1.066
1.369000,1148740,1000.00,12,0,1,1320.104,-0.623,2.395,1111.124,-1.158,1.079
1.370000,1148741,1000.00,12,0,1,1321.954,0.670,2.367,1113.070,0.496,1.080
1.371000,1148742,1000.00,12,0,1,1326.301,2.636,2.263,1114.583,1.949,1.111
1.372000,1148743,1000.00,12,0,1,1328.175,3.407,2.283,1113.214,0.677,1.111
1.373000,1148744,1000.00,12,0,1,1329.712,2.295,2.177,1113.190,-0.208,1.109
1.374000,1148745,1000.00,12,0,1,1327.959,-0.085,2.113,1111.701,-0.880,1.107
1.375000,1148746,1000.00,12,0,1,1328.319,-1.703,2.127,1112.974,-0.768,1.111
1.376000,1148747,1000.00,12,0,1,1329.376,-0.528,2.127,1113.214,0.509,1.113
1.377000,1148748,1000.00,12,0,1,1328.655,-1.163,2.114,1114.415,0.560,1.109
1.378000,1148749,1000.00,12,0,1,1329.400,-0.351,2.025,1111.965,-0.555,1.110
1.379000,1148750,1000.00,12,0,1,1330.097,1.552,2.033,1111.028,-2.487,1.151
1.380000,1148751,1000.00,12,0,1,1330.817,2.700,2.040,1112.109,-0.637,1.154
1.381000,1148752,1000.00,12,0,1,1330.481,3.788,2.104,1111.388,-0.971,1.162
1.382000,1148753,1000.00,12,0,1,1328.367,2.556,2.101,1111.869,-0.721,1.115
1.383000,1148754,1000.00,12,0,1,1322.866,-0.855,2.103,1111.965,0.090,1.106
1.384000,1148755,1000.00,12,0,1,1319.648,-3.323,2.106,1113.310,0.742,1.105
1.385000,1148756,1000.00,12,0,1,1322.074,0.103,2.105,1112.229,0.679,1.100
1.386000,1148757,1000.00,12,0,1,1318.855,-0.877,2.106,1114.079,1.029,1.074
1.387000,1148758,1000.00,12,0,1,1318.711,-2.284,2.127,1113.454,1.691,1.079
1.388000,1148759,1000.00,12,0,1,1322.482,1.803,2.138,1112.902,-0.132,1.076
1.389000,1148760,1000.00,12,0,1,1324.884,2.907,2.117,1113.310,0.715,1.047
1.390000,1148761,1000.00,12,0,1,1327.863,3.870,2.135,1112.686,-0.123,1.045
1.391000,1148762,1000.00,12,0,1,1328.247,2.735,2.161,1111.220,-1.406,1.063
1.392000,1148763,1000.00,12,0,1,1330.289,1.687,2.149,1113.214,-0.038,0.999
1.393000,1148764,1000.00,12,0,1,1332.210,2.184,2.171,1113.070,0.563,0.914
1.394000,1148765,1000.00,12,0,1,1333.748,1.295,2.164,1112.013,-0.928,0.912
1.395000,1148766,1000.00,12,0,1,1331.322,-1.354,2.138,1112.541,-0.440,0.914
1.396000,1148767,1000.00,12,0,1,1330.913,-3.395,2.167,1111.461,-0.929,0.921
1.397000,1148768,1000.00,12,0,1,1330.433,-2.776,2.161,1111.893,-1.059,0.930
1.398000,1148769,1000.00,12,0,1,1332.835,-0.942,2.095,1113.358,0.853,0.923
1.399000,1148770,1000.00,12,0,1,1333.484,1.467,2.105,1112.277,-0.069,0.920
1.400000,1148771,1000.00,12,0,1,1329.904,-0.950,2.099,1112.662,-0.069,0.886
1.401000,1148772,1000.00,12,0,1,1326.205,-3.084,2.095,1113.430,0.943,0.893
1.402000,1148773,1000.00,12,0,1,1323.155,-3.801,2.127,1112.277,-0.038,0.885
1.403000,1148774,1000.00,12,0,1,1323.443,-2.195,2.144,1112.349,-0.286,0.881
1.404000,1148775,1000.00,12,0,1,1324.596,1.017,2.109,1114.199,1.479,0.906
1.405000,1148776,1000.00,12,0,1,1326.662,3.178,2.152,1112.541,0.410,0.904
1.406000,1148777,1000.00,12,0,1,1328.439,5.267,2.276,1111.509,-1.207,0.896
1.407000,1148778,1000.00,12,0,1,1324.428,1.452,2.280,1109.731,-2.006,0.928
1.408000,1148779,1000.00,12,0,1,1324.043,-0.843,2.273,1111.893,-0.785,0.935
1.409000,1148780,1000.00,12,0,1,1322.386,-1.902,2.289,1110.620,-0.338,0.936
1.410000,1148781,1000.00,12,0,1,1325.028,-2.000,2.299,1112.662,-0.022,0.930
1.411000,1148782,1000.00,12,0,1,1329.496,1.854,2.289,1112.541,1.404,0.951
1.412000,1148783,1000.00,12,0,1,1331.322,1.593,2.156,1109.251,-2.306,1.004
1.413000,1148784,1000.00,12,0,1,1331.682,0.303,2.152,1111.485,-0.692,1.008
1.414000,1148785,1000.00,12,0,1,1335.141,1.408,2.158,1111.220,0.422,0.997
1.415000,1148786,1000.00,12,0,1,1336.438,2.031,2.176,1110.572,-1.177,0.998
1.416000,1148787,1000.00,12,0,1,1331.442,-2.975,2.216,1112.734,1.273,1.011
1.417000,1148788,1000.00,12,0,1,1328.223,-6.533,2.400,1111.364,0.303,1.011
1.418000,1148789,1000.00,12,0,1,1328.247,-4.924,2.499,1112.325,0.377,0.985
1.419000,1148790,1000.00,12,0,1,1328.776,-3.000,2.533,1111.605,0.614,0.975
1.420000,1148791,1000.00,12,0,1,1331.442,0.932,2.535,1110.692,-0.886,0.980
1.421000,1148792,1000.00,12,0,1,1332.523,3.632,2.559,1110.812,-0.296,0.942
1.422000,1148793,1000.00,12,0,1,1330.481,2.841,2.545,1110.019,-0.810,0.944
1.423000,1148794,1000.00,12,0,1,1326.614,0.354,2.525,1109.443,-1.200,0.958
1.424000,1148795,1000.00,12,0,1,1323.995,-1.214,2.531,1110.980,0.316,0.951
1.425000,1148796,1000.00,12,0,1,1324.404,-0.018,2.519,1111.533,1.232,0.961
1.426000,1148797,1000.00,12,0,1,1322.674,-0.402,2.519,1113.646,2.552,1.024
1.427000,1148798,1000.00,12,0,1,1322.290,-1.314,2.520,1112.061,1.743,1.050
1.428000,1148799,1000.00,12,0,1,1323.779,0.156,2.520,1112.013,0.405,1.049
1.429000,1148800,1000.00,12,0,1,1328.727,3.146,2.549,1113.454,2.071,1.031
1.430000,1148801,1000.00,12,0,1,1328.920,3.048,2.557,1113.646,1.826,1.059
1.431000,1148802,1000.00,12,0,1,1333.099,3.182,2.541,1112.854,0.806,1.056
1.432000,1148803,1000.00,12,0,1,1333.291,3.210,2.555,1112.493,0.144,1.051
1.433000,1148804,1000.00,12,0,1,1333.868,0.181,2.553,1113.022,0.341,1.052
1.434000,1148805,1000.00,12,0,1,1334.901,0.553,2.510,1111.821,-0.444,1.049
1.435000,1148806,1000.00,12,0,1,1335.453,-0.509,2.511,1112.133,-0.852,1.051
1.436000,1148807,1000.00,12,0,1,1333.940,-1.992,2.524,1111.124,-0.933,1.050
1.437000,1148808,1000.00,12,0,1,1330.553,-4.834,2.595,1113.815,0.386,1.023
1.438000,1148809,1000.00,12,0,1,1330.457,-4.595,2.663,1111.461,-0.038,1.023
1.439000,1148810,1000.00,12,0,1,1329.904,-2.706,2.659,1110.548,-2.482,1.077
1.440000,1148811,1000.00,12,0,1,1325.773,-4.861,2.691,1112.902,0.604,1.080
1.441000,1148812,1000.00,12,0,1,1322.098,-5.963,2.793,1113.839,1.378,1.080
1.442000,1148813,1000.00,12,0,1,1322.842,-3.415,2.825,1112.421,0.126,1.080
1.443000,1148814,1000.00,12,0,1,1324.572,0.791,2.810,1111.581,-0.893,1.084
1.444000,1148815,1000.00,12,0,1,1323.515,1.288,2.810,1110.692,-1.468,1.096
1.445000,1148816,1000.00,12,0,1,1324.980,2.833,2.832,1110.932,-1.172,1.107
1.446000,1148817,1000.00,12,0,1,1325.341,3.992,2.848,1113.190,0.817,1.105
1.447000,1148818,1000.00,12,0,1,1326.878,4.088,2.879,1113.262,1.416,1.113
1.448000,1148819,1000.00,12,0,1,1329.520,5.737,2.988,1112.133,-0.227,1.107
1.449000,1148820,1000.00,12,0,1,1332.066,6.017,3.100,1112.854,0.354,1.108
1.450000,1148821,1000.00,12,0,1,1332.379,4.502,3.162,1112.758,0.357,1.109
1.451000,1148822,1000.00,12,0,1,1331.057,0.964,3.135,1112.301,-0.279,1.102
1.452000,1148823,1000.00,12,0,1,1329.160,-2.440,3.107,1114.487,1.282,1.117
1.453000,1148824,1000.00,12,0,1,1329.616,-3.523,3.132,1112.734,0.426,1.117
1.454000,1148825,1000.00,12,0,1,1332.162,-1.879,3.140,1110.788,-2.247,1.143
1.455000,1148826,1000.00,12,0,1,1331.706,-2.183,3.123,1111.629,-1.104,1.152
1.456000,1148827,1000.00,12,0,1,1330.649,-3.620,3.075,1115.352,1.979,1.173
1.457000,1148828,1000.00,12,0,1,1327.358,-5.215,3.156,1112.734,0.705,1.143
1.458000,1148829,1000.00,12,0,1,1327.358,-4.912,3.229,1111.869,-1.625,1.160
1.459000,1148830,1000.00,12,0,1,1328.679,-1.269,3.223,1112.421,-0.124,1.159
1.460000,1148831,1000.00,12,0,1,1326.950,-1.168,3.215,1111.941,-0.767,1.164
1.461000,1148832,1000.00,12,0,1,1328.079,0.839,3.206,1112.373,-0.313,1.148
1.462000,1148833,1000.00,12,0,1,1326.590,1.922,3.210,1113.622,0.938,1.109
1.463000,1148834,1000.00,12,0,1,1325.989,1.453,3.216,1113.646,0.936,1.112
1.464000,1148835,1000.00,12,0,1,1325.797,2.853,3.235,1112.541,-0.067,1.111
1.465000,1148836,1000.00,12,0,1,1324.596,1.809,3.233,1112.085,-0.787,1.104
1.466000,1148837,1000.00,12,0,1,1322.914,0.602,3.206,1111.461,-0.935,1.097
1.467000,1148838,1000.00,12,0,1,1322.074,-0.561,3.071,1112.734,-0.213,1.097
1.468000,1148839,1000.00,12,0,1,1324.164,0.643,2.993,1112.926,0.636,1.099
1.469000,1148840,1000.00,12,0,1,1326.566,2.215,2.979,1113.238,0.274,1.096
1.470000,1148841,1000.00,12,0,1,1327.094,1.315,2.982,1113.622,0.872,1.096
1.471000,1148842,1000.00,12,0,1,1328.295,0.716,2.939,1111.797,-0.814,1.101
1.472000,1148843,1000.00,12,0,1,1328.872,0.020,2.912,1113.815,0.232,1.096
1.473000,1148844,1000.00,12,0,1,1328.199,-1.779,2.922,1113.382,0.901,1.090
1.474000,1148845,1000.00,12,0,1,1329.640,-1.623,2.926,1114.415,0.496,1.092
1.475000,1148846,1000.00,12,0,1,1330.937,-0.451,2.927,1113.142,0.444,1.079
1.476000,1148847,1000.00,12,0,1,1332.907,0.715,2.928,1110.091,-3.012,1.103
1.477000,1148848,1000.00,12,0,1,1332.090,0.765,2.924,1111.797,-1.466,1.095
1.478000,1148849,1000.00,12,0,1,1326.998,-3.317,2.961,1112.109,-0.131,1.093
1.479000,1148850,1000.00,12,0,1,1326.998,-2.955,2.957,1113.190,0.153,1.054
1.480000,1148851,1000.00,12,0,1,1328.800,0.967,2.929,1113.070,0.900,1.029
1.481000,1148852,1000.00,12,0,1,1326.734,0.581,2.895,1114.631,1.273,1.039
1.482000,1148853,1000.00,12,0,1,1323.371,-1.200,2.865,1114.319,1.802,1.069
1.483000,1148854,1000.00,12,0,1,1321.353,-1.730,2.875,1113.118,-0.175,1.069
1.484000,1148855,1000.00,12,0,1,1321.954,-0.065,2.874,1113.670,0.367,1.068
1.485000,1148856,1000.00,12,0,1,1325.749,3.904,2.925,1113.742,0.485,1.063
1.486000,1148857,1000.00,12,0,1,1330.001,7.654,3.107,1112.325,-0.840,1.062
1.487000,1148858,1000.00,12,0,1,1332.042,8.348,3.252,1113.190,-0.386,1.062
1.488000,1148859,1000.00,12,0,1,1330.001,4.903,3.261,1111.172,-1.378,1.080
1.489000,1148860,1000.00,12,0,1,1328.487,1.131,3.243,1112.229,-1.337,1.038
1.490000,1148861,1000.00,12,0,1,1330.601,1.210,3.174,1114.944,1.855,1.068
1.491000,1148862,1000.00,12,0,1,1335.093,3.428,3.098,1114.199,1.152,1.062
1.492000,1148863,1000.00,12,0,1,1335.045,2.162,3.075,1113.598,-0.020,1.062
1.493000,1148864,1000.00,12,0,1,1335.862,0.185,3.073,1110.692,-1.962,1.090
1.494000,1148865,1000.00,12,0,1,1332.763,-2.626,3.090,1111.581,-2.139,1.112
1.495000,1148866,1000.00,12,0,1,1330.361,-6.351,3.193,1112.349,-0.038,1.100
1.496000,1148867,1000.00,12,0,1,1331.802,-4.375,3.203,1112.734,-0.324,1.095
1.497000,1148868,1000.00,12,0,1,1331.178,-3.718,3.194,1111.701,-0.477,1.078
1.498000,1148869,1000.00,12,0,1,1328.559,-5.104,3.172,1111.461,-1.172,1.091
1.499000,1148870,1000.00,12,0,1,1325.581,-5.923,3.169,1109.851,-1.742,1.117
1.500000,1148871,1000.00,12,0,1,1325.917,-4.227,3.161,1111.869,-0.563,1.119
1.501000,1148872,1000.00,12,0,1,1325.605,-1.708,3.167,1111.148,0.192,1.118
1.502000,1148873,1000.00,12,0,1,1324.356,-1.584,3.157,1111.629,-0.343,1.105
1.503000,1148874,1000.00,12,0,1,1323.851,-0.379,3.117,1113.911,2.233,1.147
1.504000,1148875,1000.00,12,0,1,1322.602,-0.355,3.107,1112.133,0.900,1.110
1.505000,1148876,1000.00,12,0,1,1322.722,0.201,3.091,1113.022,0.532,1.101
1.506000,1148877,1000.00,12,0,1,1325.845,3.082,3.080,1113.334,1.745,1.093
1.507000,1148878,1000.00,12,0,1,1325.461,2.946,3.019,1112.902,0.412,1.090
1.508000,1148879,1000.00,12,0,1,1325.725,1.443,2.945,1112.349,0.335,1.067
1.509000,1148880,1000.00,12,0,1,1325.749,0.960,2.943,1111.533,-0.772,1.072
1.510000,1148881,1000.00,12,0,1,1329.280,1.941,2.951,1114.151,1.318,1.083
1.511000,1148882,1000.00,12,0,1,1331.226,3.190,2.983,1112.493,0.728,1.087
1.512000,1148883,1000.00,12,0,1,1329.712,-0.007,2.970,1112.854,-0.347,1.080
1.513000,1148884,1000.00,12,0,1,1331.298,-0.270,2.963,1112.325,0.331,1.073
1.514000,1148885,1000.00,12,0,1,1332.066,0.339,2.936,1113.526,0.266,1.073
1.515000,1148886,1000.00,12,0,1,1330.217,-2.031,2.939,1114.871,2.166,1.111
1.516000,1148887,1000.00,12,0,1,1329.064,-2.887,2.966,1113.502,0.550,1.106
1.517000,1148888,1000.00,12,0,1,1331.370,-0.593,2.966,1112.373,-0.795,1.111
1.518000,1148889,1000.00,12,0,1,1332.475,1.874,2.977,1111.605,-1.236,1.121
1.519000,1148890,1000.00,12,0,1,1330.961,1.079,2.964,1111.821,-1.195,1.133
1.520000,1148891,1000.00,12,0,1,1322.914,-4.124,3.015,1111.773,-0.670,1.130
1.521000,1148892,1000.00,12,0,1,1321.810,-5.260,3.104,1112.037,-0.662,1.128
1.522000,1148893,1000.00,12,0,1,1324.116,0.038,3.104,1111.749,-0.423,1.129
1.523000,1148894,1000.00,12,0,1,1325.148,1.810,3.104,1111.244,-1.043,1.132
1.524000,1148895,1000.00,12,0,1,1323.515,1.588,3.104,1111.388,-0.667,1.133
1.525000,1148896,1000.00,12,0,1,1320.969,-0.630,3.104,1111.677,-0.313,1.133
1.526000,1148897,1000.00,12,0,1,1322.650,0.516,3.104,1112.950,0.752,1.055
1.527000,1148898,1000.00,12,0,1,1322.554,1.136,3.106,1113.598,1.471,1.055
1.528000,1148899,1000.00,12,0,1,1326.782,2.679,3.094,1109.779,-1.673,1.081
1.529000,1148900,1000.00,12,0,1,1330.817,6.262,3.191,1112.349,-0.665,1.085
1.530000,1148901,1000.00,12,0,1,1335.645,7.363,3.353,1113.550,2.034,1.115
1.531000,1148902,1000.00,12,0,1,1334.396,5.421,3.439,1111.941,-0.326,1.101
1.532000,1148903,1000.00,12,0,1,1334.204,1.409,3.441,1112.638,0.269,1.072
1.533000,1148904,1000.00,12,0,1,1332.523,-0.364,3.432,1112.662,0.564,1.075
1.534000,1148905,1000.00,12,0,1,1333.748,-1.535,3.439,1111.485,-0.672,1.078
1.535000,1148906,1000.00,12,0,1,1333.652,-0.903,3.397,1112.109,-0.160,1.076
1.536000,1148907,1000.00,12,0,1,1331.946,-2.919,3.246,1113.310,1.027,1.079
1.537000,1148908,1000.00,12,0,1,1330.985,-3.144,3.056,1114.007,1.635,1.102
1.538000,1148909,1000.00,12,0,1,1329.832,-2.869,3.004,1113.526,1.026,1.095
1.539000,1148910,1000.00,12,0,1,1329.448,-2.250,3.017,1112.662,0.075,1.078
1.540000,1148911,1000.00,12,0,1,1330.649,0.464,3.013,1112.782,-0.047,1.046
1.541000,1148912,1000.00,12,0,1,1330.409,1.446,2.980,1111.821,-0.554,1.036
1.542000,1148913,1000.00,12,0,1,1330.361,2.170,2.981,1111.148,-1.422,1.055
1.543000,1148914,1000.00,12,0,1,1331.154,3.280,3.016,1111.220,-0.994,1.028
1.544000,1148915,1000.00,12,0,1,1327.767,1.103,2.997,1113.046,0.456,0.984
1.545000,1148916,1000.00,12,0,1,1322.842,-3.761,2.909,1112.589,0.644,0.989
1.546000,1148917,1000.00,12,0,1,1324.284,-2.731,2.868,1113.022,0.232,0.988
1.547000,1148918,1000.00,12,0,1,1326.566,-0.084,2.820,1111.461,-0.448,0.988
1.548000,1148919,1000.00,12,0,1,1328.223,0.414,2.726,1111.244,-1.423,0.994
1.549000,1148920,1000.00,12,0,1,1332.162,2.658,2.622,1112.734,0.399,0.965
1.550000,1148921,1000.00,12,0,1,1332.547,2.141,2.570,1110.620,-1.061,0.973
1.551000,1148922,1000.00,12,0,1,1335.261,1.796,2.572,1111.412,-1.184,0.987
1.552000,1148923,1000.00,12,0,1,1336.006,1.997,2.577,1113.694,1.673,1.014
1.553000,1148924,1000.00,12,0,1,1337.207,0.621,2.578,1114.223,1.770,0.996
1.554000,1148925,1000.00,12,0,1,1336.726,0.071,2.578,1115.136,2.277,1.039
1.555000,1148926,1000.00,12,0,1,1330.553,-5.752,2.703,1114.055,1.254,1.051
1.556000,1148927,1000.00,12,0,1,1327.334,-8.782,2.943,1113.742,0.266,1.022
1.557000,1148928,1000.00,12,0,1,1331.202,-3.868,2.964,1112.950,-0.107,1.021
1.558000,1148929,1000.00,12,0,1,1331.730,-0.997,2.960,1111.893,-1.334,1.037
1.559000,1148930,1000.00,12,0,1,1329.448,-2.042,2.971,1111.340,-1.520,1.053
1.560000,1148931,1000.00,12,0,1,1328.607,-1.400,2.965,1110.259,-2.149,1.080
1.561000,1148932,1000.00,12,0,1,1327.574,-0.565,2.932,1111.821,-0.855,1.082
1.562000,1148933,1000.00,12,0,1,1323.491,-2.591,2.954,1110.091,-1.183,1.094
1.563000,1148934,1000.00,12,0,1,1323.563,-1.966,2.967,1110.668,-1.600,1.116
1.564000,1148935,1000.00,12,0,1,1322.794,-0.578,2.968,1112.469,1.046,1.125
1.565000,1148936,1000.00,12,0,1,1323.515,-0.175,2.954,1113.863,1.804,1.113
1.566000,1148937,1000.00,12,0,1,1326.253,2.749,2.951,1113.142,1.410,1.128
1.567000,1148938,1000.00,12,0,1,1327.887,3.621,2.994,1113.310,0.737,1.127
1.568000,1148939,1000.00,12,0,1,1331.009,4.780,3.058,1110.908,-0.846,1.120
1.569000,1148940,1000.00,12,0,1,1331.898,4.599,3.123,1111.557,-1.248,1.121
1.570000,1148941,1000.00,12,0,1,1333.604,3.396,3.105,1112.253,0.298,1.117
1.571000,1148942,1000.00,12,0,1,1336.246,4.377,3.078,1114.271,1.368,1.130
1.572000,1148943,1000.00,12,0,1,1337.639,3.570,3.119,1112.565,0.640,1.132
1.573000,1148944,1000.00,12,0,1,1338.696,2.896,3.135,1113.766,0.345,1.124
1.574000,1148945,1000.00,12,0,1,1336.222,-0.107,3.127,1114.103,1.569,1.142
1.575000,1148946,1000.00,12,0,1,1331.442,-5.012,3.205,1113.142,0.029,1.141
1.576000,1148947,1000.00,12,0,1,1331.442,-5.006,3.282,1114.031,0.646,1.139
1.577000,1148948,1000.00,12,0,1,1332.042,-2.683,3.300,1112.517,-0.129,1.120
1.578000,1148949,1000.00,12,0,1,1329.064,-3.885,3.324,1112.854,-0.751,1.100
1.579000,1148950,1000.00,12,0,1,1327.815,-3.863,3.250,1112.253,-0.173,1.097
1.580000,1148951,1000.00,12,0,1,1328.511,-1.215,3.083,1112.493,-0.788,1.064
1.581000,1148952,1000.00,12,0,1,1325.389,-1.949,2.999,1113.574,0.874,1.070
1.582000,1148953,1000.00,12,0,1,1324.956,-1.769,3.003,1110.956,-1.322,1.086
1.583000,1148954,1000.00,12,0,1,1325.076,0.280,3.003,1110.332,-2.327,1.132
1.584000,1148955,1000.00,12,0,1,1324.980,0.466,2.996,1110.956,-1.024,1.137
1.585000,1148956,1000.00,12,0,1,1326.013,1.706,3.003,1111.461,-0.601,1.140
1.586000,1148957,1000.00,12,0,1,1324.860,0.728,2.976,1112.349,0.402,1.132
1.587000,1148958,1000.00,12,0,1,1325.389,-0.028,2.942,1112.710,0.671,1.112
1.588000,1148959,1000.00,12,0,1,1327.118,1.127,2.919,1114.175,1.596,1.126
1.589000,1148960,1000.00,12,0,1,1328.583,1.084,2.905,1110.500,-0.977,1.134
1.590000,1148961,1000.00,12,0,1,1331.850,2.550,2.927,1110.500,-2.396,1.183
