# FW/GUI: v9.6.1-multi17-dual (PyQt5)
# StartTime: 2026-04-03 16:28:13
# Slot: 13
# DeviceID: 13
# Label: EMG13
# IP: 192.168.137.206
# TCP: 3333
# DeviceFW: EMG_FW_v9.6_MULTI17_DUALCH_RUNTIMECFG_CHEN
# IMU1_RefTime = format(imu_ms) = relative since power-on Time (IMU acquisition time)
IMU1_RefTime,ax_g,ay_g,az_g,gx_dps,gy_dps,gz_dps,mx_uT,my_uT,mz_uT,temp_C,qw,qx,qy,qz
'00:20:07.464,0.059082,0.029785,1.003906,0.304878,1.341463,-0.609756,-4.693750,17.487501,19.318750,31.522,0.56908713,-0.00977138,-0.02883028,-0.82171356
'00:20:07.474,0.060059,0.029297,1.004395,0.365854,1.341463,-0.548781,-4.768750,17.562500,19.337500,31.492,0.56909369,-0.00977671,-0.02883782,-0.82170869
'00:20:07.484,0.059570,0.028320,1.003906,0.304878,1.341463,-0.609756,-4.768750,17.562500,19.337500,31.492,0.56909601,-0.00978607,-0.02883364,-0.82170712
'00:20:07.496,0.060059,0.029785,1.003418,0.365854,1.341463,-0.548781,-4.818750,17.556250,19.356251,31.552,0.56909921,-0.00978635,-0.02884140,-0.82170463
'00:20:07.504,0.059082,0.029785,1.003418,0.365854,1.341463,-0.548781,-4.818750,17.556250,19.356251,31.552,0.56910135,-0.00978219,-0.02884344,-0.82170312
'00:20:07.514,0.058594,0.029297,1.002441,0.365854,1.341463,-0.609756,-5.106250,18.012501,19.700001,31.476,0.56908954,-0.00976645,-0.02883009,-0.82171196
'00:20:07.524,0.059082,0.030273,1.003906,0.304878,1.280488,-0.548781,-5.106250,18.012501,19.700001,31.507,0.56908177,-0.00975715,-0.02882234,-0.82171772
'00:20:07.537,0.059570,0.029785,1.004883,0.304878,1.341463,-0.609756,-5.006250,17.881250,19.556250,31.567,0.56907186,-0.00974978,-0.02881312,-0.82172499
'00:20:07.544,0.059082,0.029785,1.004395,0.365854,1.341463,-0.548781,-5.006250,17.881250,19.556250,31.476,0.56906967,-0.00974212,-0.02881014,-0.82172670
'00:20:07.554,0.060059,0.029785,1.004395,0.304878,1.341463,-0.548781,-4.800000,17.537500,19.318750,31.492,0.56907353,-0.00974675,-0.02881351,-0.82172386
'00:20:07.564,0.060059,0.030273,1.003906,0.304878,1.280488,-0.548781,-4.800000,17.537500,19.318750,31.492,0.56907709,-0.00975384,-0.02882278,-0.82172098
'00:20:07.576,0.060059,0.030762,1.003906,0.365854,1.341463,-0.609756,-4.768750,17.506250,19.187500,31.537,0.56907859,-0.00975217,-0.02884107,-0.82171932
'00:20:07.584,0.059570,0.029297,1.003906,0.365854,1.341463,-0.609756,-4.768750,17.506250,19.187500,31.492,0.56907983,-0.00975350,-0.02884490,-0.82171831
'00:20:07.594,0.059570,0.030273,1.003418,0.365854,1.341463,-0.609756,-4.750000,17.506250,19.312500,31.537,0.56908194,-0.00975292,-0.02885655,-0.82171645
'00:20:07.604,0.060059,0.030273,1.004395,0.304878,1.341463,-0.548781,-4.750000,17.506250,19.312500,31.522,0.56908833,-0.00975800,-0.02886508,-0.82171166
'00:20:07.616,0.060059,0.029297,1.003418,0.365854,1.341463,-0.548781,-5.100000,18.025000,19.637501,31.476,0.56908056,-0.00974950,-0.02885606,-0.82171746
'00:20:07.624,0.060547,0.029297,1.003906,0.365854,1.280488,-0.548781,-5.100000,18.025000,19.637501,31.461,0.56907529,-0.00974949,-0.02885393,-0.82172119
'00:20:07.634,0.060547,0.029297,1.003906,0.365854,1.280488,-0.548781,-5.100000,17.950001,19.731251,31.461,0.56906661,-0.00974873,-0.02884926,-0.82172737
'00:20:07.644,0.059082,0.029785,1.003906,0.365854,1.341463,-0.548781,-5.100000,17.950001,19.731251,31.492,0.56905806,-0.00973377,-0.02883879,-0.82173384
'00:20:07.656,0.059082,0.030273,1.003906,0.304878,1.341463,-0.609756,-4.850000,17.537500,19.362501,31.492,0.56905296,-0.00972707,-0.02883659,-0.82173753
'00:20:07.664,0.059082,0.029297,1.004883,0.365854,1.341463,-0.609756,-4.850000,17.537500,19.362501,31.537,0.56904980,-0.00972319,-0.02883394,-0.82173985
'00:20:07.674,0.059082,0.028320,1.002441,0.365854,1.341463,-0.487805,-4.768750,17.487501,19.331251,31.552,0.56905940,-0.00972734,-0.02883119,-0.82173325
'00:20:07.684,0.059082,0.029785,1.003418,0.304878,1.280488,-0.548781,-4.768750,17.487501,19.331251,31.461,0.56906410,-0.00973263,-0.02883513,-0.82172980
'00:20:07.696,0.059570,0.028809,1.004395,0.365854,1.280488,-0.609756,-4.731250,17.568750,19.343750,31.507,0.56907016,-0.00974689,-0.02884603,-0.82172505
'00:20:07.704,0.059570,0.029785,1.003906,0.365854,1.280488,-0.609756,-4.731250,17.568750,19.343750,31.492,0.56907398,-0.00975318,-0.02885774,-0.82172192
'00:20:07.714,0.059570,0.028809,1.003418,0.365854,1.341463,-0.548781,-4.756250,17.481251,19.375000,31.492,0.56907947,-0.00975802,-0.02885953,-0.82171799
'00:20:07.724,0.059570,0.029785,1.002930,0.304878,1.280488,-0.609756,-5.087500,18.012501,19.656250,31.476,0.56906883,-0.00975438,-0.02885245,-0.82172566
'00:20:07.737,0.059082,0.028809,1.004395,0.304878,1.341463,-0.609756,-5.087500,18.012501,19.656250,31.537,0.56905556,-0.00974514,-0.02882932,-0.82173577
'00:20:07.744,0.059082,0.028809,1.004395,0.304878,1.341463,-0.609756,-5.000000,17.806250,19.493750,31.537,0.56904968,-0.00974162,-0.02881855,-0.82174026
'00:20:07.754,0.060059,0.029785,1.004883,0.365854,1.341463,-0.548781,-5.000000,17.806250,19.493750,31.507,0.56904553,-0.00973526,-0.02881666,-0.82174328
'00:20:07.764,0.059570,0.030273,1.003418,0.365854,1.341463,-0.548781,-4.743750,17.550001,19.318750,31.492,0.56905365,-0.00973627,-0.02883039,-0.82173716
'00:20:07.776,0.059082,0.029297,1.003906,0.304878,1.341463,-0.609756,-4.743750,17.550001,19.318750,31.522,0.56905832,-0.00974211,-0.02883221,-0.82173379
'00:20:07.784,0.059082,0.029297,1.003906,0.304878,1.341463,-0.609756,-4.787500,17.562500,19.318750,31.522,0.56905918,-0.00974388,-0.02883087,-0.82173322
'00:20:07.794,0.060547,0.029297,1.004395,0.304878,1.341463,-0.609756,-4.787500,17.562500,19.318750,31.507,0.56906021,-0.00975405,-0.02883468,-0.82173226
'00:20:07.804,0.059082,0.029297,1.004395,0.365854,1.280488,-0.548781,-4.731250,17.556250,19.325001,31.507,0.56906931,-0.00976090,-0.02884434,-0.82172553
'00:20:07.816,0.059570,0.029785,1.003906,0.365854,1.341463,-0.548781,-4.731250,17.556250,19.325001,31.567,0.56908018,-0.00976476,-0.02885790,-0.82171748
'00:20:07.824,0.060059,0.029297,1.003906,0.304878,1.341463,-0.548781,-5.150000,18.081251,19.725000,31.552,0.56907310,-0.00975987,-0.02884628,-0.82172285
'00:20:07.836,0.060547,0.030273,1.004395,0.365854,1.341463,-0.609756,-5.150000,18.081251,19.725000,31.537,0.56905712,-0.00974741,-0.02884287,-0.82173419
'00:20:07.844,0.060059,0.029297,1.003906,0.365854,1.341463,-0.609756,-5.050000,17.868750,19.618750,31.522,0.56904838,-0.00974235,-0.02883711,-0.82174050
'00:20:07.858,0.060059,0.029297,1.004395,0.304878,1.341463,-0.548781,-5.050000,17.868750,19.618750,31.552,0.56903923,-0.00973796,-0.02882078,-0.82174746
'00:20:07.864,0.060059,0.029297,1.003418,0.304878,1.341463,-0.609756,-4.800000,17.587500,19.412500,31.492,0.56903950,-0.00974258,-0.02882196,-0.82174718
'00:20:07.874,0.060059,0.029785,1.004395,0.304878,1.341463,-0.548781,-4.800000,17.587500,19.412500,31.492,0.56904421,-0.00974824,-0.02882622,-0.82174370
'00:20:07.884,0.059570,0.029297,1.003906,0.365854,1.341463,-0.609756,-4.768750,17.500000,19.287500,31.507,0.56904533,-0.00975030,-0.02883098,-0.82174273
'00:20:07.896,0.058105,0.028320,1.004395,0.304878,1.341463,-0.548781,-4.768750,17.500000,19.287500,31.552,0.56905216,-0.00975129,-0.02881757,-0.82173846
'00:20:07.904,0.060059,0.029297,1.002930,0.365854,1.341463,-0.609756,-4.787500,17.525000,19.337500,31.552,0.56905228,-0.00975469,-0.02882250,-0.82173817
'00:20:07.914,0.060547,0.028809,1.003418,0.365854,1.402439,-0.609756,-4.787500,17.525000,19.337500,31.461,0.56905265,-0.00975904,-0.02882447,-0.82173779
'00:20:07.924,0.061035,0.029297,1.002930,0.304878,1.341463,-0.548781,-4.862500,17.656250,19.400000,31.492,0.56905469,-0.00976905,-0.02882700,-0.82173617
'00:20:07.934,0.059570,0.029785,1.003418,0.365854,1.341463,-0.609756,-4.862500,17.656250,19.400000,31.492,0.56905233,-0.00976564,-0.02883081,-0.82173771
'00:20:07.945,0.059570,0.029297,1.003906,0.304878,1.341463,-0.609756,-5.137500,18.137501,19.731251,31.537,0.56904025,-0.00975761,-0.02881590,-0.82174669
'00:20:07.954,0.060059,0.028809,1.003418,0.304878,1.341463,-0.548781,-5.137500,18.137501,19.731251,31.582,0.56903445,-0.00975548,-0.02880333,-0.82175118
'00:20:07.964,0.060059,0.028809,1.004395,0.365854,1.341463,-0.548781,-4.925000,17.612501,19.456251,31.522,0.56903123,-0.00975460,-0.02879753,-0.82175362
'00:20:07.974,0.060547,0.030273,1.002930,0.304878,1.280488,-0.548781,-4.750000,17.506250,19.343750,31.537,0.56903756,-0.00976739,-0.02881265,-0.82174855
'00:20:07.984,0.059082,0.029785,1.003418,0.304878,1.341463,-0.548781,-4.750000,17.506250,19.343750,31.507,0.56904415,-0.00976926,-0.02881578,-0.82174386
'00:20:07.994,0.059570,0.029297,1.004883,0.365854,1.341463,-0.548781,-4.843750,17.593750,19.387501,31.507,0.56904621,-0.00976792,-0.02881639,-0.82174243
'00:20:08.004,0.060059,0.029297,1.003418,0.365854,1.280488,-0.548781,-4.843750,17.593750,19.387501,31.461,0.56904807,-0.00977396,-0.02882249,-0.82174085
'00:20:08.014,0.057617,0.029785,1.003906,0.365854,1.341463,-0.548781,-4.818750,17.600000,19.318750,31.476,0.56905223,-0.00976143,-0.02882084,-0.82173818
'00:20:08.024,0.059082,0.028809,1.004883,0.365854,1.341463,-0.609756,-4.818750,17.600000,19.318750,31.537,0.56905218,-0.00976066,-0.02881904,-0.82173828
'00:20:08.034,0.059570,0.030273,1.003418,0.365854,1.341463,-0.548781,-4.931250,17.756250,19.506250,31.552,0.56905133,-0.00975316,-0.02882254,-0.82173884
'00:20:08.044,0.058594,0.028809,1.004395,0.304878,1.341463,-0.609756,-4.931250,17.756250,19.506250,31.507,0.56904641,-0.00974878,-0.02880931,-0.82174277
'00:20:08.056,0.060547,0.030273,1.003906,0.365854,1.341463,-0.548781,-4.975000,17.787500,19.562500,31.507,0.56904245,-0.00974391,-0.02881472,-0.82174537
'00:20:08.064,0.059082,0.029785,1.003418,0.365854,1.341463,-0.609756,-4.975000,17.787500,19.562500,31.507,0.56903644,-0.00973577,-0.02881179,-0.82174973
'00:20:08.074,0.059082,0.028809,1.004395,0.426829,1.280488,-0.548781,-4.800000,17.581251,19.325001,31.537,0.56904162,-0.00973797,-0.02881875,-0.82174588
'00:20:08.085,0.059570,0.030762,1.004883,0.365854,1.280488,-0.548781,-4.800000,17.581251,19.325001,31.476,0.56904674,-0.00973806,-0.02883547,-0.82174175
'00:20:08.094,0.059570,0.029785,1.004883,0.365854,1.341463,-0.609756,-4.762500,17.550001,19.306250,31.507,0.56904905,-0.00973913,-0.02884326,-0.82173986
'00:20:08.104,0.059570,0.029785,1.004883,0.365854,1.280488,-0.609756,-4.762500,17.550001,19.306250,31.522,0.56905144,-0.00974465,-0.02885480,-0.82173773
'00:20:08.114,0.060059,0.028809,1.003418,0.426829,1.341463,-0.548781,-4.856250,17.581251,19.387501,31.492,0.56905240,-0.00974455,-0.02885759,-0.82173697
'00:20:08.124,0.059570,0.029785,1.003906,0.365854,1.341463,-0.548781,-4.856250,17.581251,19.387501,31.476,0.56905313,-0.00974084,-0.02885941,-0.82173645
'00:20:08.134,0.060059,0.029297,1.004395,0.365854,1.341463,-0.548781,-4.987500,17.793751,19.525000,31.492,0.56904941,-0.00973705,-0.02885487,-0.82173922
'00:20:08.144,0.059082,0.029297,1.003906,0.304878,1.280488,-0.609756,-4.987500,17.793751,19.525000,31.537,0.56904117,-0.00973535,-0.02884559,-0.82174528
'00:20:08.154,0.060059,0.029297,1.004395,0.365854,1.341463,-0.548781,-4.993750,17.862501,19.550001,31.552,0.56903861,-0.00973233,-0.02884245,-0.82174720
'00:20:08.164,0.060059,0.028809,1.003906,0.365854,1.341463,-0.548781,-4.993750,17.862501,19.550001,31.537,0.56903617,-0.00973138,-0.02883684,-0.82174910
'00:20:08.175,0.059570,0.028320,1.004395,0.365854,1.341463,-0.548781,-4.756250,17.575001,19.393751,31.461,0.56904490,-0.00974059,-0.02883833,-0.82174288
'00:20:08.184,0.060059,0.029785,1.003906,0.365854,1.341463,-0.548781,-4.756250,17.575001,19.393751,31.522,0.56905171,-0.00974528,-0.02884889,-0.82173775
'00:20:08.194,0.060059,0.030273,1.004395,0.365854,1.341463,-0.548781,-4.706250,17.500000,19.331251,31.507,0.56906113,-0.00975028,-0.02886534,-0.82173059
'00:20:08.204,0.060547,0.028809,1.003906,0.365854,1.341463,-0.548781,-4.706250,17.500000,19.331251,31.522,0.56907076,-0.00976379,-0.02887519,-0.82172341
'00:20:08.214,0.060059,0.028809,1.003906,0.365854,1.341463,-0.548781,-4.725000,17.481251,19.325001,31.492,0.56907860,-0.00977287,-0.02888100,-0.82171766
'00:20:08.224,0.060547,0.029297,1.002930,0.365854,1.341463,-0.548781,-4.725000,17.481251,19.325001,31.522,0.56908626,-0.00978276,-0.02889175,-0.82171187
'00:20:08.234,0.059570,0.029785,1.004395,0.365854,1.341463,-0.609756,-4.968750,17.818750,19.512501,31.522,0.56907975,-0.00977490,-0.02888948,-0.82171655
'00:20:08.245,0.059082,0.029785,1.003418,0.304878,1.341463,-0.548781,-4.987500,17.837500,19.468750,31.537,0.56907668,-0.00976615,-0.02887964,-0.82171913
'00:20:08.257,0.060547,0.029785,1.003906,0.304878,1.341463,-0.548781,-4.987500,17.837500,19.468750,31.507,0.56907333,-0.00976624,-0.02887559,-0.82172159
'00:20:08.264,0.061035,0.030273,1.005371,0.365854,1.341463,-0.548781,-4.843750,17.556250,19.356251,31.492,0.56907392,-0.00976767,-0.02888236,-0.82172092
'00:20:08.274,0.059082,0.029785,1.004395,0.304878,1.341463,-0.548781,-4.843750,17.556250,19.356251,31.507,0.56907486,-0.00976405,-0.02887765,-0.82172048
'00:20:08.284,0.059082,0.029785,1.004395,0.304878,1.341463,-0.609756,-4.756250,17.537500,19.287500,31.552,0.56907740,-0.00976527,-0.02887964,-0.82171864
'00:20:08.294,0.057617,0.029785,1.004883,0.365854,1.280488,-0.548781,-4.756250,17.537500,19.287500,31.461,0.56908426,-0.00975972,-0.02888305,-0.82171383
'00:20:08.304,0.058594,0.028320,1.003906,0.365854,1.341463,-0.609756,-4.812500,17.537500,19.393751,31.552,0.56908275,-0.00975794,-0.02887457,-0.82171520
'00:20:08.314,0.059082,0.028809,1.002441,0.304878,1.341463,-0.548781,-4.812500,17.537500,19.393751,31.522,0.56908546,-0.00976048,-0.02886707,-0.82171356
'00:20:08.324,0.059082,0.030273,1.004883,0.304878,1.280488,-0.609756,-4.868750,17.668751,19.387501,31.537,0.56908258,-0.00975929,-0.02886893,-0.82171550
'00:20:08.334,0.058594,0.029297,1.003418,0.365854,1.341463,-0.548781,-4.868750,17.668751,19.387501,31.492,0.56908450,-0.00975232,-0.02886526,-0.82171438
'00:20:08.344,0.059570,0.029785,1.004883,0.365854,1.341463,-0.548781,-5.093750,18.006250,19.631250,31.552,0.56907797,-0.00974059,-0.02885806,-0.82171929
'00:20:08.354,0.061035,0.028809,1.004395,0.365854,1.341463,-0.548781,-5.093750,18.006250,19.631250,31.522,0.56907166,-0.00974084,-0.02885136,-0.82172390
'00:20:08.364,0.060059,0.028809,1.004395,0.365854,1.341463,-0.548781,-4.937500,17.756250,19.493750,31.492,0.56907064,-0.00974131,-0.02884713,-0.82172474
'00:20:08.374,0.059082,0.029297,1.003418,0.304878,1.341463,-0.548781,-4.937500,17.756250,19.493750,31.537,0.56906951,-0.00973775,-0.02883797,-0.82172589
'00:20:08.384,0.059082,0.029297,1.003418,0.304878,1.341463,-0.548781,-4.781250,17.500000,19.350000,31.537,0.56907374,-0.00973985,-0.02883520,-0.82172304
'00:20:08.394,0.061035,0.029297,1.004395,0.304878,1.280488,-0.548781,-4.781250,17.500000,19.350000,31.446,0.56907773,-0.00975691,-0.02884268,-0.82171981
'00:20:08.404,0.059082,0.029785,1.004395,0.365854,1.280488,-0.548781,-4.762500,17.500000,19.350000,31.522,0.56908301,-0.00975906,-0.02885105,-0.82171583
'00:20:08.414,0.058105,0.029785,1.003906,0.365854,1.341463,-0.548781,-4.762500,17.500000,19.350000,31.522,0.56908844,-0.00975143,-0.02885261,-0.82171211
'00:20:08.424,0.059570,0.029297,1.003906,0.304878,1.341463,-0.548781,-4.762500,17.525000,19.318750,31.552,0.56909458,-0.00975727,-0.02885338,-0.82170776
'00:20:08.434,0.059570,0.030273,1.003906,0.304878,1.280488,-0.609756,-4.762500,17.525000,19.318750,31.507,0.56909596,-0.00976336,-0.02886274,-0.82170640
'00:20:08.444,0.059082,0.030273,1.004395,0.304878,1.280488,-0.548781,-5.043750,18.037500,19.581251,31.446,0.56909334,-0.00975759,-0.02885979,-0.82170838
'00:20:08.454,0.059082,0.029785,1.004395,0.304878,1.280488,-0.609756,-5.043750,18.037500,19.581251,31.567,0.56908648,-0.00975365,-0.02885427,-0.82171338
'00:20:08.464,0.061035,0.029297,1.003906,0.304878,1.341463,-0.609756,-4.937500,17.843750,19.512501,31.522,0.56908280,-0.00976151,-0.02885431,-0.82171583
'00:20:08.474,0.060059,0.029785,1.004395,0.304878,1.341463,-0.548781,-4.937500,17.843750,19.512501,31.537,0.56908342,-0.00976209,-0.02885310,-0.82171544
'00:20:08.484,0.058594,0.029785,1.003906,0.365854,1.341463,-0.548781,-4.743750,17.487501,19.306250,31.507,0.56909003,-0.00975801,-0.02885782,-0.82171074
'00:20:08.494,0.058594,0.029297,1.004395,0.365854,1.280488,-0.548781,-4.743750,17.487501,19.306250,31.507,0.56909657,-0.00976017,-0.02886249,-0.82170602
'00:20:08.504,0.059570,0.029785,1.004395,0.365854,1.341463,-0.548781,-4.718750,17.468750,19.268751,31.492,0.56910456,-0.00976261,-0.02887223,-0.82170012
'00:20:08.514,0.060547,0.029785,1.003906,0.365854,1.341463,-0.548781,-4.743750,17.575001,19.337500,31.492,0.56911292,-0.00977056,-0.02888616,-0.82169374
'00:20:08.524,0.059570,0.029785,1.004395,0.365854,1.280488,-0.548781,-4.743750,17.575001,19.337500,31.507,0.56912111,-0.00977720,-0.02889887,-0.82168754
'00:20:08.534,0.059082,0.030273,1.004883,0.365854,1.341463,-0.548781,-4.962500,17.793751,19.525000,31.507,0.56911857,-0.00976484,-0.02889682,-0.82168953
'00:20:08.544,0.060547,0.029785,1.003906,0.304878,1.280488,-0.609756,-4.962500,17.793751,19.525000,31.492,0.56911153,-0.00977005,-0.02889682,-0.82169434
'00:20:08.555,0.058594,0.030762,1.003906,0.304878,1.341463,-0.548781,-4.975000,17.831251,19.525000,31.522,0.56910865,-0.00975489,-0.02889117,-0.82169671
'00:20:08.564,0.059082,0.029297,1.003906,0.365854,1.280488,-0.548781,-4.975000,17.831251,19.525000,31.552,0.56910651,-0.00975144,-0.02888763,-0.82169836
'00:20:08.574,0.059082,0.029297,1.004395,0.304878,1.341463,-0.548781,-4.781250,17.550001,19.381250,31.492,0.56911157,-0.00975372,-0.02888464,-0.82169493
'00:20:08.584,0.059082,0.029297,1.003906,0.365854,1.341463,-0.609756,-4.781250,17.550001,19.381250,31.492,0.56911230,-0.00975287,-0.02888630,-0.82169438
'00:20:08.594,0.059082,0.029297,1.003906,0.365854,1.341463,-0.609756,-4.787500,17.500000,19.362501,31.537,0.56911147,-0.00975090,-0.02888626,-0.82169498
'00:20:08.604,0.059570,0.030273,1.003906,0.365854,1.280488,-0.548781,-4.787500,17.500000,19.362501,31.492,0.56911464,-0.00975234,-0.02889667,-0.82169240
'00:20:08.614,0.059570,0.029297,1.003418,0.304878,1.341463,-0.548781,-4.812500,17.581251,19.375000,31.507,0.56911821,-0.00975595,-0.02889412,-0.82168997
'00:20:08.624,0.060059,0.028809,1.002930,0.365854,1.341463,-0.548781,-4.812500,17.581251,19.375000,31.507,0.56912191,-0.00976121,-0.02889527,-0.82168731
'00:20:08.634,0.059082,0.029785,1.003418,0.304878,1.341463,-0.548781,-5.012500,17.850000,19.625000,31.522,0.56911696,-0.00975240,-0.02888409,-0.82169124
'00:20:08.644,0.059570,0.029297,1.003418,0.365854,1.341463,-0.548781,-5.012500,17.850000,19.625000,31.552,0.56911220,-0.00974531,-0.02887663,-0.82169487
'00:20:08.654,0.060059,0.029297,1.003906,0.304878,1.341463,-0.548781,-5.075000,17.956251,19.675001,31.522,0.56910552,-0.00974186,-0.02886439,-0.82169997
'00:20:08.664,0.060059,0.029785,1.004395,0.365854,1.341463,-0.609756,-5.075000,17.956251,19.675001,31.522,0.56909448,-0.00973334,-0.02885932,-0.82170790
'00:20:08.674,0.059570,0.029297,1.004395,0.365854,1.341463,-0.548781,-4.906250,17.737501,19.487501,31.537,0.56909502,-0.00973086,-0.02885770,-0.82170761
'00:20:08.684,0.060547,0.028320,1.004883,0.365854,1.341463,-0.548781,-4.906250,17.737501,19.487501,31.492,0.56909575,-0.00973749,-0.02885419,-0.82170716
'00:20:08.694,0.059082,0.029785,1.004883,0.304878,1.341463,-0.609756,-4.712500,17.518751,19.343750,31.537,0.56910072,-0.00974164,-0.02885922,-0.82170349
'00:20:08.704,0.060059,0.029297,1.003418,0.365854,1.341463,-0.609756,-4.712500,17.518751,19.343750,31.446,0.56910575,-0.00975037,-0.02887012,-0.82169952
'00:20:08.714,0.059570,0.028809,1.004883,0.304878,1.341463,-0.548781,-4.768750,17.543751,19.281250,31.522,0.56911208,-0.00975762,-0.02886744,-0.82169514
'00:20:08.724,0.059082,0.029785,1.004395,0.304878,1.341463,-0.609756,-4.768750,17.543751,19.281250,31.507,0.56911383,-0.00975814,-0.02886867,-0.82169388
'00:20:08.734,0.060059,0.029785,1.002930,0.304878,1.341463,-0.609756,-4.743750,17.493750,19.387501,31.507,0.56911563,-0.00976558,-0.02887477,-0.82169233
'00:20:08.744,0.061035,0.029785,1.004395,0.304878,1.341463,-0.548781,-4.743750,17.493750,19.387501,31.552,0.56912174,-0.00977815,-0.02888391,-0.82168763
'00:20:08.754,0.059570,0.029297,1.003418,0.304878,1.341463,-0.548781,-4.993750,17.812500,19.606251,31.537,0.56911733,-0.00977423,-0.02887258,-0.82169112
'00:20:08.764,0.059082,0.029785,1.004395,0.304878,1.341463,-0.609756,-4.950000,17.762501,19.518751,31.461,0.56911067,-0.00976714,-0.02886433,-0.82169611
'00:20:08.774,0.059570,0.029785,1.003906,0.304878,1.341463,-0.548781,-4.950000,17.762501,19.518751,31.492,0.56910841,-0.00976313,-0.02885827,-0.82169794
'00:20:08.784,0.059570,0.029297,1.003906,0.365854,1.341463,-0.548781,-4.762500,17.518751,19.293751,31.522,0.56911447,-0.00976554,-0.02886314,-0.82169354
'00:20:08.794,0.059082,0.029785,1.005371,0.365854,1.341463,-0.548781,-4.762500,17.518751,19.293751,31.522,0.56912042,-0.00976295,-0.02886820,-0.82168927
'00:20:08.804,0.059570,0.030273,1.004395,0.365854,1.341463,-0.548781,-4.812500,17.625000,19.318750,31.492,0.56912514,-0.00975980,-0.02887677,-0.82168574
'00:20:08.814,0.059570,0.029785,1.003906,0.365854,1.280488,-0.548781,-4.812500,17.625000,19.318750,31.522,0.56912977,-0.00976306,-0.02888565,-0.82168218
'00:20:08.824,0.059082,0.029785,1.003418,0.304878,1.280488,-0.548781,-4.750000,17.512501,19.350000,31.552,0.56913591,-0.00976907,-0.02889042,-0.82167769
'00:20:08.834,0.059570,0.028320,1.004883,0.365854,1.341463,-0.548781,-4.750000,17.512501,19.350000,31.567,0.56914251,-0.00977578,-0.02888939,-0.82167307
'00:20:08.844,0.059082,0.030273,1.003906,0.365854,1.280488,-0.548781,-5.106250,17.943750,19.643751,31.552,0.56913314,-0.00976199,-0.02888336,-0.82167994
'00:20:08.854,0.059570,0.029297,1.003906,0.304878,1.341463,-0.548781,-5.106250,17.943750,19.643751,31.492,0.56912412,-0.00975351,-0.02886653,-0.82168688
'00:20:08.864,0.059570,0.030273,1.003418,0.365854,1.280488,-0.548781,-4.756250,17.512501,19.287500,31.461,0.56913008,-0.00975690,-0.02888036,-0.82168223
'00:20:08.874,0.059082,0.030762,1.003418,0.304878,1.341463,-0.548781,-4.756250,17.512501,19.287500,31.476,0.56913601,-0.00975422,-0.02888742,-0.82167791
'00:20:08.884,0.059570,0.029297,1.003906,0.304878,1.280488,-0.609756,-4.843750,17.687500,19.412500,31.522,0.56913519,-0.00976151,-0.02888786,-0.82167837
'00:20:08.894,0.060059,0.029785,1.004395,0.243902,1.341463,-0.548781,-4.843750,17.687500,19.412500,31.492,0.56913872,-0.00976817,-0.02888529,-0.82167594
'00:20:08.905,0.059570,0.028320,1.005859,0.365854,1.280488,-0.609756,-4.762500,17.562500,19.337500,31.522,0.56914142,-0.00977980,-0.02888751,-0.82167385
'00:20:08.914,0.058594,0.030762,1.004395,0.365854,1.341463,-0.548781,-4.762500,17.562500,19.337500,31.537,0.56914723,-0.00977207,-0.02889609,-0.82166962
'00:20:08.924,0.060547,0.029297,1.003906,0.365854,1.341463,-0.548781,-4.806250,17.525000,19.350000,31.492,0.56914989,-0.00977711,-0.02890055,-0.82166756
'00:20:08.934,0.060059,0.029297,1.003906,0.304878,1.341463,-0.609756,-4.806250,17.525000,19.350000,31.552,0.56914812,-0.00978223,-0.02889871,-0.82166878
'00:20:08.944,0.060059,0.030273,1.004395,0.365854,1.280488,-0.609756,-4.737500,17.550001,19.306250,31.507,0.56915164,-0.00978914,-0.02891576,-0.82166566
'00:20:08.954,0.060059,0.029785,1.003418,0.304878,1.341463,-0.609756,-4.737500,17.550001,19.306250,31.492,0.56915530,-0.00979671,-0.02892272,-0.82166279
'00:20:08.964,0.060059,0.030762,1.003906,0.304878,1.341463,-0.548781,-5.031250,17.918751,19.618750,31.552,0.56915028,-0.00978852,-0.02892018,-0.82166646
'00:20:08.974,0.060059,0.029785,1.004883,0.365854,1.341463,-0.548781,-5.031250,17.918751,19.618750,31.507,0.56914556,-0.00978102,-0.02891625,-0.82166996
'00:20:08.985,0.061035,0.030273,1.004883,0.304878,1.341463,-0.548781,-4.843750,17.575001,19.362501,31.552,0.56914652,-0.00978645,-0.02892176,-0.82166903
'00:20:08.994,0.059082,0.029785,1.003906,0.304878,1.341463,-0.548781,-4.843750,17.575001,19.362501,31.492,0.56914744,-0.00978303,-0.02891726,-0.82166859
'00:20:09.004,0.059570,0.029297,1.002930,0.304878,1.341463,-0.548781,-4.850000,17.512501,19.362501,31.537,0.56914663,-0.00978286,-0.02890983,-0.82166942
'00:20:09.014,0.060059,0.029297,1.003418,0.365854,1.341463,-0.548781,-4.737500,17.537500,19.318750,31.522,0.56915450,-0.00978948,-0.02891813,-0.82166359
'00:20:09.025,0.060059,0.029785,1.004395,0.304878,1.341463,-0.548781,-4.737500,17.537500,19.318750,31.537,0.56916295,-0.00979758,-0.02892490,-0.82165741
'00:20:09.034,0.060059,0.030273,1.003418,0.304878,1.341463,-0.609756,-4.787500,17.531250,19.387501,31.522,0.56916222,-0.00979967,-0.02892936,-0.82165773
'00:20:09.044,0.059570,0.029297,1.003418,0.304878,1.341463,-0.548781,-4.787500,17.531250,19.387501,31.537,0.56916600,-0.00980327,-0.02892674,-0.82165516
'00:20:09.054,0.059570,0.029297,1.003418,0.304878,1.341463,-0.548781,-5.100000,17.975000,19.712500,31.461,0.56915759,-0.00979507,-0.02891023,-0.82166167
'00:20:09.066,0.060059,0.029785,1.004395,0.243902,1.341463,-0.548781,-5.100000,17.975000,19.712500,31.567,0.56914739,-0.00978975,-0.02889059,-0.82166948
'00:20:09.074,0.059570,0.028809,1.003906,0.365854,1.341463,-0.548781,-4.956250,17.762501,19.487501,31.522,0.56914539,-0.00978640,-0.02888407,-0.82167114
'00:20:09.084,0.059570,0.029297,1.004883,0.365854,1.341463,-0.548781,-4.956250,17.762501,19.487501,31.552,0.56914281,-0.00978018,-0.02887840,-0.82167320
'00:20:09.094,0.059082,0.029297,1.004395,0.304878,1.280488,-0.548781,-4.812500,17.575001,19.362501,31.476,0.56914606,-0.00978466,-0.02887663,-0.82167096
'00:20:09.105,0.058594,0.029785,1.004883,0.365854,1.341463,-0.548781,-4.812500,17.575001,19.362501,31.537,0.56914975,-0.00977616,-0.02887693,-0.82166849
'00:20:09.114,0.058594,0.029785,1.004883,0.365854,1.341463,-0.548781,-4.793750,17.506250,19.356251,31.537,0.56915250,-0.00976947,-0.02887699,-0.82166666
'00:20:09.124,0.059570,0.028809,1.004883,0.304878,1.341463,-0.548781,-4.793750,17.506250,19.356251,31.476,0.56915568,-0.00977443,-0.02887094,-0.82166461
'00:20:09.134,0.059082,0.029785,1.004395,0.304878,1.280488,-0.548781,-4.831250,17.643751,19.375000,31.507,0.56915908,-0.00977689,-0.02887220,-0.82166219
'00:20:09.145,0.060059,0.029297,1.003418,0.365854,1.280488,-0.609756,-4.831250,17.643751,19.375000,31.522,0.56915811,-0.00978430,-0.02887994,-0.82166250
'00:20:09.154,0.060059,0.029297,1.003418,0.365854,1.280488,-0.609756,-5.131250,18.062500,19.668751,31.522,0.56914676,-0.00978008,-0.02887414,-0.82167062
'00:20:09.165,0.059082,0.030273,1.004395,0.365854,1.341463,-0.548781,-5.131250,18.062500,19.668751,31.492,0.56913772,-0.00976025,-0.02886526,-0.82167742
'00:20:09.174,0.059082,0.029297,1.004395,0.304878,1.341463,-0.548781,-5.093750,17.993750,19.706251,31.537,0.56913120,-0.00975157,-0.02885027,-0.82168257
'00:20:09.185,0.060059,0.029785,1.003418,0.304878,1.341463,-0.548781,-5.093750,17.993750,19.706251,31.461,0.56912316,-0.00974516,-0.02883976,-0.82168858
'00:20:09.194,0.059082,0.028809,1.004883,0.365854,1.341463,-0.548781,-4.743750,17.506250,19.356251,31.522,0.56912943,-0.00974775,-0.02884074,-0.82168417
'00:20:09.204,0.060059,0.029785,1.003418,0.304878,1.341463,-0.548781,-4.743750,17.506250,19.356251,31.507,0.56913606,-0.00975547,-0.02884740,-0.82167926
'00:20:09.214,0.060059,0.029785,1.004395,0.365854,1.341463,-0.548781,-4.768750,17.456251,19.312500,31.552,0.56913994,-0.00975742,-0.02885479,-0.82167629
'00:20:09.227,0.060059,0.029785,1.004395,0.304878,1.341463,-0.548781,-4.743750,17.443750,19.343750,31.522,0.56914659,-0.00976575,-0.02886063,-0.82167138
'00:20:09.234,0.060059,0.029785,1.004395,0.304878,1.341463,-0.548781,-4.743750,17.443750,19.343750,31.522,0.56915015,-0.00977013,-0.02886369,-0.82166876
'00:20:09.244,0.058594,0.029297,1.003418,0.304878,1.341463,-0.548781,-4.743750,17.443750,19.343750,31.507,0.56915535,-0.00977027,-0.02885985,-0.82166528
'00:20:09.254,0.059570,0.029297,1.004883,0.365854,1.341463,-0.548781,-4.837500,17.593750,19.431250,31.461,0.56915722,-0.00976901,-0.02885974,-0.82166401
'00:20:09.265,0.060059,0.028809,1.004395,0.304878,1.341463,-0.609756,-4.937500,17.750000,19.518751,31.522,0.56915060,-0.00977191,-0.02884957,-0.82166892
'00:20:09.274,0.060059,0.029785,1.004395,0.365854,1.341463,-0.548781,-4.937500,17.750000,19.518751,31.522,0.56914900,-0.00976827,-0.02885023,-0.82167004
'00:20:09.284,0.059570,0.029297,1.003906,0.365854,1.341463,-0.609756,-4.812500,17.625000,19.381250,31.492,0.56914922,-0.00976896,-0.02885356,-0.82166976
'00:20:09.294,0.058105,0.029785,1.002930,0.304878,1.341463,-0.609756,-4.812500,17.625000,19.381250,31.537,0.56914933,-0.00976281,-0.02884995,-0.82166989
'00:20:09.306,0.058594,0.029297,1.004395,0.365854,1.280488,-0.548781,-4.750000,17.487501,19.306250,31.507,0.56915642,-0.00976465,-0.02885486,-0.82166478
'00:20:09.314,0.060059,0.029785,1.004395,0.365854,1.341463,-0.548781,-4.750000,17.487501,19.306250,31.522,0.56916112,-0.00976731,-0.02886241,-0.82166123
'00:20:09.324,0.059082,0.029297,1.004883,0.365854,1.280488,-0.548781,-4.750000,17.518751,19.375000,31.461,0.56916741,-0.00977196,-0.02886854,-0.82165661
'00:20:09.334,0.059570,0.030273,1.004395,0.304878,1.280488,-0.548781,-4.750000,17.518751,19.375000,31.522,0.56917336,-0.00977848,-0.02887785,-0.82165208
'00:20:09.344,0.059082,0.029297,1.005371,0.365854,1.341463,-0.548781,-4.750000,17.500000,19.381250,31.446,0.56917924,-0.00977819,-0.02887997,-0.82164793
'00:20:09.354,0.059570,0.028809,1.004395,0.304878,1.341463,-0.548781,-4.750000,17.500000,19.381250,31.552,0.56918513,-0.00978577,-0.02887717,-0.82164386
'00:20:09.364,0.059082,0.028809,1.002930,0.365854,1.341463,-0.609756,-5.175000,18.131250,19.706251,31.461,0.56917126,-0.00977186,-0.02885982,-0.82165425
'00:20:09.374,0.060547,0.028809,1.003906,0.365854,1.341463,-0.609756,-5.175000,18.131250,19.706251,31.507,0.56915747,-0.00976590,-0.02884797,-0.82166429
'00:20:09.387,0.059570,0.029785,1.003418,0.365854,1.341463,-0.609756,-4.968750,17.781250,19.493750,31.522,0.56914782,-0.00975538,-0.02884505,-0.82167120
'00:20:09.394,0.059570,0.029297,1.002930,0.304878,1.280488,-0.548781,-4.968750,17.781250,19.493750,31.431,0.56914564,-0.00975653,-0.02884079,-0.82167284
'00:20:09.404,0.058594,0.030273,1.002930,0.365854,1.341463,-0.609756,-4.775000,17.537500,19.318750,31.492,0.56914654,-0.00974928,-0.02884744,-0.82167207
'00:20:09.414,0.059570,0.029785,1.003418,0.304878,1.341463,-0.609756,-4.775000,17.537500,19.318750,31.552,0.56914745,-0.00975241,-0.02885044,-0.82167130
'00:20:09.427,0.058594,0.029297,1.004883,0.304878,1.341463,-0.548781,-4.762500,17.537500,19.337500,31.537,0.56915554,-0.00975275,-0.02884612,-0.82166584
'00:20:09.434,0.058594,0.029297,1.005371,0.243902,1.280488,-0.548781,-4.762500,17.537500,19.337500,31.461,0.56915975,-0.00975802,-0.02884275,-0.82166298
'00:20:09.444,0.058594,0.028809,1.005371,0.365854,1.341463,-0.548781,-4.787500,17.575001,19.318750,31.507,0.56916531,-0.00975588,-0.02883991,-0.82165926
'00:20:09.454,0.060547,0.029785,1.004395,0.304878,1.341463,-0.548781,-4.787500,17.575001,19.318750,31.492,0.56917052,-0.00976395,-0.02884620,-0.82165533
'00:20:09.466,0.060059,0.030273,1.003906,0.304878,1.280488,-0.609756,-4.912500,17.831251,19.512501,31.446,0.56916709,-0.00976879,-0.02885369,-0.82165739
'00:20:09.474,0.059570,0.029297,1.003418,0.365854,1.280488,-0.548781,-4.912500,17.831251,19.512501,31.476,0.56916850,-0.00977066,-0.02885632,-0.82165630
'00:20:09.484,0.060059,0.030273,1.002441,0.365854,1.280488,-0.548781,-4.925000,17.787500,19.550001,31.537,0.56916799,-0.00977078,-0.02886522,-0.82165633
'00:20:09.494,0.060059,0.029785,1.003906,0.304878,1.280488,-0.609756,-4.925000,17.787500,19.550001,31.552,0.56916316,-0.00977537,-0.02886632,-0.82165959
'00:20:09.507,0.059082,0.029785,1.005859,0.365854,1.341463,-0.609756,-4.712500,17.531250,19.325001,31.537,0.56916979,-0.00977567,-0.02887784,-0.82165459
'00:20:09.514,0.059570,0.028320,1.004395,0.304878,1.280488,-0.548781,-4.712500,17.531250,19.325001,31.537,0.56917644,-0.00978727,-0.02887880,-0.82164981
'00:20:09.524,0.059570,0.028809,1.005859,0.304878,1.280488,-0.548781,-4.793750,17.618750,19.387501,31.492,0.56918190,-0.00979768,-0.02887790,-0.82164594
'00:20:09.534,0.060059,0.029785,1.006348,0.365854,1.341463,-0.548781,-4.793750,17.512501,19.275000,31.507,0.56918526,-0.00979750,-0.02888326,-0.82164342
'00:20:09.546,0.059570,0.029785,1.004883,0.365854,1.341463,-0.548781,-4.793750,17.512501,19.275000,31.567,0.56918928,-0.00979439,-0.02888801,-0.82164050
'00:20:09.554,0.058594,0.029297,1.003906,0.304878,1.341463,-0.548781,-4.875000,17.637501,19.443750,31.507,0.56918931,-0.00978992,-0.02887971,-0.82164083
'00:20:09.564,0.059082,0.030273,1.002441,0.365854,1.341463,-0.548781,-4.875000,17.637501,19.443750,31.476,0.56918918,-0.00978055,-0.02888184,-0.82164096
'00:20:09.574,0.058594,0.029785,1.004395,0.243902,1.280488,-0.609756,-4.943750,17.712500,19.443750,31.461,0.56918163,-0.00977734,-0.02886945,-0.82164666
'00:20:09.585,0.059082,0.029785,1.003418,0.304878,1.280488,-0.548781,-4.943750,17.712500,19.443750,31.567,0.56917822,-0.00977393,-0.02886330,-0.82164927
'00:20:09.594,0.060059,0.029785,1.004883,0.365854,1.341463,-0.548781,-4.931250,17.731251,19.387501,31.522,0.56917700,-0.00976986,-0.02886383,-0.82165015
'00:20:09.604,0.059570,0.028320,1.005371,0.365854,1.341463,-0.609756,-4.931250,17.731251,19.387501,31.567,0.56917161,-0.00976816,-0.02885424,-0.82165424
'00:20:09.614,0.060547,0.028809,1.004395,0.365854,1.341463,-0.548781,-4.806250,17.525000,19.393751,31.507,0.56917420,-0.00977521,-0.02885623,-0.82165229
'00:20:09.624,0.060547,0.029297,1.004883,0.365854,1.341463,-0.609756,-4.806250,17.525000,19.393751,31.507,0.56917230,-0.00977996,-0.02886080,-0.82165339
'00:20:09.634,0.060547,0.029297,1.003418,0.365854,1.341463,-0.609756,-4.831250,17.531250,19.450001,31.492,0.56916856,-0.00978366,-0.02886393,-0.82165583
'00:20:09.644,0.059570,0.029785,1.003418,0.304878,1.280488,-0.548781,-4.831250,17.531250,19.450001,31.476,0.56916890,-0.00978750,-0.02886460,-0.82165552
'00:20:09.654,0.060059,0.029785,1.002930,0.365854,1.280488,-0.548781,-4.868750,17.562500,19.393751,31.492,0.56916766,-0.00978905,-0.02886969,-0.82165619
'00:20:09.666,0.059570,0.029297,1.003418,0.365854,1.280488,-0.609756,-4.868750,17.562500,19.393751,31.522,0.56916106,-0.00978963,-0.02886995,-0.82166074
'00:20:09.674,0.059082,0.029785,1.004395,0.365854,1.280488,-0.548781,-5.012500,17.843750,19.568750,31.537,0.56915699,-0.00978292,-0.02886681,-0.82166375
'00:20:09.684,0.058594,0.028809,1.003906,0.304878,1.280488,-0.609756,-5.012500,17.843750,19.568750,31.507,0.56914773,-0.00977874,-0.02885150,-0.82167076
'00:20:09.694,0.058105,0.029297,1.004883,0.304878,1.341463,-0.548781,-5.037500,17.856251,19.618750,31.507,0.56914137,-0.00976452,-0.02883216,-0.82167600
'00:20:09.707,0.059570,0.028320,1.004883,0.304878,1.280488,-0.548781,-5.037500,17.856251,19.618750,31.552,0.56913324,-0.00976739,-0.02881164,-0.82168232
'00:20:09.714,0.060059,0.028320,1.004395,0.304878,1.341463,-0.487805,-4.762500,17.525000,19.393751,31.537,0.56914044,-0.00977607,-0.02880966,-0.82167730
'00:20:09.724,0.059570,0.029297,1.004883,0.304878,1.280488,-0.609756,-4.762500,17.525000,19.393751,31.537,0.56914163,-0.00978570,-0.02881342,-0.82167624
'00:20:09.734,0.059082,0.029785,1.003418,0.365854,1.280488,-0.548781,-4.775000,17.468750,19.325001,31.522,0.56914518,-0.00978619,-0.02882070,-0.82167351
'00:20:09.744,0.059082,0.030273,1.002930,0.365854,1.341463,-0.548781,-4.775000,17.468750,19.325001,31.522,0.56914875,-0.00978045,-0.02882780,-0.82167086
'00:20:09.754,0.058594,0.029785,1.001953,0.365854,1.280488,-0.548781,-4.731250,17.481251,19.387501,31.492,0.56915538,-0.00978163,-0.02883713,-0.82166593
'00:20:09.764,0.060059,0.029785,1.004395,0.365854,1.341463,-0.609756,-4.731250,17.481251,19.387501,31.552,0.56915771,-0.00978591,-0.02884804,-0.82166388
'00:20:09.774,0.061035,0.028809,1.002930,0.304878,1.280488,-0.548781,-5.118750,17.975000,19.656250,31.507,0.56914840,-0.00979120,-0.02883773,-0.82167063
'00:20:09.785,0.059570,0.028320,1.004883,0.304878,1.280488,-0.548781,-5.056250,17.818750,19.587500,31.537,0.56913922,-0.00979129,-0.02881776,-0.82167768
'00:20:09.794,0.061035,0.028320,1.005371,0.365854,1.341463,-0.609756,-5.056250,17.818750,19.587500,31.507,0.56912799,-0.00979170,-0.02880785,-0.82168580
'00:20:09.804,0.060059,0.030273,1.004883,0.365854,1.280488,-0.609756,-4.793750,17.518751,19.343750,31.476,0.56912689,-0.00979477,-0.02882098,-0.82168607
'00:20:09.814,0.060547,0.029785,1.003906,0.365854,1.341463,-0.548781,-4.793750,17.518751,19.343750,31.522,0.56913036,-0.00979840,-0.02883032,-0.82168330
'00:20:09.826,0.059570,0.029785,1.004395,0.365854,1.341463,-0.609756,-4.731250,17.562500,19.381250,31.476,0.56913560,-0.00980137,-0.02884369,-0.82167916
'00:20:09.835,0.059570,0.030273,1.002930,0.365854,1.341463,-0.609756,-4.731250,17.562500,19.381250,31.552,0.56913939,-0.00980206,-0.02885654,-0.82167608
'00:20:09.844,0.059570,0.028809,1.003418,0.365854,1.280488,-0.609756,-4.750000,17.512501,19.381250,31.507,0.56914103,-0.00981011,-0.02886177,-0.82167466
'00:20:09.854,0.060059,0.029297,1.003906,0.365854,1.341463,-0.609756,-4.750000,17.512501,19.381250,31.507,0.56914286,-0.00981523,-0.02886897,-0.82167308
'00:20:09.864,0.060059,0.029297,1.003906,0.365854,1.341463,-0.609756,-5.056250,17.862501,19.593750,31.507,0.56913105,-0.00980709,-0.02886041,-0.82168166
'00:20:09.874,0.059570,0.030273,1.003906,0.365854,1.341463,-0.609756,-5.056250,17.862501,19.593750,31.582,0.56911912,-0.00979268,-0.02885561,-0.82169026
'00:20:09.884,0.059082,0.029297,1.003906,0.304878,1.280488,-0.548781,-4.981250,17.812500,19.531250,31.522,0.56911576,-0.00979074,-0.02884685,-0.82169292
'00:20:09.894,0.059570,0.029785,1.004883,0.304878,1.280488,-0.548781,-4.981250,17.812500,19.531250,31.522,0.56911233,-0.00978942,-0.02884246,-0.82169547
'00:20:09.904,0.058594,0.028809,1.004883,0.304878,1.341463,-0.548781,-4.768750,17.531250,19.312500,31.537,0.56911823,-0.00979061,-0.02883597,-0.82169159
'00:20:09.914,0.058594,0.029785,1.004395,0.365854,1.341463,-0.548781,-4.768750,17.531250,19.312500,31.537,0.56912397,-0.00978500,-0.02883968,-0.82168755
'00:20:09.924,0.059082,0.029785,1.004395,0.365854,1.341463,-0.548781,-4.862500,17.581251,19.375000,31.476,0.56912407,-0.00977728,-0.02883894,-0.82168760
'00:20:09.934,0.059570,0.029297,1.003906,0.365854,1.280488,-0.609756,-4.862500,17.581251,19.375000,31.492,0.56911974,-0.00977860,-0.02884063,-0.82169052
'00:20:09.944,0.060547,0.029297,1.003906,0.365854,1.341463,-0.548781,-4.725000,17.568750,19.387501,31.476,0.56912914,-0.00978952,-0.02885346,-0.82168343
'00:20:09.955,0.060059,0.029297,1.002930,0.304878,1.341463,-0.609756,-4.725000,17.568750,19.387501,31.492,0.56913456,-0.00980170,-0.02886087,-0.82167927
'00:20:09.964,0.060059,0.029297,1.003906,0.365854,1.341463,-0.548781,-4.937500,17.712500,19.468750,31.522,0.56913242,-0.00979890,-0.02885838,-0.82168087
'00:20:09.974,0.060059,0.029297,1.004395,0.365854,1.341463,-0.548781,-4.937500,17.712500,19.468750,31.552,0.56913007,-0.00979574,-0.02885548,-0.82168264
'00:20:09.984,0.059570,0.029785,1.005859,0.365854,1.341463,-0.548781,-5.000000,17.775000,19.518751,31.522,0.56912469,-0.00978504,-0.02884956,-0.82168671
'00:20:09.994,0.058594,0.029297,1.003906,0.365854,1.341463,-0.548781,-5.000000,17.775000,19.518751,31.552,0.56911946,-0.00977147,-0.02883807,-0.82169089
'00:20:10.004,0.058105,0.030762,1.002930,0.365854,1.341463,-0.609756,-4.943750,17.793751,19.512501,31.567,0.56911391,-0.00975335,-0.02883830,-0.82169494
'00:20:10.015,0.058594,0.030273,1.003906,0.365854,1.341463,-0.609756,-4.943750,17.793751,19.512501,31.522,0.56910797,-0.00973857,-0.02883723,-0.82169927
'00:20:10.024,0.060059,0.030273,1.003418,0.304878,1.341463,-0.548781,-4.750000,17.418751,19.312500,31.582,0.56911181,-0.00974241,-0.02884360,-0.82169634
'00:20:10.034,0.060547,0.029297,1.002930,0.365854,1.402439,-0.548781,-4.750000,17.418751,19.312500,31.522,0.56911645,-0.00974590,-0.02884842,-0.82169292
'00:20:10.044,0.061035,0.028809,1.004883,0.365854,1.280488,-0.548781,-4.900000,17.675001,19.468750,31.552,0.56911586,-0.00975688,-0.02885163,-0.82169309
'00:20:10.054,0.060547,0.028809,1.004883,0.365854,1.341463,-0.548781,-4.756250,17.450001,19.318750,31.537,0.56912068,-0.00976605,-0.02885598,-0.82168948
'00:20:10.064,0.060547,0.030762,1.003906,0.365854,1.341463,-0.609756,-4.756250,17.450001,19.318750,31.507,0.56912067,-0.00976737,-0.02887180,-0.82168892
'00:20:10.074,0.059570,0.029785,1.004395,0.304878,1.341463,-0.548781,-5.056250,17.875000,19.656250,31.552,0.56911328,-0.00975885,-0.02885971,-0.82169456
'00:20:10.084,0.061035,0.029297,1.005371,0.365854,1.341463,-0.548781,-5.056250,17.875000,19.656250,31.507,0.56910608,-0.00975714,-0.02885472,-0.82169975
'00:20:10.094,0.059570,0.030273,1.002930,0.365854,1.341463,-0.548781,-5.075000,17.943750,19.618750,31.552,0.56909922,-0.00974401,-0.02885101,-0.82170478
'00:20:10.104,0.059570,0.029297,1.003906,0.365854,1.341463,-0.609756,-5.075000,17.943750,19.618750,31.522,0.56908826,-0.00973452,-0.02884165,-0.82171281
'00:20:10.114,0.057129,0.029785,1.003418,0.365854,1.341463,-0.548781,-4.750000,17.550001,19.337500,31.492,0.56909590,-0.00972335,-0.02884200,-0.82170765
'00:20:10.124,0.057129,0.030273,1.002441,0.304878,1.341463,-0.548781,-4.750000,17.550001,19.337500,31.507,0.56910336,-0.00971361,-0.02884115,-0.82170262
'00:20:10.134,0.059082,0.029785,1.002930,0.304878,1.280488,-0.548781,-4.787500,17.550001,19.412500,31.476,0.56910775,-0.00971899,-0.02884482,-0.82169939
'00:20:10.145,0.059570,0.029785,1.003906,0.365854,1.341463,-0.548781,-4.787500,17.550001,19.412500,31.537,0.56911275,-0.00971943,-0.02885191,-0.82169567
'00:20:10.154,0.061523,0.030762,1.006348,0.243902,1.280488,-0.548781,-4.793750,17.475000,19.275000,31.567,0.56911488,-0.00973328,-0.02886153,-0.82169370
'00:20:10.164,0.061035,0.028809,1.004883,0.365854,1.341463,-0.609756,-4.793750,17.475000,19.275000,31.492,0.56911350,-0.00974316,-0.02886547,-0.82169440
'00:20:10.174,0.061523,0.029297,1.005371,0.243902,1.280488,-0.548781,-4.831250,17.531250,19.431250,31.567,0.56911416,-0.00976306,-0.02886607,-0.82169368
'00:20:10.184,0.060547,0.028320,1.003418,0.060976,1.097561,-0.609756,-4.831250,17.531250,19.431250,31.537,0.56911003,-0.00980358,-0.02885410,-0.82169648
'00:20:10.196,0.061035,0.029297,1.002441,0.365854,1.341463,-0.548781,-5.006250,17.831251,19.512501,31.507,0.56910478,-0.00980385,-0.02885323,-0.82170014
'00:20:10.204,0.059082,0.029785,1.001465,0.670732,1.707317,-0.609756,-5.006250,17.831251,19.512501,31.507,0.56909870,-0.00976097,-0.02885219,-0.82170490
'00:20:10.214,0.057129,0.031250,1.004883,0.121951,1.158537,-0.548781,-4.762500,17.525000,19.350000,31.567,0.56910373,-0.00976734,-0.02885005,-0.82170142
'00:20:10.224,0.059570,0.027344,1.004395,0.243902,1.280488,-0.609756,-4.762500,17.525000,19.350000,31.552,0.56910551,-0.00978786,-0.02883809,-0.82170036
'00:20:10.234,0.058594,0.029297,1.005859,0.548781,1.585366,-0.609756,-4.756250,17.506250,19.387501,31.507,0.56910777,-0.00975787,-0.02883968,-0.82169909
'00:20:10.244,0.059570,0.028809,1.004883,0.182927,1.097561,-0.548781,-4.756250,17.506250,19.387501,31.507,0.56911296,-0.00978918,-0.02884065,-0.82169509
'00:20:10.254,0.060547,0.029785,1.003418,0.548781,1.524390,-0.548781,-4.781250,17.481251,19.343750,31.522,0.56911704,-0.00977109,-0.02885403,-0.82169201
'00:20:10.264,0.057617,0.031738,1.004395,0.243902,1.280488,-0.548781,-4.781250,17.481251,19.343750,31.476,0.56911994,-0.00976156,-0.02885682,-0.82169002
'00:20:10.274,0.061035,0.029785,1.003906,0.121951,1.158537,-0.548781,-4.856250,17.506250,19.375000,31.522,0.56911798,-0.00978961,-0.02885385,-0.82169115
'00:20:10.284,0.060059,0.029297,1.003418,0.304878,1.341463,-0.609756,-4.856250,17.506250,19.375000,31.537,0.56911235,-0.00979155,-0.02884863,-0.82169521
'00:20:10.294,0.060547,0.028809,1.002441,0.487805,1.463415,-0.609756,-4.762500,17.475000,19.381250,31.522,0.56911305,-0.00978595,-0.02885666,-0.82169451
'00:20:10.304,0.056641,0.030762,1.007812,0.182927,1.219512,-0.609756,-4.800000,17.493750,19.343750,31.492,0.56911061,-0.00978023,-0.02884620,-0.82169663
'00:20:10.314,0.060059,0.028809,1.005371,0.000000,0.975610,-0.487805,-4.800000,17.493750,19.343750,31.567,0.56911645,-0.00982869,-0.02883798,-0.82169230
'00:20:10.324,0.061035,0.028320,1.003418,0.487805,1.524390,-0.548781,-4.775000,17.481251,19.293751,31.507,0.56912134,-0.00982174,-0.02884114,-0.82168889
'00:20:10.334,0.058594,0.030762,1.005371,0.731707,1.829268,-0.670732,-4.775000,17.481251,19.293751,31.492,0.56911805,-0.00975703,-0.02885032,-0.82169161
'00:20:10.344,0.059082,0.027832,1.003418,-0.060976,0.853659,-0.487805,-4.787500,17.481251,19.312500,31.492,0.56912448,-0.00981696,-0.02883590,-0.82168695
'00:20:10.354,0.059570,0.029297,1.003418,0.243902,1.219512,-0.548781,-4.787500,17.481251,19.312500,31.552,0.56912729,-0.00983142,-0.02883558,-0.82168484
'00:20:10.364,0.058594,0.029297,1.002441,0.670732,1.646341,-0.609756,-4.831250,17.662500,19.425001,31.507,0.56912794,-0.00978866,-0.02884196,-0.82168468
'00:20:10.374,0.056152,0.032227,1.006348,0.304878,1.341463,-0.609756,-4.831250,17.662500,19.425001,31.582,0.56912707,-0.00976059,-0.02884281,-0.82168559
'00:20:10.384,0.060059,0.029785,1.002930,0.000000,0.975610,-0.548781,-5.231250,18.125000,19.700001,31.522,0.56911262,-0.00979007,-0.02882299,-0.82169594
'00:20:10.394,0.060059,0.030273,1.003906,0.182927,1.219512,-0.548781,-5.231250,18.125000,19.700001,31.476,0.56909888,-0.00979059,-0.02880678,-0.82170602
'00:20:10.404,0.061035,0.028320,1.003418,0.548781,1.585366,-0.548781,-5.187500,18.075001,19.775000,31.522,0.56908822,-0.00976157,-0.02879381,-0.82171420
'00:20:10.414,0.061035,0.029297,1.004395,0.731707,1.768293,-0.609756,-5.187500,18.075001,19.775000,31.492,0.56907371,-0.00970676,-0.02879021,-0.82172502
'00:20:10.424,0.060547,0.029785,1.004395,0.060976,0.975610,-0.487805,-4.812500,17.550001,19.350000,31.537,0.56908017,-0.00975260,-0.02879571,-0.82171981
'00:20:10.434,0.061035,0.027832,1.003418,0.304878,1.219512,-0.548781,-4.812500,17.550001,19.350000,31.537,0.56908335,-0.00977856,-0.02879766,-0.82171724
'00:20:10.444,0.059570,0.028320,1.004395,0.609756,1.585366,-0.609756,-4.837500,17.518751,19.325001,31.567,0.56908086,-0.00975037,-0.02879735,-0.82171931
'00:20:10.454,0.057617,0.030762,1.005859,0.243902,1.219512,-0.609756,-4.837500,17.518751,19.325001,31.522,0.56907677,-0.00974626,-0.02879470,-0.82172228
'00:20:10.464,0.058594,0.030762,1.001953,0.182927,1.158537,-0.548781,-4.806250,17.500000,19.275000,31.492,0.56907874,-0.00975751,-0.02879819,-0.82172066
'00:20:10.474,0.058105,0.029785,1.001465,0.548781,1.524390,-0.609756,-4.806250,17.500000,19.275000,31.597,0.56907776,-0.00972530,-0.02880245,-0.82172157
'00:20:10.484,0.056641,0.032715,1.005371,0.365854,1.402439,-0.548781,-4.937500,17.743750,19.493750,31.522,0.56907598,-0.00968723,-0.02880410,-0.82172320
'00:20:10.494,0.061035,0.028809,1.002930,0.060976,1.097561,-0.548781,-4.937500,17.743750,19.493750,31.507,0.56907393,-0.00972666,-0.02879499,-0.82172447
'00:20:10.504,0.061523,0.028809,1.004883,0.487805,1.524390,-0.609756,-5.137500,18.012501,19.656250,31.507,0.56906110,-0.00970806,-0.02878756,-0.82173383
'00:20:10.514,0.059570,0.030273,1.005371,0.426829,1.463415,-0.609756,-5.137500,18.012501,19.656250,31.492,0.56904791,-0.00968094,-0.02877950,-0.82174357
'00:20:10.524,0.062500,0.028809,1.001953,0.243902,1.280488,-0.609756,-4.812500,17.593750,19.375000,31.446,0.56904773,-0.00971182,-0.02878735,-0.82174306
'00:20:10.534,0.059082,0.030762,1.003906,0.426829,1.463415,-0.609756,-4.812500,17.593750,19.375000,31.537,0.56904784,-0.00969308,-0.02879615,-0.82174289
'00:20:10.545,0.059570,0.029297,1.002441,0.121951,1.158537,-0.548781,-4.806250,17.468750,19.312500,31.552,0.56904947,-0.00972160,-0.02878922,-0.82174167
'00:20:10.555,0.060059,0.028320,1.001953,0.304878,1.341463,-0.548781,-4.806250,17.543751,19.281250,31.537,0.56905362,-0.00973251,-0.02878546,-0.82173880
'00:20:10.564,0.059570,0.029785,1.004395,0.609756,1.524390,-0.609756,-4.806250,17.543751,19.281250,31.461,0.56905380,-0.00970854,-0.02879854,-0.82173850
'00:20:10.574,0.058594,0.030273,1.005859,0.182927,1.097561,-0.548781,-4.981250,17.950001,19.581251,31.492,0.56905318,-0.00972244,-0.02879738,-0.82173881
'00:20:10.584,0.059082,0.029297,1.006348,0.426829,1.341463,-0.548781,-4.981250,17.950001,19.581251,31.522,0.56905354,-0.00971292,-0.02879782,-0.82173865
'00:20:10.594,0.059082,0.029297,1.006348,0.426829,1.341463,-0.548781,-4.931250,17.725000,19.468750,31.522,0.56905252,-0.00970313,-0.02879695,-0.82173951
'00:20:10.605,0.057617,0.029297,1.005371,0.426829,1.463415,-0.670732,-4.931250,17.725000,19.468750,31.537,0.56904219,-0.00967395,-0.02878370,-0.82174747
'00:20:10.614,0.059570,0.028809,1.001953,0.304878,1.280488,-0.548781,-4.875000,17.606251,19.431250,31.567,0.56904230,-0.00968158,-0.02878022,-0.82174743
'00:20:10.624,0.059082,0.031250,1.001953,0.304878,1.341463,-0.548781,-4.875000,17.606251,19.431250,31.476,0.56904206,-0.00967327,-0.02878530,-0.82174751
'00:20:10.635,0.061523,0.028809,1.003418,0.243902,1.158537,-0.548781,-4.800000,17.543751,19.325001,31.522,0.56904630,-0.00971083,-0.02879557,-0.82174377
'00:20:10.644,0.061523,0.028809,1.003418,0.243902,1.158537,-0.548781,-4.800000,17.543751,19.325001,31.522,0.56904968,-0.00974103,-0.02880375,-0.82174078
'00:20:10.654,0.061035,0.028320,1.003906,0.487805,1.463415,-0.548781,-4.793750,17.456251,19.343750,31.522,0.56905274,-0.00973858,-0.02880847,-0.82173853
'00:20:10.664,0.060059,0.029785,1.005859,0.548781,1.585366,-0.609756,-4.793750,17.456251,19.343750,31.567,0.56905151,-0.00971262,-0.02881524,-0.82173945
'00:20:10.674,0.060059,0.029785,1.004883,0.182927,1.219512,-0.548781,-4.781250,17.512501,19.331251,31.522,0.56905573,-0.00973328,-0.02881660,-0.82173624
'00:20:10.684,0.060059,0.028809,1.003418,0.487805,1.463415,-0.609756,-4.781250,17.512501,19.331251,31.507,0.56905658,-0.00972504,-0.02882272,-0.82173553
'00:20:10.694,0.058594,0.030273,1.003906,0.182927,1.219512,-0.548781,-4.937500,17.743750,19.525000,31.492,0.56905454,-0.00972988,-0.02881438,-0.82173718
'00:20:10.704,0.058105,0.028809,1.001953,0.243902,1.280488,-0.609756,-4.937500,17.743750,19.525000,31.492,0.56904866,-0.00973057,-0.02879818,-0.82174181
'00:20:10.714,0.059082,0.029785,1.004883,0.365854,1.341463,-0.609756,-5.006250,17.825001,19.562500,31.582,0.56903996,-0.00971899,-0.02879276,-0.82174816
'00:20:10.724,0.057617,0.029785,1.005371,0.426829,1.402439,-0.548781,-5.006250,17.825001,19.562500,31.552,0.56903593,-0.00969223,-0.02878297,-0.82175161
'00:20:10.734,0.059082,0.030273,1.003906,0.304878,1.280488,-0.548781,-4.787500,17.493750,19.325001,31.552,0.56903962,-0.00969509,-0.02878911,-0.82174881
'00:20:10.744,0.061523,0.028809,1.005371,0.365854,1.402439,-0.548781,-4.787500,17.493750,19.325001,31.476,0.56904385,-0.00970507,-0.02879400,-0.82174559
'00:20:10.754,0.061035,0.029785,1.004395,0.243902,1.280488,-0.548781,-4.737500,17.475000,19.362501,31.492,0.56905034,-0.00972638,-0.02880359,-0.82174050
'00:20:10.764,0.061035,0.029785,1.004883,0.304878,1.402439,-0.548781,-4.737500,17.475000,19.362501,31.582,0.56905712,-0.00973545,-0.02881108,-0.82173544
'00:20:10.774,0.061035,0.028320,1.000977,0.365854,1.341463,-0.548781,-4.737500,17.468750,19.375000,31.507,0.56906382,-0.00975235,-0.02881881,-0.82173033
'00:20:10.784,0.060059,0.030273,1.002930,0.243902,1.280488,-0.548781,-4.737500,17.468750,19.375000,31.537,0.56906984,-0.00976573,-0.02882725,-0.82172571
'00:20:10.795,0.061035,0.030273,1.003418,0.304878,1.341463,-0.487805,-4.768750,17.500000,19.350000,31.492,0.56907990,-0.00977629,-0.02883984,-0.82171817
'00:20:10.804,0.058594,0.030273,1.005859,0.365854,1.402439,-0.609756,-4.768750,17.500000,19.350000,31.537,0.56908050,-0.00976514,-0.02884179,-0.82171782
'00:20:10.814,0.060059,0.028809,1.004883,0.304878,1.280488,-0.548781,-5.150000,18.081251,19.725000,31.476,0.56907163,-0.00976508,-0.02882749,-0.82172446
'00:20:10.824,0.058594,0.030273,1.006836,0.365854,1.402439,-0.609756,-5.150000,18.081251,19.725000,31.507,0.56905855,-0.00973922,-0.02881358,-0.82173432
'00:20:10.835,0.059570,0.028809,1.003418,0.365854,1.341463,-0.548781,-4.781250,17.468750,19.387501,31.522,0.56906245,-0.00974303,-0.02881390,-0.82173157
'00:20:10.844,0.057617,0.030762,1.004883,0.243902,1.219512,-0.609756,-4.831250,17.562500,19.362501,31.537,0.56905998,-0.00974060,-0.02881301,-0.82173334
'00:20:10.854,0.058594,0.029785,1.003418,0.365854,1.402439,-0.548781,-4.831250,17.562500,19.362501,31.476,0.56906234,-0.00972853,-0.02881048,-0.82173193
'00:20:10.864,0.060547,0.029785,1.002930,0.243902,1.219512,-0.609756,-4.800000,17.531250,19.375000,31.507,0.56906110,-0.00974809,-0.02881782,-0.82173230
'00:20:10.875,0.060059,0.030273,1.003418,0.365854,1.341463,-0.548781,-4.800000,17.531250,19.375000,31.492,0.56906484,-0.00974796,-0.02882939,-0.82172930
'00:20:10.884,0.061523,0.028809,1.002930,0.304878,1.280488,-0.609756,-4.937500,17.800001,19.550001,31.537,0.56906051,-0.00976304,-0.02883114,-0.82173206
'00:20:10.894,0.061035,0.030273,1.005371,0.365854,1.341463,-0.548781,-4.937500,17.800001,19.550001,31.522,0.56905999,-0.00976342,-0.02883970,-0.82173212
'00:20:10.904,0.060547,0.028809,1.005371,0.304878,1.341463,-0.548781,-5.075000,18.043751,19.662500,31.492,0.56905568,-0.00976527,-0.02882891,-0.82173546
'00:20:10.914,0.060059,0.029785,1.003418,0.304878,1.280488,-0.609756,-5.075000,18.043751,19.662500,31.537,0.56904668,-0.00976535,-0.02882570,-0.82174181
'00:20:10.924,0.059570,0.029297,1.004395,0.365854,1.341463,-0.548781,-4.837500,17.606251,19.431250,31.537,0.56904926,-0.00976482,-0.02882702,-0.82173998
'00:20:10.934,0.059082,0.030273,1.002930,0.304878,1.219512,-0.548781,-4.837500,17.606251,19.431250,31.461,0.56905126,-0.00976980,-0.02883422,-0.82173828
'00:20:10.944,0.059082,0.030762,1.002930,0.365854,1.341463,-0.548781,-4.762500,17.518751,19.387501,31.492,0.56905683,-0.00976426,-0.02884629,-0.82173406
'00:20:10.954,0.058594,0.030762,1.002930,0.304878,1.280488,-0.609756,-4.762500,17.518751,19.387501,31.507,0.56905782,-0.00976328,-0.02885497,-0.82173309
'00:20:10.964,0.058594,0.028809,1.004883,0.365854,1.341463,-0.548781,-4.812500,17.575001,19.350000,31.522,0.56906180,-0.00975999,-0.02885043,-0.82173053
'00:20:10.974,0.060059,0.028809,1.003418,0.243902,1.280488,-0.548781,-4.812500,17.575001,19.350000,31.522,0.56906544,-0.00977558,-0.02884650,-0.82172796
'00:20:10.984,0.058594,0.030273,1.006348,0.365854,1.402439,-0.548781,-4.775000,17.506250,19.250000,31.507,0.56907065,-0.00976274,-0.02884827,-0.82172444
'00:20:10.995,0.061035,0.029297,1.004883,0.304878,1.280488,-0.548781,-4.775000,17.506250,19.250000,31.522,0.56907610,-0.00978114,-0.02885697,-0.82172015
'00:20:11.004,0.061523,0.030762,1.002930,0.304878,1.341463,-0.609756,-5.050000,17.856251,19.587500,31.522,0.56906564,-0.00977968,-0.02885876,-0.82172735
'00:20:11.014,0.061523,0.030273,1.002930,0.304878,1.341463,-0.548781,-5.050000,17.856251,19.587500,31.582,0.56905852,-0.00978016,-0.02885800,-0.82173230
'00:20:11.024,0.060547,0.029297,1.003906,0.304878,1.219512,-0.548781,-5.006250,17.831251,19.587500,31.507,0.56905370,-0.00978988,-0.02885646,-0.82173557
'00:20:11.035,0.061035,0.028809,1.002930,0.365854,1.341463,-0.609756,-5.006250,17.831251,19.587500,31.552,0.56904408,-0.00979257,-0.02885248,-0.82174234
'00:20:11.044,0.058594,0.029297,1.001953,0.304878,1.280488,-0.548781,-4.768750,17.500000,19.306250,31.492,0.56904866,-0.00979611,-0.02885229,-0.82173913
'00:20:11.054,0.059082,0.028809,1.004883,0.243902,1.280488,-0.548781,-4.768750,17.500000,19.306250,31.507,0.56905380,-0.00980703,-0.02884566,-0.82173568
'00:20:11.064,0.057617,0.028809,1.004395,0.426829,1.402439,-0.548781,-4.762500,17.512501,19.350000,31.552,0.56905998,-0.00979258,-0.02884130,-0.82173172
'00:20:11.075,0.058105,0.030273,1.004883,0.365854,1.341463,-0.548781,-4.750000,17.506250,19.281250,31.461,0.56906733,-0.00978213,-0.02884730,-0.82172654
'00:20:11.084,0.059082,0.031250,1.004883,0.365854,1.341463,-0.609756,-4.750000,17.506250,19.281250,31.522,0.56906918,-0.00977497,-0.02886056,-0.82172489
'00:20:11.094,0.060059,0.029785,1.005371,0.243902,1.341463,-0.548781,-5.212500,18.100000,19.793751,31.567,0.56905627,-0.00976646,-0.02883947,-0.82173467
'00:20:11.104,0.060547,0.029297,1.003906,0.304878,1.280488,-0.548781,-5.212500,18.100000,19.793751,31.492,0.56904344,-0.00976431,-0.02882589,-0.82174406
'00:20:11.117,0.059570,0.028809,1.001953,0.243902,1.341463,-0.609756,-5.106250,17.950001,19.593750,31.522,0.56902703,-0.00976036,-0.02879786,-0.82175645
'00:20:11.124,0.060547,0.028320,1.003418,0.243902,1.219512,-0.548781,-5.106250,17.950001,19.593750,31.492,0.56902117,-0.00976936,-0.02878763,-0.82176076
'00:20:11.134,0.061523,0.028320,1.003906,0.365854,1.341463,-0.548781,-4.787500,17.512501,19.306250,31.567,0.56902579,-0.00978507,-0.02879381,-0.82175715
'00:20:11.144,0.059082,0.030762,1.006348,0.487805,1.402439,-0.609756,-4.787500,17.512501,19.306250,31.537,0.56902585,-0.00976634,-0.02880905,-0.82175680
'00:20:11.156,0.061035,0.028809,1.003906,0.304878,1.280488,-0.548781,-4.775000,17.450001,19.350000,31.552,0.56903004,-0.00978865,-0.02881473,-0.82175344
'00:20:11.164,0.059082,0.030762,1.006348,0.365854,1.341463,-0.548781,-4.775000,17.450001,19.350000,31.492,0.56903269,-0.00978203,-0.02882152,-0.82175144
'00:20:11.174,0.060059,0.029297,1.003906,0.365854,1.402439,-0.609756,-4.781250,17.487501,19.393751,31.552,0.56903231,-0.00978134,-0.02882366,-0.82175164
'00:20:11.184,0.058594,0.030762,1.003906,0.243902,1.219512,-0.548781,-4.781250,17.487501,19.393751,31.492,0.56903547,-0.00978597,-0.02882871,-0.82174922
'00:20:11.195,0.058594,0.029297,1.003418,0.426829,1.402439,-0.609756,-4.843750,17.512501,19.331251,31.552,0.56903128,-0.00976889,-0.02882515,-0.82175245
'00:20:11.204,0.058594,0.028809,1.002441,0.243902,1.280488,-0.548781,-4.843750,17.512501,19.331251,31.507,0.56903150,-0.00977325,-0.02881378,-0.82175264
'00:20:11.214,0.060059,0.029785,1.004883,0.365854,1.341463,-0.548781,-5.050000,17.887501,19.606251,31.537,0.56902544,-0.00976495,-0.02880988,-0.82175707
'00:20:11.224,0.060547,0.028809,1.005371,0.304878,1.219512,-0.609756,-5.050000,17.887501,19.606251,31.522,0.56901488,-0.00977472,-0.02880405,-0.82176447
'00:20:11.235,0.060547,0.030762,1.005371,0.365854,1.341463,-0.609756,-4.893750,17.637501,19.487501,31.507,0.56900897,-0.00977020,-0.02881473,-0.82176825
'00:20:11.244,0.060547,0.029297,1.002441,0.365854,1.341463,-0.548781,-4.893750,17.637501,19.487501,31.507,0.56900832,-0.00977244,-0.02881691,-0.82176859
'00:20:11.254,0.060059,0.029785,1.003418,0.304878,1.280488,-0.609756,-4.768750,17.506250,19.325001,31.552,0.56900918,-0.00978273,-0.02882549,-0.82176757
'00:20:11.264,0.061035,0.030273,1.002441,0.365854,1.341463,-0.609756,-4.768750,17.506250,19.325001,31.522,0.56901006,-0.00978915,-0.02884220,-0.82176630
'00:20:11.277,0.059570,0.030762,1.003418,0.304878,1.280488,-0.548781,-4.787500,17.500000,19.350000,31.552,0.56901447,-0.00979225,-0.02885526,-0.82176275
'00:20:11.284,0.059082,0.031250,1.002930,0.365854,1.341463,-0.548781,-4.787500,17.500000,19.350000,31.537,0.56901690,-0.00978549,-0.02886384,-0.82176085
'00:20:11.295,0.059570,0.030273,1.004883,0.243902,1.280488,-0.548781,-4.825000,17.587500,19.425001,31.537,0.56901970,-0.00979224,-0.02886486,-0.82175879
'00:20:11.304,0.057129,0.029785,1.005859,0.243902,1.341463,-0.548781,-4.825000,17.587500,19.425001,31.537,0.56902230,-0.00978307,-0.02885156,-0.82175757
'00:20:11.316,0.058105,0.029785,1.002930,0.304878,1.341463,-0.548781,-4.993750,17.881250,19.631250,31.522,0.56901918,-0.00976807,-0.02883766,-0.82176040
'00:20:11.324,0.057617,0.030273,1.002930,0.243902,1.280488,-0.548781,-4.993750,17.881250,19.631250,31.522,0.56901691,-0.00976050,-0.02882821,-0.82176239
'00:20:11.334,0.060547,0.030273,1.003906,0.243902,1.280488,-0.609756,-4.956250,17.712500,19.500000,31.461,0.56900879,-0.00976650,-0.02882662,-0.82176799
'00:20:11.344,0.060547,0.030273,1.003906,0.243902,1.280488,-0.609756,-4.756250,17.506250,19.375000,31.461,0.56901014,-0.00978150,-0.02883604,-0.82176655
'00:20:11.357,0.061035,0.028809,1.006348,0.365854,1.341463,-0.548781,-4.756250,17.506250,19.375000,31.567,0.56901824,-0.00979769,-0.02884575,-0.82176041
'00:20:11.364,0.061035,0.028809,1.006348,0.365854,1.341463,-0.548781,-4.850000,17.587500,19.381250,31.567,0.56901932,-0.00980288,-0.02884705,-0.82175956
'00:20:11.374,0.061523,0.028320,1.005371,0.365854,1.341463,-0.609756,-4.850000,17.587500,19.381250,31.507,0.56901654,-0.00981486,-0.02884844,-0.82176129
'00:20:11.384,0.062012,0.029297,1.002441,0.426829,1.341463,-0.609756,-4.787500,17.531250,19.356251,31.476,0.56901666,-0.00982621,-0.02886633,-0.82176044
'00:20:11.396,0.059570,0.030762,1.002930,0.365854,1.341463,-0.548781,-4.787500,17.531250,19.356251,31.552,0.56902168,-0.00982012,-0.02888055,-0.82175654
'00:20:11.404,0.060059,0.029297,1.000977,0.304878,1.341463,-0.548781,-5.100000,17.893751,19.600000,31.552,0.56901417,-0.00981517,-0.02886924,-0.82176219
'00:20:11.414,0.059570,0.030762,1.004395,0.304878,1.341463,-0.548781,-5.100000,17.893751,19.600000,31.552,0.56900458,-0.00980010,-0.02886025,-0.82176933
'00:20:11.424,0.059570,0.029785,1.005859,0.304878,1.341463,-0.548781,-5.312500,18.243750,19.918751,31.446,0.56898825,-0.00978235,-0.02883758,-0.82178164
'00:20:11.434,0.058594,0.028809,1.005859,0.304878,1.280488,-0.548781,-5.312500,18.243750,19.918751,31.492,0.56897210,-0.00976776,-0.02880936,-0.82179399
'00:20:11.444,0.059082,0.030273,1.007812,0.365854,1.402439,-0.548781,-4.825000,17.600000,19.362501,31.492,0.56897594,-0.00975632,-0.02881146,-0.82179140
'00:20:11.454,0.061035,0.028809,1.003906,0.365854,1.402439,-0.548781,-4.825000,17.600000,19.362501,31.507,0.56897998,-0.00976236,-0.02881432,-0.82178842
'00:20:11.464,0.059082,0.029785,1.002930,0.243902,1.280488,-0.548781,-4.768750,17.500000,19.306250,31.507,0.56898524,-0.00977061,-0.02881493,-0.82178466
'00:20:11.474,0.060547,0.029785,1.001953,0.426829,1.402439,-0.609756,-4.768750,17.500000,19.306250,31.537,0.56898649,-0.00976910,-0.02882869,-0.82178333
'00:20:11.484,0.061035,0.029785,1.001465,0.304878,1.280488,-0.548781,-4.762500,17.537500,19.381250,31.582,0.56899266,-0.00978648,-0.02884280,-0.82177836
'00:20:11.494,0.061523,0.029297,1.003906,0.365854,1.341463,-0.548781,-4.762500,17.537500,19.381250,31.492,0.56899906,-0.00980025,-0.02885609,-0.82177330
'00:20:11.504,0.062012,0.027832,1.006348,0.304878,1.280488,-0.548781,-4.787500,17.550001,19.381250,31.507,0.56900403,-0.00982765,-0.02885871,-0.82176943
'00:20:11.515,0.061035,0.029297,1.009277,0.304878,1.341463,-0.548781,-4.787500,17.550001,19.381250,31.507,0.56900934,-0.00983956,-0.02886184,-0.82176551
'00:20:11.524,0.060547,0.028320,1.005859,0.365854,1.402439,-0.609756,-5.206250,18.056250,19.706251,31.492,0.56899412,-0.00982857,-0.02884206,-0.82177687
'00:20:11.534,0.058594,0.029785,1.003906,0.304878,1.341463,-0.548781,-5.206250,18.056250,19.706251,31.492,0.56898118,-0.00980845,-0.02882048,-0.82178682
'00:20:11.544,0.058594,0.029785,1.000977,0.365854,1.402439,-0.548781,-4.812500,17.531250,19.356251,31.507,0.56898423,-0.00979675,-0.02881967,-0.82178488
'00:20:11.556,0.059570,0.029785,1.000977,0.304878,1.341463,-0.548781,-4.812500,17.531250,19.356251,31.492,0.56898761,-0.00979832,-0.02882167,-0.82178246
'00:20:11.564,0.058105,0.030762,1.001953,0.304878,1.341463,-0.548781,-4.750000,17.456251,19.356251,31.476,0.56899181,-0.00979176,-0.02882505,-0.82177951
'00:20:11.574,0.058594,0.030273,1.004883,0.365854,1.402439,-0.548781,-4.750000,17.456251,19.356251,31.507,0.56899736,-0.00978033,-0.02882849,-0.82177568
'00:20:11.584,0.058594,0.028809,1.004883,0.304878,1.341463,-0.548781,-4.725000,17.500000,19.318750,31.522,0.56900599,-0.00978435,-0.02882530,-0.82176977
'00:20:11.594,0.061035,0.028809,1.005371,0.365854,1.341463,-0.609756,-4.725000,17.500000,19.318750,31.537,0.56901016,-0.00979855,-0.02883585,-0.82176634
'00:20:11.604,0.061523,0.028809,1.005371,0.304878,1.341463,-0.548781,-4.712500,17.525000,19.306250,31.552,0.56902010,-0.00981947,-0.02884527,-0.82175888
'00:20:11.614,0.060547,0.029297,1.003418,0.304878,1.341463,-0.609756,-5.081250,17.968750,19.631250,31.522,0.56900929,-0.00981753,-0.02883578,-0.82176672
'00:20:11.624,0.061035,0.029297,1.002930,0.304878,1.341463,-0.548781,-5.081250,17.968750,19.631250,31.522,0.56900289,-0.00981857,-0.02882847,-0.82177139
'00:20:11.634,0.060547,0.029785,1.002441,0.304878,1.341463,-0.548781,-4.900000,17.762501,19.456251,31.537,0.56900457,-0.00982265,-0.02883157,-0.82177007
'00:20:11.644,0.059570,0.028809,1.003418,0.243902,1.341463,-0.609756,-4.900000,17.762501,19.456251,31.522,0.56900205,-0.00982778,-0.02882068,-0.82177214
'00:20:11.654,0.059082,0.029297,1.004883,0.365854,1.341463,-0.548781,-4.768750,17.531250,19.325001,31.522,0.56900816,-0.00982654,-0.02882387,-0.82176782
'00:20:11.664,0.058105,0.030273,1.005859,0.365854,1.341463,-0.609756,-4.768750,17.531250,19.325001,31.476,0.56900971,-0.00981566,-0.02882841,-0.82176671
'00:20:11.674,0.058105,0.029297,1.005859,0.304878,1.341463,-0.609756,-4.793750,17.493750,19.343750,31.476,0.56900869,-0.00980978,-0.02882005,-0.82176778
'00:20:11.684,0.059082,0.028809,1.004395,0.365854,1.341463,-0.548781,-4.793750,17.493750,19.343750,31.507,0.56901218,-0.00980881,-0.02881775,-0.82176545
'00:20:11.694,0.058594,0.029297,1.003906,0.365854,1.280488,-0.548781,-4.800000,17.550001,19.381250,31.507,0.56901617,-0.00980818,-0.02882035,-0.82176261
'00:20:11.704,0.059082,0.030273,1.004883,0.365854,1.341463,-0.548781,-4.800000,17.550001,19.381250,31.492,0.56902008,-0.00980182,-0.02882694,-0.82175975
'00:20:11.714,0.060547,0.029785,1.001953,0.304878,1.341463,-0.548781,-4.937500,17.712500,19.562500,31.507,0.56901755,-0.00980359,-0.02882591,-0.82176151
'00:20:11.724,0.061035,0.030273,1.003418,0.304878,1.280488,-0.548781,-4.937500,17.712500,19.562500,31.522,0.56901478,-0.00981015,-0.02883197,-0.82176314
'00:20:11.734,0.061035,0.028320,1.002441,0.365854,1.341463,-0.548781,-5.106250,18.012501,19.687500,31.461,0.56900776,-0.00981142,-0.02882291,-0.82176830
'00:20:11.744,0.060547,0.029785,1.003906,0.243902,1.280488,-0.609756,-5.106250,18.012501,19.687500,31.522,0.56899588,-0.00981438,-0.02881404,-0.82177681
'00:20:11.754,0.060059,0.029297,1.003906,0.365854,1.341463,-0.609756,-4.768750,17.531250,19.356251,31.492,0.56899749,-0.00981894,-0.02882154,-0.82177538
'00:20:11.764,0.059570,0.029297,1.003906,0.304878,1.341463,-0.548781,-4.768750,17.531250,19.356251,31.492,0.56900340,-0.00982389,-0.02882258,-0.82177118
'00:20:11.774,0.059570,0.029297,1.004883,0.426829,1.341463,-0.548781,-4.768750,17.487501,19.393751,31.537,0.56900820,-0.00982199,-0.02883078,-0.82176759
'00:20:11.784,0.058594,0.029785,1.005371,0.365854,1.402439,-0.548781,-4.768750,17.487501,19.393751,31.492,0.56901302,-0.00981125,-0.02883021,-0.82176441
'00:20:11.794,0.059570,0.029785,1.004395,0.365854,1.402439,-0.609756,-4.768750,17.456251,19.281250,31.492,0.56901315,-0.00980542,-0.02883342,-0.82176427
'00:20:11.804,0.059570,0.029297,1.004395,0.304878,1.280488,-0.548781,-4.768750,17.456251,19.281250,31.537,0.56901741,-0.00981351,-0.02883544,-0.82176116
'00:20:11.814,0.059082,0.029297,1.003418,0.304878,1.280488,-0.548781,-4.981250,17.812500,19.550001,31.476,0.56901429,-0.00981173,-0.02882744,-0.82176362
'00:20:11.824,0.059082,0.029297,1.002441,0.304878,1.280488,-0.548781,-4.981250,17.812500,19.550001,31.507,0.56901119,-0.00981020,-0.02881997,-0.82176604
'00:20:11.834,0.059570,0.029785,1.004395,0.304878,1.341463,-0.548781,-5.156250,17.950001,19.606251,31.537,0.56899948,-0.00979664,-0.02880359,-0.82177489
'00:20:11.844,0.060547,0.029785,1.003906,0.304878,1.341463,-0.548781,-5.156250,17.950001,19.606251,31.552,0.56898784,-0.00978871,-0.02879141,-0.82178347
'00:20:11.854,0.060547,0.030273,1.004883,0.365854,1.341463,-0.609756,-4.812500,17.593750,19.400000,31.522,0.56898758,-0.00979063,-0.02880434,-0.82178317
'00:20:11.864,0.060059,0.029297,1.003418,0.304878,1.341463,-0.609756,-4.775000,17.481251,19.312500,31.507,0.56898778,-0.00979752,-0.02880630,-0.82178289
'00:20:11.874,0.060059,0.028809,1.004395,0.426829,1.280488,-0.548781,-4.775000,17.481251,19.312500,31.537,0.56899239,-0.00980449,-0.02881676,-0.82177924
'00:20:11.884,0.060547,0.028809,1.003418,0.365854,1.280488,-0.548781,-4.800000,17.593750,19.418751,31.552,0.56899735,-0.00981757,-0.02882542,-0.82177535
'00:20:11.894,0.059570,0.030273,1.003418,0.365854,1.341463,-0.548781,-4.800000,17.593750,19.418751,31.492,0.56900213,-0.00981484,-0.02883542,-0.82177172
'00:20:11.904,0.059570,0.029297,1.003418,0.365854,1.280488,-0.609756,-4.775000,17.481251,19.343750,31.567,0.56900197,-0.00981999,-0.02884219,-0.82177153
'00:20:11.914,0.058594,0.029297,1.003418,0.365854,1.341463,-0.548781,-4.775000,17.481251,19.343750,31.552,0.56900634,-0.00981539,-0.02884196,-0.82176857
'00:20:11.924,0.059570,0.029297,1.002930,0.365854,1.341463,-0.609756,-5.150000,18.018751,19.737501,31.522,0.56899185,-0.00980233,-0.02882925,-0.82177920
'00:20:11.934,0.059570,0.029297,1.004395,0.365854,1.341463,-0.548781,-5.150000,18.018751,19.737501,31.492,0.56898183,-0.00978936,-0.02881620,-0.82178675
'00:20:11.944,0.060547,0.029297,1.003906,0.304878,1.341463,-0.548781,-5.012500,17.781250,19.631250,31.446,0.56897585,-0.00978957,-0.02880773,-0.82179119
'00:20:11.954,0.060059,0.029785,1.003418,0.304878,1.341463,-0.609756,-5.012500,17.781250,19.631250,31.507,0.56896544,-0.00978518,-0.02880052,-0.82179870
'00:20:11.964,0.059570,0.029297,1.004883,0.365854,1.341463,-0.548781,-4.806250,17.518751,19.431250,31.522,0.56896839,-0.00978525,-0.02880262,-0.82179659
'00:20:11.974,0.060059,0.028809,1.004395,0.304878,1.341463,-0.548781,-4.806250,17.518751,19.431250,31.522,0.56897135,-0.00979308,-0.02879961,-0.82179455
'00:20:11.984,0.059570,0.030273,1.004395,0.304878,1.341463,-0.548781,-4.806250,17.525000,19.412500,31.476,0.56897422,-0.00979231,-0.02880327,-0.82179244
'00:20:11.994,0.059570,0.029297,1.004883,0.304878,1.280488,-0.609756,-4.806250,17.525000,19.412500,31.522,0.56897277,-0.00979951,-0.02880419,-0.82179333
'00:20:12.004,0.060059,0.028809,1.004395,0.304878,1.341463,-0.548781,-4.787500,17.562500,19.350000,31.552,0.56897838,-0.00980862,-0.02880386,-0.82178935
'00:20:12.014,0.061035,0.029785,1.003906,0.365854,1.341463,-0.609756,-4.787500,17.562500,19.350000,31.507,0.56897938,-0.00981605,-0.02881742,-0.82178809
'00:20:12.024,0.060059,0.029785,1.004395,0.304878,1.341463,-0.548781,-5.062500,17.912500,19.606251,31.552,0.56897309,-0.00980999,-0.02880906,-0.82179281
'00:20:12.035,0.060059,0.029297,1.004395,0.365854,1.341463,-0.548781,-5.062500,17.912500,19.606251,31.507,0.56896639,-0.00980221,-0.02880186,-0.82179780
'00:20:12.044,0.059570,0.029297,1.002930,0.304878,1.341463,-0.548781,-5.131250,18.087500,19.712500,31.461,0.56896006,-0.00979541,-0.02878996,-0.82180267
'00:20:12.054,0.060547,0.029785,1.004395,0.365854,1.341463,-0.609756,-5.131250,18.087500,19.712500,31.522,0.56894866,-0.00978791,-0.02878720,-0.82181076
'00:20:12.064,0.060059,0.030273,1.004883,0.304878,1.341463,-0.548781,-4.743750,17.506250,19.375000,31.582,0.56895571,-0.00979344,-0.02879745,-0.82180545
'00:20:12.074,0.060059,0.030273,1.004883,0.304878,1.341463,-0.548781,-4.743750,17.506250,19.375000,31.582,0.56896271,-0.00979885,-0.02880749,-0.82180018
'00:20:12.084,0.060059,0.029297,1.004395,0.304878,1.341463,-0.548781,-4.800000,17.456251,19.312500,31.507,0.56896500,-0.00980373,-0.02880645,-0.82179858
'00:20:12.094,0.060059,0.030273,1.002930,0.365854,1.341463,-0.548781,-4.800000,17.456251,19.312500,31.507,0.56896711,-0.00980195,-0.02881591,-0.82179681
'00:20:12.104,0.060059,0.030273,1.003418,0.365854,1.280488,-0.548781,-4.750000,17.487501,19.350000,31.552,0.56897313,-0.00980810,-0.02883268,-0.82179198
'00:20:12.114,0.059570,0.029785,1.003906,0.304878,1.341463,-0.609756,-4.750000,17.487501,19.350000,31.522,0.56897495,-0.00981173,-0.02883692,-0.82179052
'00:20:12.124,0.060547,0.029297,1.004395,0.304878,1.341463,-0.548781,-5.000000,17.825001,19.531250,31.507,0.56897119,-0.00981254,-0.02883019,-0.82179335
'00:20:12.134,0.060547,0.030273,1.004883,0.365854,1.341463,-0.548781,-5.118750,17.950001,19.681250,31.492,0.56896169,-0.00980163,-0.02882689,-0.82180018
'00:20:12.144,0.059082,0.029785,1.003906,0.304878,1.341463,-0.548781,-5.118750,17.950001,19.681250,31.476,0.56895231,-0.00978806,-0.02881145,-0.82180737
'00:20:12.154,0.060059,0.029785,1.004395,0.304878,1.402439,-0.548781,-4.743750,17.518751,19.343750,31.476,0.56895999,-0.00979129,-0.02881603,-0.82180186
'00:20:12.164,0.060547,0.029785,1.004395,0.365854,1.341463,-0.548781,-4.743750,17.518751,19.343750,31.552,0.56896751,-0.00979849,-0.02882979,-0.82179608
'00:20:12.174,0.058594,0.028809,1.003418,0.304878,1.341463,-0.548781,-4.793750,17.581251,19.431250,31.522,0.56897280,-0.00979978,-0.02882350,-0.82179262
'00:20:12.184,0.059570,0.028809,1.003418,0.365854,1.402439,-0.548781,-4.793750,17.581251,19.431250,31.582,0.56897826,-0.00979908,-0.02882244,-0.82178890
'00:20:12.195,0.059570,0.030762,1.004395,0.304878,1.341463,-0.548781,-4.750000,17.475000,19.362501,31.492,0.56898448,-0.00979885,-0.02883278,-0.82178423
'00:20:12.204,0.059082,0.029297,1.003906,0.365854,1.341463,-0.548781,-4.750000,17.475000,19.362501,31.552,0.56898988,-0.00979880,-0.02883594,-0.82178038
'00:20:12.214,0.059082,0.029297,1.004395,0.365854,1.341463,-0.548781,-4.887500,17.668751,19.450001,31.522,0.56899052,-0.00979308,-0.02883294,-0.82178011
'00:20:12.224,0.059570,0.030273,1.004395,0.365854,1.280488,-0.548781,-4.887500,17.668751,19.450001,31.552,0.56899080,-0.00979068,-0.02884041,-0.82177968
'00:20:12.234,0.059570,0.030273,1.004883,0.365854,1.341463,-0.548781,-5.287500,18.206251,19.831251,31.582,0.56897559,-0.00976915,-0.02882668,-0.82179095
'00:20:12.244,0.059570,0.029297,1.003906,0.365854,1.341463,-0.548781,-5.287500,18.206251,19.831251,31.552,0.56896069,-0.00975190,-0.02880830,-0.82180212
'00:20:12.254,0.059570,0.029785,1.003906,0.304878,1.341463,-0.609756,-4.956250,17.718750,19.537500,31.492,0.56895313,-0.00974757,-0.02880215,-0.82180762
'00:20:12.264,0.059570,0.029785,1.005371,0.304878,1.341463,-0.548781,-4.956250,17.718750,19.537500,31.507,0.56894999,-0.00974317,-0.02879550,-0.82181007
'00:20:12.274,0.058594,0.029785,1.002930,0.304878,1.402439,-0.548781,-4.775000,17.493750,19.312500,31.612,0.56895518,-0.00973690,-0.02879232,-0.82180667
'00:20:12.284,0.059570,0.028809,1.004883,0.304878,1.341463,-0.548781,-4.775000,17.493750,19.312500,31.507,0.56896040,-0.00974396,-0.02878968,-0.82180306
'00:20:12.295,0.059082,0.029297,1.003906,0.365854,1.341463,-0.548781,-4.800000,17.543751,19.356251,31.522,0.56896526,-0.00974258,-0.02879204,-0.82179963
'00:20:12.304,0.060059,0.028809,1.003906,0.365854,1.341463,-0.609756,-4.800000,17.543751,19.356251,31.522,0.56896534,-0.00974792,-0.02879488,-0.82179941
'00:20:12.314,0.059082,0.029297,1.004883,0.304878,1.341463,-0.609756,-4.781250,17.500000,19.306250,31.492,0.56896579,-0.00974966,-0.02879275,-0.82179916
'00:20:12.324,0.060059,0.029785,1.005859,0.365854,1.341463,-0.548781,-4.781250,17.500000,19.306250,31.476,0.56897052,-0.00975179,-0.02880114,-0.82179556
'00:20:12.334,0.060547,0.029785,1.003418,0.365854,1.402439,-0.548781,-5.112500,18.006250,19.618750,31.552,0.56896340,-0.00974062,-0.02879524,-0.82180083
'00:20:12.345,0.060547,0.029297,1.003418,0.243902,1.341463,-0.548781,-5.112500,18.006250,19.618750,31.552,0.56895544,-0.00974206,-0.02877966,-0.82180687
'00:20:12.354,0.060547,0.029785,1.003418,0.365854,1.402439,-0.548781,-5.031250,17.825001,19.562500,31.537,0.56895040,-0.00973411,-0.02877640,-0.82181057
'00:20:12.364,0.060059,0.029785,1.004395,0.365854,1.341463,-0.548781,-5.031250,17.825001,19.562500,31.552,0.56894470,-0.00972692,-0.02877365,-0.82181470
'00:20:12.374,0.059570,0.028809,1.004395,0.304878,1.341463,-0.548781,-4.725000,17.475000,19.275000,31.522,0.56895323,-0.00973707,-0.02877514,-0.82180861
'00:20:12.384,0.059082,0.030273,1.003906,0.304878,1.341463,-0.609756,-4.718750,17.518751,19.281250,31.492,0.56895852,-0.00973947,-0.02878479,-0.82180459
'00:20:12.395,0.059082,0.029297,1.004883,0.365854,1.280488,-0.548781,-4.718750,17.518751,19.281250,31.522,0.56896922,-0.00974772,-0.02879673,-0.82179667
'00:20:12.404,0.059570,0.029785,1.004395,0.304878,1.341463,-0.548781,-4.806250,17.550001,19.425001,31.492,0.56897247,-0.00974974,-0.02879816,-0.82179434
'00:20:12.414,0.060547,0.029785,1.004395,0.365854,1.341463,-0.548781,-4.806250,17.550001,19.425001,31.567,0.56897609,-0.00975434,-0.02880787,-0.82179144
'00:20:12.424,0.059570,0.029785,1.003418,0.304878,1.341463,-0.548781,-5.012500,17.812500,19.550001,31.507,0.56897118,-0.00974818,-0.02879978,-0.82179519
'00:20:12.434,0.060547,0.028809,1.003906,0.365854,1.402439,-0.609756,-5.012500,17.812500,19.550001,31.537,0.56896234,-0.00974361,-0.02879134,-0.82180167
'00:20:12.444,0.061035,0.029297,1.002930,0.304878,1.341463,-0.548781,-5.000000,17.825001,19.625000,31.522,0.56895841,-0.00974880,-0.02878770,-0.82180445
'00:20:12.454,0.060059,0.029785,1.003906,0.365854,1.341463,-0.548781,-5.000000,17.825001,19.625000,31.582,0.56895449,-0.00974346,-0.02878710,-0.82180725
'00:20:12.464,0.059570,0.029297,1.003906,0.365854,1.341463,-0.548781,-4.818750,17.587500,19.350000,31.522,0.56895866,-0.00974436,-0.02879081,-0.82180422
'00:20:12.474,0.059570,0.029785,1.003906,0.365854,1.341463,-0.548781,-4.818750,17.587500,19.350000,31.492,0.56896271,-0.00974332,-0.02879720,-0.82180121
'00:20:12.484,0.059570,0.029297,1.004395,0.304878,1.280488,-0.609756,-4.787500,17.518751,19.312500,31.537,0.56896298,-0.00975220,-0.02880011,-0.82180081
'00:20:12.495,0.059570,0.029785,1.005371,0.304878,1.280488,-0.548781,-4.787500,17.518751,19.312500,31.537,0.56896795,-0.00975964,-0.02880581,-0.82179708
'00:20:12.504,0.059082,0.029297,1.003906,0.304878,1.341463,-0.609756,-4.812500,17.518751,19.356251,31.537,0.56896655,-0.00975983,-0.02880214,-0.82179818
'00:20:12.514,0.059570,0.029297,1.004883,0.304878,1.341463,-0.609756,-4.812500,17.518751,19.356251,31.552,0.56896499,-0.00976255,-0.02879963,-0.82179931
'00:20:12.524,0.059082,0.029785,1.004395,0.365854,1.341463,-0.548781,-4.768750,17.556250,19.375000,31.507,0.56897164,-0.00976111,-0.02880686,-0.82179447
'00:20:12.534,0.060059,0.029785,1.003418,0.304878,1.280488,-0.609756,-4.768750,17.556250,19.375000,31.522,0.56897364,-0.00977254,-0.02881684,-0.82179261
'00:20:12.544,0.059570,0.029785,1.004883,0.365854,1.341463,-0.548781,-5.081250,17.987501,19.700001,31.537,0.56896763,-0.00976154,-0.02881104,-0.82179710
'00:20:12.554,0.060547,0.029785,1.004395,0.304878,1.341463,-0.548781,-5.081250,17.987501,19.700001,31.552,0.56896159,-0.00975916,-0.02880491,-0.82180153
'00:20:12.564,0.058105,0.029297,1.003418,0.304878,1.280488,-0.548781,-4.831250,17.637501,19.443750,31.492,0.56896544,-0.00975933,-0.02880144,-0.82179898
'00:20:12.574,0.059570,0.029297,1.004883,0.304878,1.280488,-0.548781,-4.831250,17.637501,19.443750,31.552,0.56896925,-0.00976731,-0.02880312,-0.82179619
'00:20:12.584,0.060059,0.028809,1.003906,0.304878,1.341463,-0.548781,-4.762500,17.487501,19.275000,31.461,0.56897521,-0.00977734,-0.02880340,-0.82179193
'00:20:12.594,0.060059,0.029785,1.003906,0.304878,1.341463,-0.609756,-4.762500,17.487501,19.275000,31.492,0.56897656,-0.00978319,-0.02880925,-0.82179072
'00:20:12.604,0.059082,0.029785,1.004883,0.304878,1.280488,-0.609756,-4.768750,17.450001,19.306250,31.582,0.56897631,-0.00978685,-0.02881235,-0.82179074
'00:20:12.614,0.058105,0.029785,1.002930,0.365854,1.280488,-0.548781,-4.768750,17.450001,19.306250,31.507,0.56898049,-0.00978255,-0.02881668,-0.82178775
'00:20:12.624,0.059570,0.029785,1.004395,0.304878,1.402439,-0.548781,-4.781250,17.531250,19.400000,31.522,0.56898553,-0.00978105,-0.02881640,-0.82178428
'00:20:12.634,0.060059,0.029297,1.004395,0.304878,1.280488,-0.609756,-4.781250,17.531250,19.400000,31.492,0.56898597,-0.00979279,-0.02882132,-0.82178367
'00:20:12.644,0.060059,0.028809,1.004883,0.426829,1.341463,-0.548781,-5.068750,17.893751,19.643751,31.461,0.56897900,-0.00978415,-0.02881500,-0.82178882
'00:20:12.655,0.059570,0.029297,1.003906,0.304878,1.341463,-0.548781,-5.062500,17.862501,19.606251,31.492,0.56897098,-0.00977652,-0.02879974,-0.82179500
'00:20:12.665,0.059570,0.030273,1.004395,0.365854,1.341463,-0.548781,-5.062500,17.862501,19.606251,31.492,0.56896362,-0.00976285,-0.02879577,-0.82180040
'00:20:12.674,0.060059,0.028809,1.002930,0.365854,1.341463,-0.548781,-4.800000,17.537500,19.362501,31.522,0.56896743,-0.00976818,-0.02879868,-0.82179759
'00:20:12.684,0.060547,0.029297,1.004883,0.365854,1.341463,-0.609756,-4.800000,17.537500,19.362501,31.537,0.56896717,-0.00977420,-0.02880579,-0.82179745
'00:20:12.694,0.060059,0.028809,1.003418,0.426829,1.341463,-0.548781,-4.881250,17.675001,19.443750,31.537,0.56896869,-0.00977390,-0.02880981,-0.82179626
'00:20:12.704,0.059082,0.029785,1.004395,0.365854,1.341463,-0.548781,-4.881250,17.675001,19.443750,31.522,0.56896999,-0.00976719,-0.02881076,-0.82179541
'00:20:12.714,0.059570,0.029785,1.005859,0.304878,1.341463,-0.609756,-4.781250,17.525000,19.337500,31.567,0.56897071,-0.00976961,-0.02881313,-0.82179480
'00:20:12.724,0.059570,0.029297,1.004395,0.365854,1.280488,-0.548781,-4.781250,17.525000,19.337500,31.537,0.56897578,-0.00977572,-0.02882060,-0.82179095
'00:20:12.734,0.060547,0.028809,1.004883,0.426829,1.402439,-0.609756,-5.256250,18.206251,19.800001,31.552,0.56895894,-0.00975939,-0.02880665,-0.82180330
'00:20:12.744,0.060059,0.029297,1.001953,0.304878,1.280488,-0.548781,-5.256250,18.206251,19.800001,31.552,0.56894605,-0.00975445,-0.02879223,-0.82181278
'00:20:12.754,0.060547,0.030273,1.003906,0.304878,1.402439,-0.548781,-5.050000,17.875000,19.625000,31.522,0.56893994,-0.00974622,-0.02878621,-0.82181732
'00:20:12.764,0.060059,0.028809,1.003906,0.304878,1.280488,-0.609756,-5.050000,17.875000,19.625000,31.522,0.56892952,-0.00974973,-0.02877640,-0.82182484
'00:20:12.774,0.059570,0.029785,1.003906,0.304878,1.341463,-0.609756,-4.818750,17.593750,19.356251,31.522,0.56892938,-0.00975169,-0.02877894,-0.82182482
'00:20:12.784,0.059570,0.028809,1.003906,0.365854,1.341463,-0.609756,-4.818750,17.593750,19.356251,31.476,0.56892949,-0.00975443,-0.02878028,-0.82182467
'00:20:12.794,0.059570,0.029297,1.004883,0.304878,1.280488,-0.548781,-4.800000,17.475000,19.318750,31.507,0.56893230,-0.00976196,-0.02878125,-0.82182260
'00:20:12.804,0.059082,0.030273,1.004883,0.304878,1.341463,-0.548781,-4.800000,17.475000,19.318750,31.552,0.56893506,-0.00975843,-0.02878282,-0.82182068
'00:20:12.814,0.059082,0.030273,1.004883,0.304878,1.341463,-0.548781,-4.856250,17.650000,19.456251,31.552,0.56893747,-0.00975431,-0.02878385,-0.82181902
'00:20:12.824,0.059570,0.028809,1.003418,0.365854,1.341463,-0.609756,-4.856250,17.650000,19.456251,31.552,0.56893585,-0.00975584,-0.02878345,-0.82182014
'00:20:12.834,0.058594,0.029785,1.003418,0.365854,1.280488,-0.548781,-4.962500,17.787500,19.606251,31.507,0.56893361,-0.00974852,-0.02878256,-0.82182181
'00:20:12.844,0.059570,0.028809,1.003418,0.426829,1.341463,-0.548781,-4.962500,17.787500,19.606251,31.552,0.56893177,-0.00974314,-0.02878131,-0.82182319
'00:20:12.855,0.059570,0.029297,1.003906,0.304878,1.341463,-0.548781,-5.018750,17.800001,19.531250,31.461,0.56892602,-0.00973806,-0.02876907,-0.82182766
'00:20:12.864,0.059570,0.029297,1.003906,0.304878,1.341463,-0.548781,-5.018750,17.800001,19.531250,31.461,0.56892136,-0.00973400,-0.02875926,-0.82183127
'00:20:12.874,0.059570,0.028809,1.004395,0.365854,1.341463,-0.548781,-4.812500,17.637501,19.425001,31.552,0.56892711,-0.00973830,-0.02876210,-0.82182714
'00:20:12.885,0.060059,0.029785,1.004883,0.365854,1.341463,-0.548781,-4.800000,17.562500,19.381250,31.552,0.56893238,-0.00974115,-0.02877231,-0.82182310
'00:20:12.894,0.060059,0.029297,1.004395,0.365854,1.280488,-0.548781,-4.800000,17.562500,19.381250,31.537,0.56893660,-0.00974917,-0.02878089,-0.82181979
'00:20:12.904,0.060059,0.029785,1.005859,0.304878,1.341463,-0.609756,-4.775000,17.550001,19.381250,31.522,0.56893834,-0.00975558,-0.02878678,-0.82181830
'00:20:12.914,0.061035,0.029785,1.004395,0.304878,1.341463,-0.548781,-4.775000,17.550001,19.381250,31.537,0.56894436,-0.00976774,-0.02879687,-0.82181363
'00:20:12.924,0.059570,0.029785,1.003906,0.304878,1.341463,-0.548781,-4.812500,17.587500,19.318750,31.552,0.56894892,-0.00976969,-0.02879936,-0.82181037
'00:20:12.934,0.058594,0.029297,1.004395,0.426829,1.341463,-0.548781,-4.812500,17.587500,19.318750,31.522,0.56895370,-0.00976197,-0.02880382,-0.82180699
'00:20:12.944,0.059570,0.029785,1.003906,0.365854,1.341463,-0.548781,-4.987500,17.887501,19.593750,31.522,0.56895218,-0.00975525,-0.02880361,-0.82180813
'00:20:12.954,0.061035,0.028809,1.004883,0.365854,1.402439,-0.548781,-4.987500,17.887501,19.593750,31.522,0.56895099,-0.00975584,-0.02880015,-0.82180907
'00:20:12.965,0.058594,0.029297,1.003906,0.365854,1.341463,-0.609756,-5.012500,17.806250,19.587500,31.522,0.56894076,-0.00974172,-0.02878872,-0.82181672
'00:20:12.974,0.060547,0.030273,1.003906,0.304878,1.280488,-0.548781,-5.012500,17.806250,19.587500,31.507,0.56893598,-0.00974341,-0.02878998,-0.82181996
'00:20:12.984,0.059570,0.029785,1.004883,0.304878,1.341463,-0.548781,-4.812500,17.537500,19.306250,31.582,0.56893950,-0.00974484,-0.02879111,-0.82181747
'00:20:12.994,0.060059,0.029297,1.004395,0.365854,1.341463,-0.548781,-4.812500,17.537500,19.306250,31.492,0.56894313,-0.00974793,-0.02879588,-0.82181476
'00:20:13.004,0.060547,0.028809,1.002930,0.365854,1.341463,-0.609756,-4.781250,17.575001,19.362501,31.522,0.56894526,-0.00975836,-0.02880352,-0.82181289
'00:20:13.014,0.059082,0.030273,1.005371,0.365854,1.341463,-0.548781,-4.781250,17.575001,19.362501,31.507,0.56895150,-0.00975435,-0.02881265,-0.82180829
'00:20:13.024,0.060059,0.029785,1.003418,0.304878,1.280488,-0.548781,-4.775000,17.550001,19.318750,31.552,0.56895759,-0.00976544,-0.02882203,-0.82180362
'00:20:13.034,0.060059,0.030273,1.004395,0.304878,1.341463,-0.548781,-4.775000,17.550001,19.318750,31.476,0.56896367,-0.00976981,-0.02883058,-0.82179906
'00:20:13.044,0.060059,0.029297,1.003418,0.365854,1.341463,-0.548781,-5.212500,18.093750,19.800001,31.552,0.56895117,-0.00975789,-0.02881696,-0.82180833
'00:20:13.054,0.058594,0.029785,1.004883,0.304878,1.341463,-0.548781,-5.212500,18.093750,19.800001,31.537,0.56893864,-0.00973912,-0.02879583,-0.82181797
'00:20:13.064,0.060059,0.029785,1.004395,0.365854,1.280488,-0.548781,-5.125000,18.043751,19.662500,31.507,0.56893122,-0.00973403,-0.02879382,-0.82182324
'00:20:13.074,0.060059,0.029297,1.004883,0.304878,1.341463,-0.548781,-5.125000,18.043751,19.662500,31.507,0.56892404,-0.00972946,-0.02878161,-0.82182869
'00:20:13.084,0.059570,0.029297,1.003906,0.304878,1.341463,-0.548781,-4.768750,17.500000,19.331251,31.522,0.56892979,-0.00973556,-0.02878302,-0.82182458
'00:20:13.094,0.059082,0.029785,1.003418,0.304878,1.341463,-0.548781,-4.768750,17.500000,19.331251,31.552,0.56893542,-0.00973699,-0.02878546,-0.82182058
'00:20:13.104,0.059082,0.029785,1.003906,0.304878,1.341463,-0.548781,-4.768750,17.475000,19.287500,31.537,0.56894062,-0.00973781,-0.02878714,-0.82181691
'00:20:13.114,0.060059,0.029297,1.004395,0.304878,1.341463,-0.487805,-4.768750,17.475000,19.287500,31.582,0.56895024,-0.00974600,-0.02878955,-0.82181008
'00:20:13.124,0.059570,0.029785,1.004395,0.365854,1.280488,-0.609756,-4.768750,17.525000,19.362501,31.552,0.56895176,-0.00975134,-0.02880127,-0.82180855
'00:20:13.134,0.058594,0.030273,1.004395,0.365854,1.341463,-0.548781,-4.768750,17.525000,19.362501,31.522,0.56895769,-0.00974499,-0.02880870,-0.82180426
'00:20:13.144,0.059082,0.029785,1.003418,0.365854,1.341463,-0.609756,-4.993750,17.881250,19.525000,31.552,0.56895154,-0.00973515,-0.02880636,-0.82180872
'00:20:13.154,0.059570,0.029297,1.004395,0.365854,1.280488,-0.548781,-5.056250,17.962500,19.668751,31.567,0.56894684,-0.00973218,-0.02880271,-0.82181214
'00:20:13.164,0.061035,0.029785,1.003418,0.365854,1.341463,-0.548781,-5.056250,17.962500,19.668751,31.476,0.56894217,-0.00973119,-0.02880480,-0.82181530
'00:20:13.174,0.060547,0.029297,1.004395,0.365854,1.341463,-0.609756,-4.887500,17.618750,19.387501,31.552,0.56893780,-0.00973372,-0.02880723,-0.82181822
'00:20:13.184,0.059082,0.029785,1.003906,0.365854,1.341463,-0.609756,-4.887500,17.618750,19.387501,31.537,0.56893338,-0.00972637,-0.02880694,-0.82182137
'00:20:13.194,0.060059,0.028809,1.004883,0.304878,1.341463,-0.548781,-4.806250,17.493750,19.356251,31.537,0.56893627,-0.00973451,-0.02880348,-0.82181940
'00:20:13.204,0.058594,0.028809,1.002930,0.304878,1.280488,-0.548781,-4.806250,17.493750,19.356251,31.537,0.56893903,-0.00973918,-0.02879814,-0.82181762
'00:20:13.214,0.060059,0.029785,1.003906,0.365854,1.280488,-0.548781,-4.756250,17.556250,19.343750,31.476,0.56894662,-0.00974876,-0.02881359,-0.82181171
'00:20:13.225,0.059570,0.030273,1.003906,0.365854,1.341463,-0.548781,-4.756250,17.556250,19.343750,31.522,0.56895497,-0.00974917,-0.02882790,-0.82180542
'00:20:13.234,0.060059,0.029297,1.004883,0.365854,1.341463,-0.548781,-4.750000,17.518751,19.325001,31.537,0.56896159,-0.00975503,-0.02883540,-0.82180050
'00:20:13.245,0.060059,0.029785,1.004883,0.304878,1.341463,-0.548781,-4.750000,17.518751,19.325001,31.567,0.56896947,-0.00976326,-0.02884264,-0.82179470
'00:20:13.254,0.060059,0.028320,1.004395,0.365854,1.341463,-0.548781,-5.062500,17.825001,19.637501,31.567,0.56896224,-0.00975987,-0.02882943,-0.82180020
'00:20:13.266,0.060547,0.029785,1.004395,0.365854,1.341463,-0.548781,-5.062500,17.825001,19.637501,31.507,0.56895230,-0.00975186,-0.02882417,-0.82180737
'00:20:13.274,0.059082,0.030273,1.003906,0.304878,1.341463,-0.548781,-4.881250,17.693750,19.375000,31.537,0.56895385,-0.00974782,-0.02882417,-0.82180634
'00:20:13.285,0.059082,0.029297,1.003906,0.304878,1.341463,-0.548781,-4.881250,17.693750,19.375000,31.522,0.56895621,-0.00974653,-0.02881813,-0.82180494
'00:20:13.294,0.059082,0.029297,1.003906,0.365854,1.341463,-0.548781,-4.812500,17.606251,19.431250,31.552,0.56896040,-0.00974560,-0.02881996,-0.82180198
'00:20:13.304,0.059082,0.029785,1.003418,0.365854,1.341463,-0.548781,-4.812500,17.606251,19.431250,31.567,0.56896494,-0.00974275,-0.02882492,-0.82179869
'00:20:13.314,0.059570,0.029785,1.003906,0.304878,1.341463,-0.609756,-4.800000,17.518751,19.343750,31.507,0.56896420,-0.00974471,-0.02882625,-0.82179914
'00:20:13.325,0.060059,0.028809,1.005371,0.365854,1.341463,-0.548781,-4.800000,17.518751,19.343750,31.507,0.56896845,-0.00975054,-0.02882778,-0.82179608
'00:20:13.334,0.059082,0.029297,1.003418,0.304878,1.280488,-0.548781,-4.800000,17.493750,19.356251,31.507,0.56897106,-0.00975537,-0.02882698,-0.82179424
'00:20:13.344,0.059082,0.029785,1.004883,0.365854,1.280488,-0.548781,-4.800000,17.493750,19.356251,31.522,0.56897391,-0.00975538,-0.02883265,-0.82179206
'00:20:13.354,0.059570,0.029785,1.004395,0.365854,1.280488,-0.548781,-4.975000,17.706251,19.462500,31.537,0.56896927,-0.00975083,-0.02883167,-0.82179537
'00:20:13.366,0.060059,0.028809,1.003418,0.365854,1.341463,-0.548781,-5.143750,18.075001,19.731251,31.507,0.56895962,-0.00974326,-0.02881780,-0.82180262
'00:20:13.374,0.059082,0.028809,1.003418,0.365854,1.280488,-0.609756,-5.143750,18.075001,19.731251,31.431,0.56894964,-0.00973749,-0.02880826,-0.82180994
'00:20:13.384,0.059082,0.028809,1.003906,0.304878,1.341463,-0.548781,-5.143750,18.075001,19.731251,31.522,0.56894170,-0.00972910,-0.02878889,-0.82181621
'00:20:13.394,0.060059,0.029785,1.003906,0.365854,1.341463,-0.548781,-4.781250,17.456251,19.268751,31.522,0.56894565,-0.00973132,-0.02879727,-0.82181316
'00:20:13.406,0.059082,0.029785,1.002930,0.365854,1.341463,-0.548781,-4.737500,17.537500,19.350000,31.492,0.56895600,-0.00973255,-0.02880933,-0.82180556
'00:20:13.414,0.059082,0.030273,1.003906,0.365854,1.341463,-0.609756,-4.737500,17.537500,19.350000,31.522,0.56895928,-0.00973148,-0.02881914,-0.82180296
'00:20:13.424,0.059082,0.030273,1.002930,0.365854,1.280488,-0.548781,-4.756250,17.537500,19.350000,31.476,0.56896624,-0.00973369,-0.02883311,-0.82179762
