# FW/GUI: v9.6.1-multi17-dual (PyQt5)
# StartTime: 2026-04-03 16:22:29
# Slot: 13
# DeviceID: 13
# Label: EMG13
# IP: 192.168.137.206
# TCP: 3333
# DeviceFW: EMG_FW_v9.6_MULTI17_DUALCH_RUNTIMECFG_CHEN
# EMG column notes: EMG_t_s=seconds since this Start; sample_idx=device sample index (ADS frame index); fs=sample rate (SPS); gain=gain; flags=0x01(TEST) 0x02(SHORT) 0x04(RLD); emg_valid=1 valid / 0 invalid (spike-guard decision); ch1_raw_uV=raw uV (after spike guard); ch1_filt_uV=filtered uV; ch1_env_uV=envelope (RMS) uV
EMG_t_s,sample_idx,fs,gain,flags,emg_valid,ch1_raw_uV,ch1_filt_uV,ch1_env_uV,ch2_raw_uV,ch2_filt_uV,ch2_env_uV
0.000000,804371,1000.00,12,0,1,1304.467,2.069,3.849,1041.680,1.702,1.069
0.001000,804372,1000.00,12,0,1,1302.281,-1.551,3.836,1041.921,0.996,1.078
0.002000,804373,1000.00,12,0,1,1303.314,-1.816,3.841,1040.503,0.213,1.067
0.003000,804374,1000.00,12,0,1,1304.947,-1.201,3.837,1040.287,-0.747,1.064
0.004000,804375,1000.00,12,0,1,1304.274,-2.603,3.852,1041.008,0.270,1.063
0.005000,804376,1000.00,12,0,1,1303.890,-4.024,3.849,1041.200,0.337,1.064
0.006000,804377,1000.00,12,0,1,1307.950,-1.139,3.822,1039.999,-0.670,1.064
0.007000,804378,1000.00,12,0,1,1314.339,4.282,3.765,1040.744,-0.339,1.048
0.008000,804379,1000.00,12,0,1,1317.510,6.702,3.622,1039.423,-0.851,1.049
0.009000,804380,1000.00,12,0,1,1317.342,5.555,3.691,1040.840,-0.340,1.008
0.010000,804381,1000.00,12,0,1,1316.405,4.073,3.692,1039.543,-0.307,0.999
0.011000,804382,1000.00,12,0,1,1315.564,3.216,3.633,1039.951,-0.936,1.007
0.012000,804383,1000.00,12,0,1,1315.924,3.649,3.527,1039.206,-0.461,1.009
0.013000,804384,1000.00,12,0,1,1314.123,2.934,3.273,1040.119,-0.375,0.996
0.014000,804385,1000.00,12,0,1,1309.223,-0.875,2.949,1040.768,0.963,1.000
0.015000,804386,1000.00,12,0,1,1310.039,-0.190,2.778,1041.320,1.050,1.010
0.016000,804387,1000.00,12,0,1,1311.865,2.994,2.731,1042.233,1.796,1.040
0.017000,804388,1000.00,12,0,1,1308.406,0.195,2.729,1042.089,1.630,1.036
0.018000,804389,1000.00,12,0,1,1306.989,-1.832,2.729,1039.759,-0.678,1.022
0.019000,804390,1000.00,12,0,1,1309.487,0.302,2.715,1039.471,-1.227,1.031
0.020000,804391,1000.00,12,0,1,1308.142,-0.940,2.705,1040.383,-0.155,1.027
0.021000,804392,1000.00,12,0,1,1306.725,-3.780,2.725,1040.648,0.263,1.001
0.022000,804393,1000.00,12,0,1,1307.181,-3.987,2.775,1041.320,0.585,1.005
0.023000,804394,1000.00,12,0,1,1307.493,-4.511,2.834,1041.032,0.581,0.999
0.024000,804395,1000.00,12,0,1,1308.646,-4.368,2.892,1041.512,0.432,0.996
0.025000,804396,1000.00,12,0,1,1309.679,-3.860,2.941,1041.680,0.866,1.002
0.026000,804397,1000.00,12,0,1,1311.673,-2.853,2.952,1041.921,0.574,0.993
0.027000,804398,1000.00,12,0,1,1314.339,-0.607,2.923,1041.056,0.035,0.986
0.028000,804399,1000.00,12,0,1,1317.726,1.907,2.929,1042.089,0.285,0.966
0.029000,804400,1000.00,12,0,1,1321.281,4.885,3.002,1041.200,0.163,0.956
0.030000,804401,1000.00,12,0,1,1319.263,3.398,3.027,1039.398,-1.941,0.988
0.031000,804402,1000.00,12,0,1,1315.948,-0.095,3.021,1041.368,-0.281,0.988
0.032000,804403,1000.00,12,0,1,1316.909,1.276,3.025,1040.503,-0.096,0.978
0.033000,804404,1000.00,12,0,1,1318.158,3.588,3.060,1040.431,-1.029,0.979
0.034000,804405,1000.00,12,0,1,1313.402,0.623,3.058,1040.239,-0.312,0.979
0.035000,804406,1000.00,12,0,1,1309.967,-2.422,3.070,1040.672,-0.459,0.975
0.036000,804407,1000.00,12,0,1,1312.490,0.816,3.045,1040.648,0.127,0.975
0.037000,804408,1000.00,12,0,1,1313.643,3.016,3.058,1040.263,-0.494,0.973
0.038000,804409,1000.00,12,0,1,1312.321,1.504,3.066,1039.591,-0.815,0.974
0.039000,804410,1000.00,12,0,1,1311.264,0.110,3.064,1039.519,-0.919,0.942
0.040000,804411,1000.00,12,0,1,1313.907,1.252,3.069,1039.206,-0.879,0.942
0.041000,804412,1000.00,12,0,1,1314.964,1.814,3.003,1038.125,-1.602,0.964
0.042000,804413,1000.00,12,0,1,1312.514,-1.989,2.909,1039.567,-0.529,0.956
0.043000,804414,1000.00,12,0,1,1311.361,-4.510,2.954,1040.576,1.070,0.959
0.044000,804415,1000.00,12,0,1,1314.003,-3.255,2.971,1040.095,0.333,0.951
0.045000,804416,1000.00,12,0,1,1313.354,-3.817,2.967,1042.137,1.804,0.985
0.046000,804417,1000.00,12,0,1,1316.837,-2.607,2.983,1041.608,1.770,1.009
0.047000,804418,1000.00,12,0,1,1317.726,-0.763,2.971,1041.320,0.571,0.984
0.048000,804419,1000.00,12,0,1,1316.165,-3.212,2.979,1042.185,1.484,0.905
0.049000,804420,1000.00,12,0,1,1315.948,-2.865,2.959,1042.521,1.470,0.921
0.050000,804421,1000.00,12,0,1,1317.582,-0.854,2.947,1040.888,0.054,0.889
0.051000,804422,1000.00,12,0,1,1318.879,1.384,2.946,1039.639,-1.412,0.900
0.052000,804423,1000.00,12,0,1,1319.143,2.503,2.956,1039.158,-1.531,0.925
0.053000,804424,1000.00,12,0,1,1315.036,0.123,2.951,1040.840,-0.082,0.919
0.054000,804425,1000.00,12,0,1,1309.463,-3.873,2.979,1042.137,1.504,0.943
0.055000,804426,1000.00,12,0,1,1310.232,-2.319,2.942,1041.416,0.765,0.948
0.056000,804427,1000.00,12,0,1,1309.391,-0.333,2.938,1041.921,0.720,0.948
0.057000,804428,1000.00,12,0,1,1310.832,0.622,2.876,1039.927,-0.462,0.949
0.058000,804429,1000.00,12,0,1,1314.531,5.012,2.807,1038.270,-2.574,1.010
0.059000,804430,1000.00,12,0,1,1317.726,6.876,2.865,1039.855,-0.787,1.015
0.060000,804431,1000.00,12,0,1,1312.201,1.977,2.820,1040.912,0.517,1.016
0.061000,804432,1000.00,12,0,1,1311.264,-2.094,2.799,1039.447,-0.654,1.012
0.062000,804433,1000.00,12,0,1,1315.228,1.397,2.758,1040.359,-0.368,1.011
0.063000,804434,1000.00,12,0,1,1314.483,-0.237,2.727,1041.753,1.306,1.026
0.064000,804435,1000.00,12,0,1,1317.582,-0.006,2.724,1040.527,0.137,1.018
0.065000,804436,1000.00,12,0,1,1320.152,2.173,2.741,1040.984,-0.045,1.007
0.066000,804437,1000.00,12,0,1,1321.329,1.008,2.712,1041.680,0.925,0.983
0.067000,804438,1000.00,12,0,1,1322.650,1.558,2.721,1039.759,-0.848,0.963
0.068000,804439,1000.00,12,0,1,1323.539,1.213,2.714,1041.801,0.265,0.959
0.069000,804440,1000.00,12,0,1,1323.227,0.824,2.716,1042.281,1.599,0.970
0.070000,804441,1000.00,12,0,1,1323.155,0.443,2.713,1041.008,-0.226,0.970
0.071000,804442,1000.00,12,0,1,1321.906,0.090,2.660,1039.495,-1.278,0.986
0.072000,804443,1000.00,12,0,1,1317.318,-2.984,2.634,1039.350,-1.555,1.007
0.073000,804444,1000.00,12,0,1,1314.075,-4.974,2.650,1039.591,-0.806,1.010
0.074000,804445,1000.00,12,0,1,1312.706,-4.081,2.641,1041.248,0.584,1.012
0.075000,804446,1000.00,12,0,1,1310.688,-4.002,2.645,1041.488,1.249,1.019
0.076000,804447,1000.00,12,0,1,1310.616,-2.675,2.642,1041.680,0.957,1.025
0.077000,804448,1000.00,12,0,1,1309.391,-1.991,2.655,1040.383,0.072,1.025
0.078000,804449,1000.00,12,0,1,1310.063,-1.229,2.647,1039.447,-1.140,1.037
0.079000,804450,1000.00,12,0,1,1314.315,2.854,2.587,1040.960,0.197,1.037
0.080000,804451,1000.00,12,0,1,1313.643,2.477,2.566,1040.840,0.570,1.003
0.081000,804452,1000.00,12,0,1,1312.754,-0.262,2.566,1041.608,0.520,1.005
0.082000,804453,1000.00,12,0,1,1312.994,-0.626,2.562,1039.879,-0.277,1.006
0.083000,804454,1000.00,12,0,1,1317.894,1.644,2.522,1039.326,-1.712,1.024
0.084000,804455,1000.00,12,0,1,1320.056,3.340,2.564,1041.104,0.394,1.025
0.085000,804456,1000.00,12,0,1,1319.528,0.564,2.542,1038.678,-1.284,1.039
0.086000,804457,1000.00,12,0,1,1318.447,-1.293,2.546,1039.158,-1.717,1.067
0.087000,804458,1000.00,12,0,1,1316.357,-3.764,2.566,1038.750,-0.771,1.070
0.088000,804459,1000.00,12,0,1,1317.630,-3.053,2.593,1040.624,-0.050,1.064
0.089000,804460,1000.00,12,0,1,1322.722,2.078,2.610,1038.966,-0.009,1.056
0.090000,804461,1000.00,12,0,1,1322.050,2.621,2.630,1037.717,-2.201,1.094
0.091000,804462,1000.00,12,0,1,1321.041,1.263,2.624,1038.654,-0.493,1.072
0.092000,804463,1000.00,12,0,1,1319.407,1.200,2.614,1038.318,-0.497,1.072
0.093000,804464,1000.00,12,0,1,1317.222,-0.107,2.535,1038.846,-0.110,1.061
0.094000,804465,1000.00,12,0,1,1313.018,-2.127,2.511,1040.768,1.891,1.094
0.095000,804466,1000.00,12,0,1,1312.874,-1.714,2.464,1040.311,1.581,1.087
0.096000,804467,1000.00,12,0,1,1311.601,-0.541,2.438,1039.687,0.663,1.062
0.097000,804468,1000.00,12,0,1,1313.787,1.105,2.440,1039.086,0.149,1.059
0.098000,804469,1000.00,12,0,1,1318.303,5.895,2.539,1040.335,0.965,1.047
0.099000,804470,1000.00,12,0,1,1315.804,3.627,2.558,1039.807,0.909,1.034
0.100000,804471,1000.00,12,0,1,1312.682,-1.163,2.560,1040.816,1.018,1.044
0.101000,804472,1000.00,12,0,1,1314.435,-0.423,2.554,1040.551,1.279,1.040
0.102000,804473,1000.00,12,0,1,1315.468,-0.267,2.529,1040.936,0.792,1.024
0.103000,804474,1000.00,12,0,1,1313.378,-3.050,2.566,1042.425,2.134,1.067
0.104000,804475,1000.00,12,0,1,1313.907,-4.164,2.575,1041.536,1.255,1.061
0.105000,804476,1000.00,12,0,1,1314.507,-3.509,2.602,1040.551,-0.286,1.056
0.106000,804477,1000.00,12,0,1,1318.254,-1.482,2.610,1040.672,-0.112,1.051
0.107000,804478,1000.00,12,0,1,1322.458,2.566,2.633,1040.455,-0.390,1.051
0.108000,804479,1000.00,12,0,1,1318.807,-0.585,2.537,1040.792,-0.129,0.986
0.109000,804480,1000.00,12,0,1,1313.282,-5.978,2.492,1039.326,-1.117,0.992
0.110000,804481,1000.00,12,0,1,1311.793,-6.144,2.624,1040.576,-0.563,0.993
0.111000,804482,1000.00,12,0,1,1312.898,-3.348,2.650,1039.687,-0.330,0.989
0.112000,804483,1000.00,12,0,1,1316.285,1.352,2.649,1039.711,-1.096,1.000
0.113000,804484,1000.00,12,0,1,1320.344,6.304,2.795,1037.957,-1.582,1.008
0.114000,804485,1000.00,12,0,1,1319.672,6.835,2.957,1038.894,-1.525,1.031
0.115000,804486,1000.00,12,0,1,1320.608,6.817,3.095,1040.359,0.769,1.036
0.116000,804487,1000.00,12,0,1,1318.759,6.128,3.211,1039.687,0.046,1.028
0.117000,804488,1000.00,12,0,1,1312.490,-0.083,3.204,1039.591,-0.255,1.022
0.118000,804489,1000.00,12,0,1,1309.703,-2.970,3.227,1037.357,-1.609,1.046
0.119000,804490,1000.00,12,0,1,1311.985,-0.765,3.226,1037.237,-2.360,1.074
0.120000,804491,1000.00,12,0,1,1312.706,0.168,3.226,1037.885,-0.723,1.079
0.121000,804492,1000.00,12,0,1,1313.955,0.088,3.226,1038.750,-0.253,1.064
0.122000,804493,1000.00,12,0,1,1317.966,2.533,3.218,1041.416,2.286,1.090
0.123000,804494,1000.00,12,0,1,1322.074,4.796,3.213,1040.720,1.906,1.117
0.124000,804495,1000.00,12,0,1,1322.194,3.267,3.194,1041.512,1.512,1.135
0.125000,804496,1000.00,12,0,1,1320.945,0.048,3.143,1040.600,1.312,1.136
0.126000,804497,1000.00,12,0,1,1321.689,-0.771,3.123,1041.993,1.246,1.142
0.127000,804498,1000.00,12,0,1,1322.290,-0.753,3.112,1040.648,1.065,1.151
0.128000,804499,1000.00,12,0,1,1320.608,-2.557,3.128,1038.558,-1.803,1.168
0.129000,804500,1000.00,12,0,1,1322.482,-1.379,3.108,1038.366,-1.500,1.187
0.130000,804501,1000.00,12,0,1,1322.650,0.117,3.088,1040.672,0.467,1.186
0.131000,804502,1000.00,12,0,1,1320.969,-1.207,3.092,1041.464,1.707,1.208
0.132000,804503,1000.00,12,0,1,1319.600,-1.292,3.097,1041.728,1.468,1.225
0.133000,804504,1000.00,12,0,1,1317.366,-1.970,3.100,1040.047,0.136,1.201
0.134000,804505,1000.00,12,0,1,1314.363,-3.249,3.098,1038.534,-1.555,1.220
0.135000,804506,1000.00,12,0,1,1313.594,-2.659,3.120,1039.855,-0.444,1.208
0.136000,804507,1000.00,12,0,1,1310.015,-3.716,3.159,1039.374,-0.129,1.183
0.137000,804508,1000.00,12,0,1,1310.352,-3.267,3.148,1039.663,-0.562,1.181
0.138000,804509,1000.00,12,0,1,1308.838,-2.360,3.136,1042.137,1.904,1.211
0.139000,804510,1000.00,12,0,1,1309.823,-2.242,3.138,1041.224,1.183,1.223
0.140000,804511,1000.00,12,0,1,1316.429,3.826,3.163,1040.239,-0.421,1.184
0.141000,804512,1000.00,12,0,1,1317.798,4.974,3.235,1038.558,-1.567,1.203
0.142000,804513,1000.00,12,0,1,1314.363,-0.084,3.231,1038.846,-1.784,1.227
0.143000,804514,1000.00,12,0,1,1312.634,-2.950,3.257,1040.311,0.066,1.227
0.144000,804515,1000.00,12,0,1,1313.835,-2.909,3.270,1041.560,1.026,1.206
0.145000,804516,1000.00,12,0,1,1316.501,-0.921,3.263,1040.383,0.217,1.185
0.146000,804517,1000.00,12,0,1,1322.002,2.821,3.287,1038.750,-1.594,1.203
0.147000,804518,1000.00,12,0,1,1324.716,5.161,3.363,1038.630,-1.552,1.223
0.148000,804519,1000.00,12,0,1,1327.935,6.054,3.369,1038.053,-1.534,1.234
0.149000,804520,1000.00,12,0,1,1323.131,2.615,3.350,1038.822,-0.932,1.235
0.150000,804521,1000.00,12,0,1,1315.780,-5.257,3.427,1040.888,1.345,1.241
0.151000,804522,1000.00,12,0,1,1313.835,-5.718,3.521,1040.840,1.454,1.245
0.152000,804523,1000.00,12,0,1,1313.570,-3.828,3.562,1039.471,0.045,1.240
0.153000,804524,1000.00,12,0,1,1312.417,-2.875,3.559,1038.005,-1.230,1.215
0.154000,804525,1000.00,12,0,1,1313.186,-0.566,3.511,1038.678,-0.712,1.206
0.155000,804526,1000.00,12,0,1,1311.529,-0.016,3.476,1041.080,1.648,1.228
0.156000,804527,1000.00,12,0,1,1309.463,-1.074,3.473,1041.008,1.818,1.254
0.157000,804528,1000.00,12,0,1,1310.640,0.674,3.455,1040.672,0.859,1.259
0.158000,804529,1000.00,12,0,1,1311.985,2.634,3.474,1038.918,-0.417,1.260
0.159000,804530,1000.00,12,0,1,1310.400,1.068,3.373,1039.350,-0.756,1.255
0.160000,804531,1000.00,12,0,1,1310.664,0.309,3.260,1039.158,-0.169,1.253
0.161000,804532,1000.00,12,0,1,1315.348,3.419,3.261,1039.302,-0.567,1.254
0.162000,804533,1000.00,12,0,1,1316.669,4.040,3.305,1040.311,0.602,1.248
0.163000,804534,1000.00,12,0,1,1315.924,1.083,3.186,1039.158,-0.264,1.228
0.164000,804535,1000.00,12,0,1,1315.684,-0.395,3.037,1040.479,0.213,1.209
0.165000,804536,1000.00,12,0,1,1316.933,-0.733,2.881,1039.350,0.189,1.205
0.166000,804537,1000.00,12,0,1,1318.783,0.273,2.748,1039.639,-0.647,1.208
0.167000,804538,1000.00,12,0,1,1323.347,3.144,2.784,1039.302,0.073,1.208
0.168000,804539,1000.00,12,0,1,1325.269,4.879,2.837,1040.263,0.111,1.186
0.169000,804540,1000.00,12,0,1,1324.188,2.936,2.865,1040.095,0.764,1.143
0.170000,804541,1000.00,12,0,1,1319.359,-0.983,2.869,1040.744,0.605,1.142
0.171000,804542,1000.00,12,0,1,1315.924,-3.993,2.924,1039.398,0.077,1.141
0.172000,804543,1000.00,12,0,1,1312.105,-5.242,2.995,1039.230,-0.755,1.100
0.173000,804544,1000.00,12,0,1,1311.985,-4.233,2.978,1040.047,0.411,1.068
0.174000,804545,1000.00,12,0,1,1312.514,-1.114,2.946,1040.071,0.448,1.048
0.175000,804546,1000.00,12,0,1,1311.409,-0.720,2.948,1038.870,-0.625,1.035
0.176000,804547,1000.00,12,0,1,1313.042,1.393,2.952,1039.783,-0.057,1.020
0.177000,804548,1000.00,12,0,1,1310.400,0.753,2.952,1039.447,0.097,1.009
0.178000,804549,1000.00,12,0,1,1308.598,-1.841,2.942,1038.702,-0.830,0.983
0.179000,804550,1000.00,12,0,1,1310.880,0.670,2.937,1037.525,-1.600,0.987
0.180000,804551,1000.00,12,0,1,1309.799,-0.313,2.937,1038.966,-0.570,0.988
0.181000,804552,1000.00,12,0,1,1312.225,0.094,2.932,1038.197,-0.402,0.959
0.182000,804553,1000.00,12,0,1,1312.441,0.495,2.927,1038.702,-0.633,0.941
0.183000,804554,1000.00,12,0,1,1314.795,0.053,2.914,1039.567,0.716,0.946
0.184000,804555,1000.00,12,0,1,1316.813,1.666,2.887,1041.512,1.918,0.959
0.185000,804556,1000.00,12,0,1,1316.885,-0.021,2.863,1041.464,2.154,1.005
0.186000,804557,1000.00,12,0,1,1315.516,-1.797,2.825,1039.374,-0.182,1.005
0.187000,804558,1000.00,12,0,1,1317.894,-0.813,2.790,1039.567,-0.468,1.004
0.188000,804559,1000.00,12,0,1,1318.927,0.890,2.773,1039.831,0.279,0.968
0.189000,804560,1000.00,12,0,1,1318.278,0.088,2.754,1040.720,0.591,0.957
0.190000,804561,1000.00,12,0,1,1319.167,1.235,2.706,1040.864,1.157,0.969
0.191000,804562,1000.00,12,0,1,1317.510,1.112,2.618,1040.335,0.230,0.944
0.192000,804563,1000.00,12,0,1,1315.156,-0.580,2.619,1039.711,-0.156,0.910
0.193000,804564,1000.00,12,0,1,1313.955,-0.094,2.586,1039.350,-0.613,0.914
0.194000,804565,1000.00,12,0,1,1315.156,1.746,2.565,1038.870,-0.785,0.909
0.195000,804566,1000.00,12,0,1,1312.297,1.231,2.567,1038.366,-1.152,0.923
0.196000,804567,1000.00,12,0,1,1305.620,-4.282,2.608,1038.702,-0.740,0.901
0.197000,804568,1000.00,12,0,1,1302.665,-6.085,2.647,1037.669,-1.165,0.889
0.198000,804569,1000.00,12,0,1,1304.875,-3.020,2.541,1038.894,-0.530,0.866
0.199000,804570,1000.00,12,0,1,1307.301,0.080,2.514,1040.047,1.165,0.871
0.200000,804571,1000.00,12,0,1,1307.854,0.419,2.402,1039.230,0.158,0.851
0.201000,804572,1000.00,12,0,1,1305.860,-1.826,2.277,1040.287,0.700,0.831
0.202000,804573,1000.00,12,0,1,1305.139,-3.521,2.267,1040.239,0.972,0.843
0.203000,804574,1000.00,12,0,1,1309.775,-0.372,2.231,1038.197,-1.159,0.841
0.204000,804575,1000.00,12,0,1,1315.228,3.999,2.300,1039.951,-0.085,0.835
0.205000,804576,1000.00,12,0,1,1318.711,5.514,2.429,1039.855,0.661,0.807
0.206000,804577,1000.00,12,0,1,1321.665,6.413,2.588,1040.023,-0.008,0.765
0.207000,804578,1000.00,12,0,1,1325.533,7.955,2.820,1040.311,0.707,0.762
0.208000,804579,1000.00,12,0,1,1324.668,6.398,2.938,1039.807,-0.017,0.760
0.209000,804580,1000.00,12,0,1,1316.837,-1.402,2.941,1039.831,-0.007,0.752
0.210000,804581,1000.00,12,0,1,1316.117,-3.170,2.975,1039.110,-0.397,0.754
0.211000,804582,1000.00,12,0,1,1314.820,-1.587,2.944,1039.927,-0.007,0.749
0.212000,804583,1000.00,12,0,1,1312.826,-2.951,2.918,1040.191,0.801,0.753
0.213000,804584,1000.00,12,0,1,1316.333,1.683,2.924,1042.425,2.015,0.804
0.214000,804585,1000.00,12,0,1,1315.444,3.085,2.955,1039.567,0.562,0.808
0.215000,804586,1000.00,12,0,1,1308.670,-2.334,2.972,1039.062,-1.513,0.835
0.216000,804587,1000.00,12,0,1,1304.298,-5.436,3.070,1039.687,0.198,0.831
0.217000,804588,1000.00,12,0,1,1304.971,-3.699,3.082,1039.711,-0.281,0.831
0.218000,804589,1000.00,12,0,1,1307.998,0.095,3.004,1039.687,-0.053,0.831
0.219000,804590,1000.00,12,0,1,1310.736,2.556,2.997,1039.158,-0.560,0.828
0.220000,804591,1000.00,12,0,1,1311.961,2.958,3.023,1041.656,1.089,0.838
0.221000,804592,1000.00,12,0,1,1310.304,0.327,2.970,1041.560,1.766,0.874
0.222000,804593,1000.00,12,0,1,1312.826,0.317,2.876,1041.584,0.498,0.871
0.223000,804594,1000.00,12,0,1,1312.562,-0.107,2.813,1040.431,0.089,0.869
0.224000,804595,1000.00,12,0,1,1313.066,-2.135,2.825,1040.407,-0.910,0.876
0.225000,804596,1000.00,12,0,1,1315.492,-0.457,2.824,1042.137,0.982,0.882
0.226000,804597,1000.00,12,0,1,1314.171,-2.166,2.833,1041.680,0.565,0.886
0.227000,804598,1000.00,12,0,1,1313.859,-3.394,2.872,1041.128,-0.369,0.887
0.228000,804599,1000.00,12,0,1,1313.426,-2.881,2.889,1039.927,-1.106,0.893
0.229000,804600,1000.00,12,0,1,1316.189,-0.651,2.889,1039.927,-1.444,0.888
0.230000,804601,1000.00,12,0,1,1318.327,2.976,2.919,1039.423,-1.144,0.899
0.231000,804602,1000.00,12,0,1,1319.768,4.248,2.980,1040.431,-0.618,0.902
0.232000,804603,1000.00,12,0,1,1316.885,3.229,3.014,1039.519,-0.468,0.900
0.233000,804604,1000.00,12,0,1,1316.789,2.605,3.037,1038.582,-1.751,0.928
0.234000,804605,1000.00,12,0,1,1313.907,2.269,3.044,1040.383,0.154,0.887
0.235000,804606,1000.00,12,0,1,1306.460,-3.847,3.093,1041.008,1.122,0.848
0.236000,804607,1000.00,12,0,1,1304.443,-5.003,3.162,1040.359,0.262,0.849
0.237000,804608,1000.00,12,0,1,1306.917,-1.035,3.164,1039.350,-0.544,0.850
0.238000,804609,1000.00,12,0,1,1307.613,0.395,3.162,1040.383,-0.046,0.849
0.239000,804610,1000.00,12,0,1,1304.274,-2.136,3.176,1038.846,-0.610,0.849
0.240000,804611,1000.00,12,0,1,1305.860,-2.159,3.186,1038.606,-1.658,0.865
0.241000,804612,1000.00,12,0,1,1308.478,0.715,3.184,1039.038,-0.490,0.868
0.242000,804613,1000.00,12,0,1,1308.550,-0.604,3.184,1038.390,-1.163,0.883
0.243000,804614,1000.00,12,0,1,1312.297,1.082,3.187,1037.477,-1.704,0.911
0.244000,804615,1000.00,12,0,1,1313.282,1.486,3.185,1038.870,-0.546,0.907
0.245000,804616,1000.00,12,0,1,1315.540,1.037,3.183,1040.551,1.366,0.913
0.246000,804617,1000.00,12,0,1,1316.453,1.665,3.134,1041.656,2.167,0.958
0.247000,804618,1000.00,12,0,1,1316.789,0.347,3.014,1040.023,0.811,0.950
0.248000,804619,1000.00,12,0,1,1316.237,0.024,2.983,1041.320,1.054,0.959
0.249000,804620,1000.00,12,0,1,1315.997,-0.491,2.984,1040.648,1.273,0.962
0.250000,804621,1000.00,12,0,1,1313.667,-1.354,2.990,1039.687,-0.377,0.963
0.251000,804622,1000.00,12,0,1,1310.520,-3.270,3.014,1041.704,1.445,0.979
0.252000,804623,1000.00,12,0,1,1311.721,-0.995,2.976,1040.600,1.028,0.981
0.253000,804624,1000.00,12,0,1,1310.424,0.532,2.977,1040.936,0.293,0.968
0.254000,804625,1000.00,12,0,1,1308.502,-0.507,2.923,1039.639,0.122,0.968
0.255000,804626,1000.00,12,0,1,1307.397,0.395,2.818,1040.407,-0.314,0.964
0.256000,804627,1000.00,12,0,1,1305.307,-0.477,2.669,1039.999,0.428,0.966
0.257000,804628,1000.00,12,0,1,1303.986,-0.836,2.423,1038.870,-1.283,0.978
0.258000,804629,1000.00,12,0,1,1307.253,2.027,2.266,1039.999,-0.098,0.978
0.259000,804630,1000.00,12,0,1,1307.781,3.184,2.302,1039.999,0.208,0.978
0.260000,804631,1000.00,12,0,1,1306.196,0.354,2.258,1039.230,-0.777,0.983
0.261000,804632,1000.00,12,0,1,1306.941,-0.107,2.247,1041.032,0.643,0.987
0.262000,804633,1000.00,12,0,1,1309.079,0.687,2.210,1038.750,-0.714,0.986
0.263000,804634,1000.00,12,0,1,1312.874,2.374,2.223,1038.990,-1.589,0.970
0.264000,804635,1000.00,12,0,1,1314.435,2.685,2.212,1039.543,-0.126,0.967
0.265000,804636,1000.00,12,0,1,1312.850,-0.522,2.189,1040.287,0.003,0.943
0.266000,804637,1000.00,12,0,1,1314.243,-0.819,2.053,1039.615,-0.076,0.943
0.267000,804638,1000.00,12,0,1,1316.957,1.258,1.993,1040.407,0.040,0.942
0.268000,804639,1000.00,12,0,1,1319.119,2.628,2.027,1039.038,-0.434,0.944
0.269000,804640,1000.00,12,0,1,1315.948,0.326,1.995,1039.927,-0.411,0.942
0.270000,804641,1000.00,12,0,1,1311.192,-4.020,2.032,1041.488,1.622,0.958
0.271000,804642,1000.00,12,0,1,1306.701,-6.251,2.216,1041.921,1.755,0.957
0.272000,804643,1000.00,12,0,1,1302.377,-7.980,2.486,1040.792,0.693,0.960
0.273000,804644,1000.00,12,0,1,1301.032,-6.711,2.661,1038.870,-1.068,0.971
0.274000,804645,1000.00,12,0,1,1298.894,-5.262,2.747,1038.678,-1.428,0.984
0.275000,804646,1000.00,12,0,1,1296.179,-5.496,2.854,1040.119,0.297,0.975
0.276000,804647,1000.00,12,0,1,1299.470,-0.916,2.840,1039.423,-0.039,0.972
0.277000,804648,1000.00,12,0,1,1307.781,7.685,3.003,1042.545,1.957,1.009
0.278000,804649,1000.00,12,0,1,1316.357,14.921,3.647,1041.608,2.144,1.042
0.279000,804650,1000.00,12,0,1,1317.606,14.596,4.190,1039.302,-1.156,1.035
0.280000,804651,1000.00,12,0,1,1312.706,7.089,4.288,1040.792,0.130,1.022
0.281000,804652,1000.00,12,0,1,1311.312,2.580,4.261,1039.735,-0.245,1.019
0.282000,804653,1000.00,12,0,1,1313.234,2.471,4.251,1038.750,-1.819,1.049
0.283000,804654,1000.00,12,0,1,1316.117,2.843,4.254,1040.936,0.329,1.020
0.284000,804655,1000.00,12,0,1,1315.708,1.094,4.245,1040.383,0.233,1.020
0.285000,804656,1000.00,12,0,1,1310.400,-5.089,4.271,1037.741,-2.327,1.060
0.286000,804657,1000.00,12,0,1,1315.444,-2.932,4.232,1038.053,-2.211,1.105
0.287000,804658,1000.00,12,0,1,1316.597,0.262,4.230,1039.110,-0.561,1.105
0.288000,804659,1000.00,12,0,1,1314.363,-3.282,4.255,1038.390,-0.976,1.114
0.289000,804660,1000.00,12,0,1,1313.210,-3.070,4.266,1039.086,-0.444,1.112
0.290000,804661,1000.00,12,0,1,1311.985,-3.341,4.281,1039.326,0.302,1.088
0.291000,804662,1000.00,12,0,1,1309.343,-3.873,4.315,1039.711,0.420,1.087
0.292000,804663,1000.00,12,0,1,1308.958,-2.876,4.333,1040.311,1.170,1.087
0.293000,804664,1000.00,12,0,1,1310.160,0.130,4.331,1040.912,1.514,1.082
0.294000,804665,1000.00,12,0,1,1310.736,2.150,4.336,1040.888,1.477,1.099
0.295000,804666,1000.00,12,0,1,1307.733,0.621,4.335,1040.792,1.096,1.093
0.296000,804667,1000.00,12,0,1,1307.685,0.511,4.329,1040.143,0.495,1.052
0.297000,804668,1000.00,12,0,1,1307.397,1.247,4.332,1040.888,0.757,1.051
0.298000,804669,1000.00,12,0,1,1308.934,1.772,4.339,1039.735,0.153,1.040
0.299000,804670,1000.00,12,0,1,1309.295,2.091,4.349,1039.975,-0.350,1.026
0.300000,804671,1000.00,12,0,1,1309.223,0.511,4.345,1039.278,-0.318,1.025
0.301000,804672,1000.00,12,0,1,1309.223,-0.528,4.321,1039.278,-0.862,1.012
0.302000,804673,1000.00,12,0,1,1307.926,-2.744,4.336,1040.527,0.519,1.004
0.303000,804674,1000.00,12,0,1,1308.742,-3.498,4.364,1039.807,0.044,1.004
0.304000,804675,1000.00,12,0,1,1310.304,-2.372,4.376,1039.447,-0.725,1.009
0.305000,804676,1000.00,12,0,1,1314.243,-0.193,4.376,1040.191,0.149,1.008
0.306000,804677,1000.00,12,0,1,1319.600,4.226,4.416,1038.678,-1.003,1.016
0.307000,804678,1000.00,12,0,1,1314.675,0.150,4.414,1041.632,0.803,1.006
0.308000,804679,1000.00,12,0,1,1310.135,-5.479,4.473,1043.698,3.445,1.118
0.309000,804680,1000.00,12,0,1,1311.769,-2.795,4.468,1043.434,2.306,1.164
0.310000,804681,1000.00,12,0,1,1308.766,-3.244,4.491,1041.056,0.152,1.159
0.311000,804682,1000.00,12,0,1,1308.358,-3.192,4.513,1040.143,-1.361,1.171
0.312000,804683,1000.00,12,0,1,1307.637,-0.842,4.514,1040.335,-0.812,1.173
0.313000,804684,1000.00,12,0,1,1305.499,-1.645,4.507,1040.840,-0.345,1.152
0.314000,804685,1000.00,12,0,1,1305.788,0.269,4.492,1039.855,-0.882,1.159
0.315000,804686,1000.00,12,0,1,1304.755,0.987,4.493,1040.744,-0.420,1.160
0.316000,804687,1000.00,12,0,1,1303.962,0.723,4.493,1041.344,0.608,1.163
0.317000,804688,1000.00,12,0,1,1303.145,0.837,4.491,1040.047,-0.575,1.166
0.318000,804689,1000.00,12,0,1,1305.211,2.031,4.485,1040.047,-0.859,1.171
0.319000,804690,1000.00,12,0,1,1306.388,3.313,4.509,1040.479,-0.079,1.169
0.320000,804691,1000.00,12,0,1,1306.316,1.745,4.480,1042.833,1.483,1.166
0.321000,804692,1000.00,12,0,1,1308.622,2.373,4.404,1039.807,-0.182,1.139
0.322000,804693,1000.00,12,0,1,1308.526,1.376,4.262,1039.519,-2.065,1.172
0.323000,804694,1000.00,12,0,1,1309.823,0.271,4.155,1040.167,-0.213,1.163
0.324000,804695,1000.00,12,0,1,1311.865,1.345,4.092,1039.879,-0.982,1.153
0.325000,804696,1000.00,12,0,1,1311.505,-0.166,4.018,1039.927,-0.628,1.156
0.326000,804697,1000.00,12,0,1,1311.553,-1.048,4.018,1039.951,-0.584,1.159
0.327000,804698,1000.00,12,0,1,1311.168,-1.371,3.873,1040.768,0.039,1.125
0.328000,804699,1000.00,12,0,1,1309.919,-2.291,3.264,1041.248,0.740,1.089
0.329000,804700,1000.00,12,0,1,1308.814,-2.438,2.552,1039.423,-0.904,1.084
0.330000,804701,1000.00,12,0,1,1307.829,-2.089,2.366,1040.792,-0.145,1.084
0.331000,804702,1000.00,12,0,1,1305.067,-2.728,2.369,1043.050,2.296,1.131
0.332000,804703,1000.00,12,0,1,1304.178,-2.273,2.365,1041.873,1.281,1.116
0.333000,804704,1000.00,12,0,1,1304.587,0.196,2.331,1042.041,0.616,1.119
0.334000,804705,1000.00,12,0,1,1301.992,-0.360,2.326,1042.065,1.071,1.128
0.335000,804706,1000.00,12,0,1,1300.575,-0.900,2.216,1041.825,0.331,1.080
0.336000,804707,1000.00,12,0,1,1304.347,3.157,2.222,1041.032,-0.095,1.034
0.337000,804708,1000.00,12,0,1,1303.194,3.422,2.274,1041.921,0.189,1.031
0.338000,804709,1000.00,12,0,1,1304.851,2.978,2.265,1040.648,-0.236,1.023
0.339000,804710,1000.00,12,0,1,1307.133,5.196,2.342,1041.512,-0.364,1.022
0.340000,804711,1000.00,12,0,1,1304.443,1.360,2.301,1040.576,-0.204,1.022
0.341000,804712,1000.00,12,0,1,1305.548,0.114,2.235,1039.711,-1.686,1.047
0.342000,804713,1000.00,12,0,1,1305.860,0.137,2.198,1039.759,-1.131,1.047
0.343000,804714,1000.00,12,0,1,1306.580,-1.323,2.206,1040.960,-0.195,1.025
0.344000,804715,1000.00,12,0,1,1308.142,-0.363,2.186,1040.960,0.155,1.004
0.345000,804716,1000.00,12,0,1,1311.865,1.401,2.193,1042.329,0.859,0.999
0.346000,804717,1000.00,12,0,1,1312.201,1.879,2.208,1042.569,1.321,1.014
0.347000,804718,1000.00,12,0,1,1311.913,0.231,2.201,1042.761,0.891,1.016
0.348000,804719,1000.00,12,0,1,1310.904,-0.155,2.187,1040.527,-0.823,1.022
0.349000,804720,1000.00,12,0,1,1304.827,-4.690,2.266,1039.687,-2.146,1.065
0.350000,804721,1000.00,12,0,1,1299.831,-8.346,2.554,1041.032,-0.569,1.067
0.351000,804722,1000.00,12,0,1,1297.356,-7.812,2.781,1041.873,0.468,1.062
0.352000,804723,1000.00,12,0,1,1296.828,-5.950,2.880,1041.320,-0.032,1.060
0.353000,804724,1000.00,12,0,1,1299.326,-1.215,2.842,1040.191,-0.915,1.068
0.354000,804725,1000.00,12,0,1,1303.410,4.095,2.881,1041.632,0.037,1.063
0.355000,804726,1000.00,12,0,1,1299.398,2.584,2.904,1040.071,-0.302,1.064
0.356000,804727,1000.00,12,0,1,1300.023,1.585,2.851,1040.888,-0.638,1.058
0.357000,804728,1000.00,12,0,1,1305.427,7.400,3.037,1040.648,0.419,1.053
0.358000,804729,1000.00,12,0,1,1303.650,5.475,3.037,1042.233,0.763,0.940
0.359000,804730,1000.00,12,0,1,1305.908,4.614,3.081,1041.536,1.197,0.898
0.360000,804731,1000.00,12,0,1,1307.469,5.796,3.155,1040.720,-0.510,0.901
0.361000,804732,1000.00,12,0,1,1306.460,2.175,3.137,1040.768,-0.087,0.880
0.362000,804733,1000.00,12,0,1,1310.280,3.490,3.174,1039.879,-0.846,0.880
0.363000,804734,1000.00,12,0,1,1311.481,3.530,3.204,1040.239,-0.782,0.886
0.364000,804735,1000.00,12,0,1,1312.321,1.731,3.213,1042.473,1.390,0.899
0.365000,804736,1000.00,12,0,1,1311.168,0.131,3.210,1041.368,0.614,0.901
0.366000,804737,1000.00,12,0,1,1310.736,-1.845,3.219,1040.239,-0.944,0.907
0.367000,804738,1000.00,12,0,1,1308.886,-2.837,3.242,1040.215,-0.834,0.911
0.368000,804739,1000.00,12,0,1,1307.878,-3.943,3.277,1042.353,0.873,0.911
0.369000,804740,1000.00,12,0,1,1306.484,-3.579,3.283,1041.440,0.649,0.916
0.370000,804741,1000.00,12,0,1,1304.539,-4.151,3.326,1042.497,0.573,0.895
0.371000,804742,1000.00,12,0,1,1304.202,-2.881,3.334,1040.551,-0.128,0.895
0.372000,804743,1000.00,12,0,1,1305.019,-0.386,3.328,1040.768,-1.106,0.860
0.373000,804744,1000.00,12,0,1,1303.986,0.228,3.328,1039.182,-1.162,0.875
0.374000,804745,1000.00,12,0,1,1302.833,0.094,3.323,1040.287,-1.122,0.879
0.375000,804746,1000.00,12,0,1,1303.458,1.250,3.328,1042.089,1.502,0.900
0.376000,804747,1000.00,12,0,1,1304.106,2.385,3.341,1041.608,0.921,0.905
0.377000,804748,1000.00,12,0,1,1301.920,0.437,3.336,1040.840,0.006,0.905
0.378000,804749,1000.00,12,0,1,1300.719,-1.391,3.326,1040.407,-0.205,0.900
0.379000,804750,1000.00,12,0,1,1301.032,-1.423,3.315,1039.591,-0.997,0.902
0.380000,804751,1000.00,12,0,1,1299.686,-2.941,3.327,1039.639,-0.752,0.908
0.381000,804752,1000.00,12,0,1,1301.344,-2.749,3.328,1041.104,0.435,0.850
0.382000,804753,1000.00,12,0,1,1305.596,0.665,3.314,1040.672,0.578,0.834
0.383000,804754,1000.00,12,0,1,1306.797,1.017,3.317,1039.999,-0.602,0.834
0.384000,804755,1000.00,12,0,1,1307.541,0.255,3.316,1042.401,1.434,0.845
0.385000,804756,1000.00,12,0,1,1307.950,0.106,3.314,1041.632,1.195,0.860
0.386000,804757,1000.00,12,0,1,1309.415,0.570,3.285,1041.921,0.395,0.862
0.387000,804758,1000.00,12,0,1,1308.502,0.258,3.249,1040.479,-0.169,0.862
0.388000,804759,1000.00,12,0,1,1307.181,-1.170,3.226,1040.912,-0.783,0.868
0.389000,804760,1000.00,12,0,1,1305.548,-1.459,3.148,1040.768,-0.020,0.867
0.390000,804761,1000.00,12,0,1,1305.475,-0.817,3.144,1040.263,-0.939,0.877
0.391000,804762,1000.00,12,0,1,1301.152,-2.318,3.161,1040.768,-0.220,0.844
0.392000,804763,1000.00,12,0,1,1298.750,-3.909,3.209,1042.449,1.213,0.846
0.393000,804764,1000.00,12,0,1,1296.828,-2.910,3.230,1040.720,0.160,0.846
0.394000,804765,1000.00,12,0,1,1293.441,-4.359,3.288,1039.831,-1.238,0.864
0.395000,804766,1000.00,12,0,1,1295.459,-1.606,3.290,1040.287,-0.385,0.857
0.396000,804767,1000.00,12,0,1,1300.071,4.053,3.329,1041.608,0.770,0.843
0.397000,804768,1000.00,12,0,1,1302.305,5.918,3.432,1039.086,-0.821,0.842
0.398000,804769,1000.00,12,0,1,1299.783,3.324,3.464,1040.239,-0.772,0.841
0.399000,804770,1000.00,12,0,1,1298.101,-0.025,3.400,1040.263,0.482,0.787
0.400000,804771,1000.00,12,0,1,1301.632,2.064,3.202,1040.960,0.236,0.784
0.401000,804772,1000.00,12,0,1,1306.580,5.273,3.096,1042.713,2.116,0.836
0.402000,804773,1000.00,12,0,1,1306.460,3.954,3.032,1041.152,0.752,0.843
0.403000,804774,1000.00,12,0,1,1303.818,-0.521,3.028,1039.014,-1.757,0.869
0.404000,804775,1000.00,12,0,1,1304.851,-1.093,2.976,1039.543,-1.175,0.885
0.405000,804776,1000.00,12,0,1,1307.229,0.695,2.955,1041.728,0.743,0.890
0.406000,804777,1000.00,12,0,1,1306.701,-0.017,2.947,1041.296,0.862,0.894
0.407000,804778,1000.00,12,0,1,1304.923,-1.772,2.766,1039.398,-1.352,0.912
0.408000,804779,1000.00,12,0,1,1305.235,-1.236,2.661,1040.912,-0.170,0.906
0.409000,804780,1000.00,12,0,1,1305.668,0.306,2.580,1042.281,1.453,0.914
0.410000,804781,1000.00,12,0,1,1304.226,0.035,2.446,1040.792,0.099,0.911
0.411000,804782,1000.00,12,0,1,1302.713,-0.312,2.427,1041.152,-0.122,0.911
0.412000,804783,1000.00,12,0,1,1303.722,1.518,2.386,1039.471,-0.810,0.911
0.413000,804784,1000.00,12,0,1,1300.215,0.342,2.334,1039.663,-1.363,0.924
0.414000,804785,1000.00,12,0,1,1298.774,-1.214,2.328,1039.855,-0.196,0.903
0.415000,804786,1000.00,12,0,1,1299.422,0.870,2.331,1041.801,0.937,0.909
0.416000,804787,1000.00,12,0,1,1300.791,1.990,2.333,1043.650,3.069,0.998
0.417000,804788,1000.00,12,0,1,1303.794,4.396,2.381,1042.593,1.802,1.024
0.418000,804789,1000.00,12,0,1,1302.089,2.669,2.345,1039.398,-1.284,1.032
0.419000,804790,1000.00,12,0,1,1301.992,0.275,2.290,1042.353,0.439,1.030
0.420000,804791,1000.00,12,0,1,1301.992,0.008,2.214,1041.945,1.409,1.046
0.421000,804792,1000.00,12,0,1,1303.866,-0.462,2.177,1040.167,-1.305,1.062
0.422000,804793,1000.00,12,0,1,1305.043,0.193,2.177,1039.206,-1.688,1.077
0.423000,804794,1000.00,12,0,1,1305.403,-1.171,2.183,1039.182,-1.786,1.094
0.424000,804795,1000.00,12,0,1,1307.109,-0.533,2.184,1040.431,-0.472,1.085
0.425000,804796,1000.00,12,0,1,1307.637,-0.495,2.178,1039.134,-0.980,1.073
0.426000,804797,1000.00,12,0,1,1305.067,-2.995,2.193,1039.398,-1.423,1.083
0.427000,804798,1000.00,12,0,1,1307.878,-1.175,2.198,1041.104,0.784,1.089
0.428000,804799,1000.00,12,0,1,1308.382,1.010,2.194,1040.600,0.276,1.089
0.429000,804800,1000.00,12,0,1,1308.550,0.755,2.187,1039.927,-0.431,1.082
0.430000,804801,1000.00,12,0,1,1309.343,2.616,2.179,1040.287,-0.150,1.077
0.431000,804802,1000.00,12,0,1,1308.622,2.559,2.175,1041.801,1.189,1.088
0.432000,804803,1000.00,12,0,1,1307.926,2.371,2.198,1040.551,0.474,1.087
0.433000,804804,1000.00,12,0,1,1303.266,-0.414,2.194,1038.822,-1.501,1.105
0.434000,804805,1000.00,12,0,1,1302.113,-1.949,2.211,1041.488,0.727,1.091
0.435000,804806,1000.00,12,0,1,1299.062,-2.363,2.236,1041.608,1.687,1.104
0.436000,804807,1000.00,12,0,1,1298.053,-3.948,2.304,1042.353,1.331,1.118
0.437000,804808,1000.00,12,0,1,1299.735,-1.177,2.309,1039.447,-0.262,1.118
0.438000,804809,1000.00,12,0,1,1298.558,-2.122,2.323,1040.047,-1.174,1.125
0.439000,804810,1000.00,12,0,1,1298.245,-3.085,2.354,1041.368,1.241,1.139
0.440000,804811,1000.00,12,0,1,1297.909,-3.305,2.398,1041.200,0.537,1.134
0.441000,804812,1000.00,12,0,1,1298.822,-3.479,2.425,1040.359,-0.059,1.133
0.442000,804813,1000.00,12,0,1,1301.536,-1.307,2.369,1039.663,-0.827,1.126
0.443000,804814,1000.00,12,0,1,1305.235,1.012,2.337,1040.239,-0.416,1.128
0.444000,804815,1000.00,12,0,1,1304.731,0.477,2.255,1040.503,0.181,1.114
0.445000,804816,1000.00,12,0,1,1299.110,-5.168,2.360,1040.431,-0.193,1.113
0.446000,804817,1000.00,12,0,1,1299.903,-5.176,2.404,1039.831,-0.443,1.110
0.447000,804818,1000.00,12,0,1,1303.674,-0.151,2.253,1040.167,-0.528,1.106
0.448000,804819,1000.00,12,0,1,1307.541,3.546,2.260,1040.720,0.328,1.102
0.449000,804820,1000.00,12,0,1,1307.517,4.716,2.356,1043.602,2.230,1.144
0.450000,804821,1000.00,12,0,1,1309.679,5.816,2.479,1041.849,1.509,1.163
0.451000,804822,1000.00,12,0,1,1307.469,5.523,2.489,1040.696,-0.934,1.132
0.452000,804823,1000.00,12,0,1,1304.875,2.346,2.448,1040.311,-0.543,1.129
0.453000,804824,1000.00,12,0,1,1304.515,3.008,2.484,1040.648,-0.651,1.105
0.454000,804825,1000.00,12,0,1,1300.984,0.748,2.481,1041.536,0.485,1.095
0.455000,804826,1000.00,12,0,1,1299.134,-1.123,2.485,1042.017,0.882,1.097
0.456000,804827,1000.00,12,0,1,1302.113,2.057,2.502,1039.807,-0.864,1.097
0.457000,804828,1000.00,12,0,1,1303.290,3.310,2.533,1039.326,-1.673,1.106
0.458000,804829,1000.00,12,0,1,1301.752,1.212,2.532,1041.849,0.783,1.111
0.459000,804830,1000.00,12,0,1,1300.431,-1.097,2.537,1042.065,1.508,1.113
0.460000,804831,1000.00,12,0,1,1302.089,-0.691,2.539,1039.639,-1.007,1.122
0.461000,804832,1000.00,12,0,1,1303.938,0.183,2.538,1039.110,-1.608,1.144
0.462000,804833,1000.00,12,0,1,1303.554,-1.189,2.535,1038.966,-1.318,1.154
0.463000,804834,1000.00,12,0,1,1305.139,-1.359,2.542,1039.687,-0.670,1.142
0.464000,804835,1000.00,12,0,1,1307.397,0.161,2.536,1040.744,0.513,1.143
0.465000,804836,1000.00,12,0,1,1308.430,0.156,2.533,1040.984,0.716,1.140
0.466000,804837,1000.00,12,0,1,1309.799,0.702,2.519,1041.753,1.062,1.065
0.467000,804838,1000.00,12,0,1,1312.321,2.449,2.466,1042.425,1.609,1.059
0.468000,804839,1000.00,12,0,1,1310.760,1.483,2.446,1040.383,-0.254,1.044
0.469000,804840,1000.00,12,0,1,1308.478,-0.994,2.450,1041.728,0.064,1.042
0.470000,804841,1000.00,12,0,1,1308.862,0.042,2.450,1042.233,1.279,1.039
0.471000,804842,1000.00,12,0,1,1308.118,0.587,2.450,1041.801,0.201,1.023
0.472000,804843,1000.00,12,0,1,1306.220,-0.365,2.451,1040.672,-0.505,0.997
0.473000,804844,1000.00,12,0,1,1302.305,-2.431,2.469,1039.447,-1.754,0.996
0.474000,804845,1000.00,12,0,1,1301.056,-3.080,2.506,1039.567,-1.435,1.014
0.475000,804846,1000.00,12,0,1,1298.341,-3.379,2.550,1040.191,-0.474,1.007
0.476000,804847,1000.00,12,0,1,1299.855,-2.334,2.536,1039.759,-0.592,0.990
0.477000,804848,1000.00,12,0,1,1297.501,-2.156,2.549,1040.551,0.059,0.984
0.478000,804849,1000.00,12,0,1,1300.791,-1.182,2.551,1041.440,1.110,0.995
0.479000,804850,1000.00,12,0,1,1307.229,5.423,2.661,1042.281,1.656,1.021
0.480000,804851,1000.00,12,0,1,1309.511,5.867,2.763,1041.440,0.961,1.030
0.481000,804852,1000.00,12,0,1,1308.718,3.239,2.777,1040.960,0.037,1.016
0.482000,804853,1000.00,12,0,1,1304.010,-2.283,2.776,1040.239,-0.426,1.015
0.483000,804854,1000.00,12,0,1,1301.560,-6.411,2.920,1040.888,-0.210,0.993
0.484000,804855,1000.00,12,0,1,1303.794,-4.337,2.970,1039.663,-0.745,0.994
0.485000,804856,1000.00,12,0,1,1309.631,0.280,2.952,1040.047,-1.040,0.976
0.486000,804857,1000.00,12,0,1,1314.291,4.743,2.975,1040.840,0.228,0.958
0.487000,804858,1000.00,12,0,1,1309.583,0.575,2.972,1040.792,-0.006,0.957
0.488000,804859,1000.00,12,0,1,1303.674,-5.434,3.055,1040.816,-0.031,0.943
0.489000,804860,1000.00,12,0,1,1303.674,-4.493,3.089,1043.170,1.719,0.958
0.490000,804861,1000.00,12,0,1,1304.947,-1.392,3.060,1044.251,2.829,1.035
0.491000,804862,1000.00,12,0,1,1303.794,-0.787,3.022,1044.299,2.199,1.081
0.492000,804863,1000.00,12,0,1,1301.824,-1.218,3.022,1041.392,-0.330,1.075
0.493000,804864,1000.00,12,0,1,1301.728,-0.128,3.018,1038.942,-3.030,1.156
0.494000,804865,1000.00,12,0,1,1298.798,-0.856,3.020,1039.735,-2.055,1.192
0.495000,804866,1000.00,12,0,1,1295.411,-3.336,2.968,1041.320,-0.068,1.192
0.496000,804867,1000.00,12,0,1,1294.786,-2.788,2.903,1040.792,-0.227,1.190
0.497000,804868,1000.00,12,0,1,1298.822,1.065,2.907,1040.311,-0.729,1.192
0.498000,804869,1000.00,12,0,1,1301.248,3.891,2.916,1039.927,-0.806,1.197
0.499000,804870,1000.00,12,0,1,1298.606,0.781,2.841,1040.335,-0.413,1.156
0.500000,804871,1000.00,12,0,1,1298.341,-1.053,2.723,1039.807,-0.498,1.139
0.501000,804872,1000.00,12,0,1,1301.224,0.922,2.612,1039.687,-0.756,1.136
0.502000,804873,1000.00,12,0,1,1302.305,1.045,2.595,1040.551,0.165,1.134
0.503000,804874,1000.00,12,0,1,1302.665,0.121,2.560,1042.089,1.442,1.148
0.504000,804875,1000.00,12,0,1,1308.142,3.352,2.601,1042.233,1.562,1.167
0.505000,804876,1000.00,12,0,1,1304.707,1.263,2.603,1040.383,-0.314,1.161
0.506000,804877,1000.00,12,0,1,1301.656,-3.925,2.645,1040.191,-0.974,1.163
0.507000,804878,1000.00,12,0,1,1302.497,-1.886,2.617,1040.239,-0.508,1.141
0.508000,804879,1000.00,12,0,1,1301.728,-1.859,2.625,1042.521,0.966,1.144
0.509000,804880,1000.00,12,0,1,1299.686,-2.490,2.644,1041.608,0.994,1.132
0.510000,804881,1000.00,12,0,1,1295.891,-4.086,2.704,1042.377,0.408,1.125
0.511000,804882,1000.00,12,0,1,1296.852,-2.340,2.724,1041.632,0.693,1.106
0.512000,804883,1000.00,12,0,1,1299.759,2.804,2.748,1039.687,-1.686,1.116
0.513000,804884,1000.00,12,0,1,1299.759,3.789,2.793,1039.158,-1.800,1.141
0.514000,804885,1000.00,12,0,1,1301.656,5.678,2.906,1040.167,-0.671,1.142
0.515000,804886,1000.00,12,0,1,1301.896,6.433,3.045,1042.329,1.399,1.155
0.516000,804887,1000.00,12,0,1,1300.599,4.453,3.108,1042.113,1.663,1.169
0.517000,804888,1000.00,12,0,1,1298.437,2.081,3.103,1039.591,-0.943,1.154
0.518000,804889,1000.00,12,0,1,1296.732,-0.389,3.096,1041.512,0.317,1.155
0.519000,804890,1000.00,12,0,1,1299.951,1.285,3.098,1041.608,1.257,1.168
0.520000,804891,1000.00,12,0,1,1300.719,1.904,3.110,1040.479,-0.392,1.156
0.521000,804892,1000.00,12,0,1,1299.206,-1.262,3.114,1040.551,-0.246,1.156
0.522000,804893,1000.00,12,0,1,1303.290,0.753,3.115,1039.230,-1.163,1.165
0.523000,804894,1000.00,12,0,1,1308.742,4.825,3.170,1040.768,-0.390,1.140
0.524000,804895,1000.00,12,0,1,1311.673,5.756,3.244,1040.527,0.351,1.123
0.525000,804896,1000.00,12,0,1,1309.871,2.911,3.235,1042.233,0.700,1.125
0.526000,804897,1000.00,12,0,1,1302.977,-4.171,3.272,1042.761,1.975,1.156
0.527000,804898,1000.00,12,0,1,1299.975,-7.477,3.425,1041.777,0.207,1.156
0.528000,804899,1000.00,12,0,1,1299.614,-6.026,3.525,1040.191,-1.017,1.155
0.529000,804900,1000.00,12,0,1,1299.374,-4.834,3.508,1039.879,-1.606,1.153
0.530000,804901,1000.00,12,0,1,1301.440,-1.474,3.415,1039.447,-1.465,1.164
0.531000,804902,1000.00,12,0,1,1301.200,0.337,3.385,1039.038,-1.682,1.188
0.532000,804903,1000.00,12,0,1,1302.497,1.825,3.379,1041.416,0.390,1.188
0.533000,804904,1000.00,12,0,1,1300.743,2.163,3.269,1040.720,0.763,1.192
0.534000,804905,1000.00,12,0,1,1298.173,-0.341,3.212,1040.912,-0.028,1.188
0.535000,804906,1000.00,12,0,1,1294.906,-1.979,3.224,1041.608,1.333,1.193
0.536000,804907,1000.00,12,0,1,1290.943,-5.092,3.234,1042.377,1.445,1.210
0.537000,804908,1000.00,12,0,1,1294.066,-2.390,3.251,1041.320,0.914,1.217
0.538000,804909,1000.00,12,0,1,1297.789,2.114,3.173,1040.431,-0.472,1.219
0.539000,804910,1000.00,12,0,1,1299.711,2.663,3.131,1039.278,-1.089,1.204
0.540000,804911,1000.00,12,0,1,1305.019,5.883,3.234,1040.720,-0.228,1.136
0.541000,804912,1000.00,12,0,1,1304.779,4.920,3.306,1040.527,0.374,1.094
0.542000,804913,1000.00,12,0,1,1305.187,2.150,3.316,1041.248,0.285,1.094
0.543000,804914,1000.00,12,0,1,1305.620,1.833,3.326,1041.392,0.841,1.014
0.544000,804915,1000.00,12,0,1,1308.598,2.195,3.338,1042.209,0.929,0.980
0.545000,804916,1000.00,12,0,1,1309.775,3.106,3.333,1041.560,0.594,0.984
0.546000,804917,1000.00,12,0,1,1311.072,2.515,3.329,1040.167,-1.057,0.994
0.547000,804918,1000.00,12,0,1,1309.583,1.435,3.332,1039.519,-1.635,1.016
0.548000,804919,1000.00,12,0,1,1304.274,-3.443,3.322,1040.551,-0.628,1.013
0.549000,804920,1000.00,12,0,1,1304.635,-3.266,3.352,1038.486,-1.783,1.042
0.550000,804921,1000.00,12,0,1,1304.635,-0.841,3.351,1039.447,-1.561,1.063
0.551000,804922,1000.00,12,0,1,1301.968,-2.557,3.368,1040.600,0.483,1.060
0.552000,804923,1000.00,12,0,1,1298.173,-4.056,3.413,1041.753,1.107,1.071
0.553000,804924,1000.00,12,0,1,1297.477,-3.880,3.457,1042.305,1.840,1.083
0.554000,804925,1000.00,12,0,1,1299.302,-0.433,3.425,1039.639,-0.444,1.062
0.555000,804926,1000.00,12,0,1,1298.726,0.100,3.420,1039.855,-1.007,1.071
0.556000,804927,1000.00,12,0,1,1296.252,-1.809,3.385,1040.864,0.768,1.068
0.557000,804928,1000.00,12,0,1,1294.354,-3.348,3.407,1044.731,3.247,1.160
0.558000,804929,1000.00,12,0,1,1292.360,-4.835,3.465,1042.233,2.320,1.198
0.559000,804930,1000.00,12,0,1,1292.240,-5.055,3.520,1041.680,-0.369,1.191
0.560000,804931,1000.00,12,0,1,1296.131,-1.852,3.483,1040.191,-0.290,1.190
0.561000,804932,1000.00,12,0,1,1298.149,0.149,3.467,1041.008,-0.908,1.193
0.562000,804933,1000.00,12,0,1,1300.335,0.590,3.445,1040.768,0.060,1.169
0.563000,804934,1000.00,12,0,1,1301.584,1.346,3.409,1041.632,-0.082,1.141
0.564000,804935,1000.00,12,0,1,1302.761,1.042,3.316,1040.143,-0.581,1.140
0.565000,804936,1000.00,12,0,1,1302.209,0.462,3.189,1043.722,1.251,1.136
0.566000,804937,1000.00,12,0,1,1305.331,2.008,3.139,1044.419,3.051,1.192
0.567000,804938,1000.00,12,0,1,1312.321,8.258,3.337,1041.921,-0.256,1.186
0.568000,804939,1000.00,12,0,1,1311.529,8.001,3.523,1041.512,-0.995,1.193
0.569000,804940,1000.00,12,0,1,1304.851,1.079,3.521,1041.849,-0.376,1.181
0.570000,804941,1000.00,12,0,1,1303.362,-0.416,3.512,1041.728,-0.722,1.184
0.571000,804942,1000.00,12,0,1,1300.695,-0.822,3.509,1043.242,0.685,1.187
0.572000,804943,1000.00,12,0,1,1299.638,-1.396,3.513,1044.371,1.583,1.197
0.573000,804944,1000.00,12,0,1,1297.405,-1.186,3.450,1043.050,0.514,1.198
0.574000,804945,1000.00,12,0,1,1288.757,-7.291,3.508,1041.464,-1.427,1.214
0.575000,804946,1000.00,12,0,1,1283.929,-10.818,3.805,1040.239,-2.106,1.246
0.576000,804947,1000.00,12,0,1,1283.833,-8.279,3.937,1041.248,-1.397,1.230
0.577000,804948,1000.00,12,0,1,1284.650,-5.983,3.885,1042.233,0.202,1.230
0.578000,804949,1000.00,12,0,1,1286.763,-3.004,3.814,1043.074,0.655,1.225
0.579000,804950,1000.00,12,0,1,1290.703,0.558,3.753,1041.993,0.080,1.204
0.580000,804951,1000.00,12,0,1,1293.441,2.815,3.769,1041.656,-0.781,1.191
0.581000,804952,1000.00,12,0,1,1301.152,7.325,3.908,1041.753,-0.333,1.168
0.582000,804953,1000.00,12,0,1,1306.100,10.968,4.197,1041.008,-0.998,1.175
0.583000,804954,1000.00,12,0,1,1301.584,4.570,4.235,1041.753,-0.521,1.173
0.584000,804955,1000.00,12,0,1,1297.645,-1.536,4.241,1041.440,-0.287,1.174
0.585000,804956,1000.00,12,0,1,1302.233,1.305,4.235,1042.041,-0.298,1.159
0.586000,804957,1000.00,12,0,1,1307.878,6.417,4.271,1040.503,-0.886,1.148
0.587000,804958,1000.00,12,0,1,1301.464,1.349,4.262,1039.759,-2.191,1.182
0.588000,804959,1000.00,12,0,1,1297.381,-4.057,4.290,1040.431,-0.923,1.187
0.589000,804960,1000.00,12,0,1,1299.134,-0.528,4.274,1041.993,0.377,1.178
0.590000,804961,1000.00,12,0,1,1300.671,1.997,4.202,1041.200,0.243,1.178
0.591000,804962,1000.00,12,0,1,1304.971,6.469,4.244,1040.071,-1.129,1.188
0.592000,804963,1000.00,12,0,1,1299.110,3.599,4.263,1038.918,-1.690,1.211
0.593000,804964,1000.00,12,0,1,1293.994,-2.363,4.269,1042.209,0.812,1.211
0.594000,804965,1000.00,12,0,1,1294.690,0.066,4.257,1042.473,2.218,1.244
0.595000,804966,1000.00,12,0,1,1293.369,-0.196,4.235,1042.281,1.008,1.249
0.596000,804967,1000.00,12,0,1,1292.600,-0.836,4.221,1039.903,-0.381,1.241
0.597000,804968,1000.00,12,0,1,1291.351,-1.457,4.222,1041.200,-0.276,1.220
0.598000,804969,1000.00,12,0,1,1288.805,-4.090,4.233,1041.152,0.885,1.223
0.599000,804970,1000.00,12,0,1,1291.688,-2.409,4.222,1042.785,1.292,1.211
0.600000,804971,1000.00,12,0,1,1293.105,-0.829,4.222,1043.554,2.583,1.245
0.601000,804972,1000.00,12,0,1,1294.306,-1.462,4.211,1043.026,1.426,1.260
0.602000,804973,1000.00,12,0,1,1297.164,0.209,4.172,1041.200,-0.267,1.251
0.603000,804974,1000.00,12,0,1,1301.440,2.538,4.151,1039.591,-1.860,1.251
0.604000,804975,1000.00,12,0,1,1303.049,3.102,4.174,1039.807,-1.716,1.273
0.605000,804976,1000.00,12,0,1,1303.866,2.172,4.185,1040.479,-0.556,1.267
0.606000,804977,1000.00,12,0,1,1303.986,1.687,4.184,1040.816,-0.358,1.264
0.607000,804978,1000.00,12,0,1,1300.431,-1.419,4.162,1039.951,-0.683,1.181
0.608000,804979,1000.00,12,0,1,1296.708,-4.619,4.157,1040.215,-0.856,1.141
0.609000,804980,1000.00,12,0,1,1297.381,-2.826,4.115,1041.993,1.070,1.150
0.610000,804981,1000.00,12,0,1,1296.348,-1.443,4.111,1039.278,-0.854,1.156
0.611000,804982,1000.00,12,0,1,1294.906,-1.474,4.117,1040.527,-0.826,1.155
0.612000,804983,1000.00,12,0,1,1295.675,0.859,4.118,1040.551,0.578,1.157
0.613000,804984,1000.00,12,0,1,1296.660,3.164,4.137,1040.359,-0.464,1.159
0.614000,804985,1000.00,12,0,1,1297.381,4.408,4.182,1039.999,-0.073,1.156
0.615000,804986,1000.00,12,0,1,1292.264,0.952,4.183,1040.720,0.124,1.143
0.616000,804987,1000.00,12,0,1,1290.054,-2.200,4.185,1042.161,1.686,1.085
0.617000,804988,1000.00,12,0,1,1289.021,-1.894,4.028,1042.233,1.707,1.111
0.618000,804989,1000.00,12,0,1,1290.078,-1.917,3.875,1042.329,1.304,1.117
0.619000,804990,1000.00,12,0,1,1290.006,-1.530,3.878,1041.993,1.094,1.127
0.620000,804991,1000.00,12,0,1,1291.736,-1.587,3.884,1041.248,0.024,1.122
0.621000,804992,1000.00,12,0,1,1295.026,0.767,3.884,1042.593,1.029,1.127
0.622000,804993,1000.00,12,0,1,1298.750,2.550,3.896,1041.248,0.239,1.105
0.623000,804994,1000.00,12,0,1,1302.905,4.586,3.946,1041.416,-0.431,1.105
0.624000,804995,1000.00,12,0,1,1302.545,3.246,3.836,1043.986,2.051,1.124
0.625000,804996,1000.00,12,0,1,1302.113,0.632,3.519,1043.938,2.032,1.121
0.626000,804997,1000.00,12,0,1,1303.578,1.597,3.326,1042.761,0.325,1.105
0.627000,804998,1000.00,12,0,1,1298.437,-2.454,3.236,1043.026,0.290,1.105
0.628000,804999,1000.00,12,0,1,1295.339,-5.633,3.305,1042.809,0.079,1.101
0.629000,805000,1000.00,12,0,1,1297.284,-2.093,3.317,1041.416,-1.218,1.115
0.630000,805001,1000.00,12,0,1,1298.750,0.994,3.296,1043.626,0.153,1.109
0.631000,805002,1000.00,12,0,1,1296.107,0.374,3.130,1041.608,-0.465,1.110
0.632000,805003,1000.00,12,0,1,1295.099,0.152,2.718,1042.161,-1.449,1.120
0.633000,805004,1000.00,12,0,1,1291.447,-0.838,2.643,1040.071,-1.624,1.141
0.634000,805005,1000.00,12,0,1,1287.556,-3.676,2.685,1040.888,-2.254,1.184
0.635000,805006,1000.00,12,0,1,1287.124,-2.704,2.706,1042.881,0.832,1.189
0.636000,805007,1000.00,12,0,1,1287.508,-1.200,2.555,1042.137,-0.038,1.183
0.637000,805008,1000.00,12,0,1,1283.208,-4.016,2.610,1041.248,-0.966,1.149
0.638000,805009,1000.00,12,0,1,1278.957,-7.921,2.782,1041.536,-0.561,1.145
0.639000,805010,1000.00,12,0,1,1278.212,-8.032,3.004,1041.008,-0.884,1.150
0.640000,805011,1000.00,12,0,1,1277.636,-7.609,3.178,1041.753,-0.253,1.150
0.641000,805012,1000.00,12,0,1,1281.695,-4.487,3.109,1042.473,0.553,1.142
0.642000,805013,1000.00,12,0,1,1284.722,-0.749,3.069,1041.728,0.024,1.117
0.643000,805014,1000.00,12,0,1,1295.507,6.248,3.176,1041.993,-0.164,1.111
0.644000,805015,1000.00,12,0,1,1308.790,17.747,4.048,1041.801,0.120,1.066
0.645000,805016,1000.00,12,0,1,1317.510,22.034,5.108,1040.672,-1.101,1.068
0.646000,805017,1000.00,12,0,1,1313.546,16.200,5.597,1042.353,0.249,1.067
0.647000,805018,1000.00,12,0,1,1308.766,7.328,5.689,1041.368,0.113,1.066
0.648000,805019,1000.00,12,0,1,1305.788,3.977,5.687,1040.720,-1.137,1.071
0.649000,805020,1000.00,12,0,1,1300.815,-0.704,5.678,1043.530,1.497,1.076
0.650000,805021,1000.00,12,0,1,1295.291,-4.873,5.718,1042.425,1.126,1.025
0.651000,805022,1000.00,12,0,1,1291.976,-6.061,5.779,1041.680,-0.506,1.007
0.652000,805023,1000.00,12,0,1,1294.138,-2.580,5.790,1042.017,0.281,1.008
0.653000,805024,1000.00,12,0,1,1295.387,1.344,5.782,1043.842,1.373,0.992
0.654000,805025,1000.00,12,0,1,1296.348,2.442,5.776,1040.359,-0.706,0.967
0.655000,805026,1000.00,12,0,1,1295.603,2.963,5.783,1040.455,-2.117,1.009
0.656000,805027,1000.00,12,0,1,1296.732,2.809,5.791,1040.407,-0.577,1.011
0.657000,805028,1000.00,12,0,1,1297.356,3.401,5.808,1041.176,-0.670,1.011
0.658000,805029,1000.00,12,0,1,1295.339,0.115,5.771,1041.272,0.284,1.004
0.659000,805030,1000.00,12,0,1,1298.822,0.920,5.759,1041.801,0.274,0.994
0.660000,805031,1000.00,12,0,1,1300.191,1.573,5.759,1043.314,1.687,1.015
0.661000,805032,1000.00,12,0,1,1297.332,-3.468,5.776,1042.401,1.079,1.020
0.662000,805033,1000.00,12,0,1,1300.960,-2.631,5.787,1042.353,0.176,1.017
0.663000,805034,1000.00,12,0,1,1300.936,-2.630,5.782,1041.584,0.105,1.015
0.664000,805035,1000.00,12,0,1,1296.996,-7.847,5.854,1042.305,-0.108,1.015
0.665000,805036,1000.00,12,0,1,1297.164,-8.050,5.962,1042.593,0.854,1.022
0.666000,805037,1000.00,12,0,1,1301.728,-3.537,5.975,1040.167,-1.552,1.017
0.667000,805038,1000.00,12,0,1,1300.984,-2.521,5.980,1040.167,-1.760,1.019
0.668000,805039,1000.00,12,0,1,1301.152,-2.584,5.985,1041.560,-0.019,1.002
0.669000,805040,1000.00,12,0,1,1301.152,-0.493,5.981,1041.488,0.096,0.990
0.670000,805041,1000.00,12,0,1,1297.092,-2.606,5.989,1043.362,1.361,1.009
0.671000,805042,1000.00,12,0,1,1292.264,-5.163,6.032,1041.368,0.368,1.000
0.672000,805043,1000.00,12,0,1,1295.867,-0.640,6.022,1041.993,-0.364,1.001
0.673000,805044,1000.00,12,0,1,1294.882,2.050,5.994,1044.155,2.302,1.050
0.674000,805045,1000.00,12,0,1,1289.862,-2.014,5.983,1041.753,0.138,1.010
0.675000,805046,1000.00,12,0,1,1288.805,-1.919,5.988,1042.209,-0.431,0.970
0.676000,805047,1000.00,12,0,1,1292.552,2.113,5.992,1041.536,-0.012,0.969
0.677000,805048,1000.00,12,0,1,1295.387,4.966,6.023,1040.840,-1.413,0.988
0.678000,805049,1000.00,12,0,1,1293.345,2.560,5.981,1041.945,0.061,0.988
0.679000,805050,1000.00,12,0,1,1294.690,1.342,5.976,1042.881,0.801,0.980
0.680000,805051,1000.00,12,0,1,1294.450,0.936,5.976,1041.056,-0.482,0.982
0.681000,805052,1000.00,12,0,1,1297.501,0.591,5.977,1043.722,0.823,0.987
0.682000,805053,1000.00,12,0,1,1302.089,3.984,6.003,1043.218,1.627,0.992
0.683000,805054,1000.00,12,0,1,1302.473,2.338,6.011,1042.209,-0.557,0.968
0.684000,805055,1000.00,12,0,1,1300.311,-1.164,5.991,1040.167,-1.581,0.941
0.685000,805056,1000.00,12,0,1,1297.332,-4.600,6.014,1041.440,-1.261,0.951
0.686000,805057,1000.00,12,0,1,1295.075,-6.586,6.083,1042.089,0.369,0.952
0.687000,805058,1000.00,12,0,1,1298.029,-3.389,6.075,1042.473,0.198,0.943
0.688000,805059,1000.00,12,0,1,1294.762,-3.518,5.992,1042.761,0.650,0.944
0.689000,805060,1000.00,12,0,1,1294.258,-3.987,5.910,1043.674,1.182,0.950
0.690000,805061,1000.00,12,0,1,1294.018,-0.871,5.813,1042.401,0.214,0.950
0.691000,805062,1000.00,12,0,1,1296.252,1.815,5.784,1040.311,-1.845,0.982
0.692000,805063,1000.00,12,0,1,1295.507,3.894,5.809,1041.200,-1.275,0.999
0.693000,805064,1000.00,12,0,1,1291.207,0.711,5.742,1041.008,-0.519,1.001
0.694000,805065,1000.00,12,0,1,1289.934,0.258,5.165,1041.056,-0.963,1.010
0.695000,805066,1000.00,12,0,1,1291.447,2.690,4.136,1039.687,-1.274,1.014
0.696000,805067,1000.00,12,0,1,1291.159,2.746,3.466,1040.191,-1.419,1.033
0.697000,805068,1000.00,12,0,1,1288.949,0.620,3.308,1041.176,0.346,1.034
0.698000,805069,1000.00,12,0,1,1288.469,-0.890,3.263,1038.942,-1.463,1.043
0.699000,805070,1000.00,12,0,1,1295.219,3.805,3.305,1039.158,-1.613,1.046
0.700000,805071,1000.00,12,0,1,1297.381,5.407,3.322,1040.600,0.408,1.035
0.701000,805072,1000.00,12,0,1,1297.981,2.798,3.234,1042.161,1.553,1.056
0.702000,805073,1000.00,12,0,1,1297.236,0.851,3.215,1042.497,2.090,1.096
0.703000,805074,1000.00,12,0,1,1299.374,0.156,3.210,1041.320,0.629,1.082
0.704000,805075,1000.00,12,0,1,1295.627,-2.789,3.215,1041.032,0.131,1.078
0.705000,805076,1000.00,12,0,1,1291.255,-8.276,3.396,1040.672,-0.056,1.035
0.706000,805077,1000.00,12,0,1,1287.436,-10.057,3.660,1041.104,0.114,1.032
0.707000,805078,1000.00,12,0,1,1285.154,-10.718,3.932,1040.551,0.015,1.028
0.708000,805079,1000.00,12,0,1,1283.256,-9.484,4.155,1038.918,-1.516,1.049
0.709000,805080,1000.00,12,0,1,1284.337,-6.055,4.240,1039.903,-0.699,1.053
0.710000,805081,1000.00,12,0,1,1281.407,-4.829,4.289,1041.849,1.456,1.046
0.711000,805082,1000.00,12,0,1,1282.800,-2.198,4.272,1041.368,1.166,1.048
0.712000,805083,1000.00,12,0,1,1289.021,6.063,4.342,1041.680,0.922,1.056
0.713000,805084,1000.00,12,0,1,1288.253,7.509,4.454,1042.353,1.652,1.081
0.714000,805085,1000.00,12,0,1,1284.890,4.038,4.351,1042.881,1.740,1.109
0.715000,805086,1000.00,12,0,1,1284.337,4.016,4.238,1043.242,1.867,1.133
0.716000,805087,1000.00,12,0,1,1289.478,7.604,4.343,1043.794,1.909,1.144
0.717000,805088,1000.00,12,0,1,1294.954,12.212,4.661,1042.425,0.660,1.121
0.718000,805089,1000.00,12,0,1,1302.185,15.364,5.129,1041.753,-0.569,1.124
0.719000,805090,1000.00,12,0,1,1301.896,13.449,5.470,1042.881,0.432,1.125
0.720000,805091,1000.00,12,0,1,1297.308,4.818,5.500,1041.728,-0.303,1.110
0.721000,805092,1000.00,12,0,1,1298.197,2.557,5.463,1041.921,-0.805,1.114
0.722000,805093,1000.00,12,0,1,1299.614,2.198,5.471,1042.761,0.394,1.114
0.723000,805094,1000.00,12,0,1,1308.070,6.238,5.534,1041.128,-1.069,1.076
0.724000,805095,1000.00,12,0,1,1311.072,8.817,5.666,1039.879,-2.325,1.125
0.725000,805096,1000.00,12,0,1,1311.024,4.843,5.701,1040.792,-1.334,1.139
0.726000,805097,1000.00,12,0,1,1305.187,-0.312,5.693,1041.224,-0.491,1.142
0.727000,805098,1000.00,12,0,1,1300.599,-6.440,5.723,1041.488,-0.320,1.125
0.728000,805099,1000.00,12,0,1,1294.114,-9.837,5.878,1038.870,-2.042,1.161
0.729000,805100,1000.00,12,0,1,1288.060,-14.102,6.204,1040.119,-1.689,1.180
0.730000,805101,1000.00,12,0,1,1284.577,-13.831,6.504,1040.840,0.245,1.179
0.731000,805102,1000.00,12,0,1,1287.124,-8.874,6.623,1041.248,0.015,1.173
0.732000,805103,1000.00,12,0,1,1286.739,-5.240,6.641,1041.368,0.585,1.153
0.733000,805104,1000.00,12,0,1,1281.167,-7.976,6.728,1040.119,-0.616,1.154
0.734000,805105,1000.00,12,0,1,1284.866,-4.212,6.752,1040.672,-0.384,1.133
0.735000,805106,1000.00,12,0,1,1288.517,2.197,6.728,1041.032,0.474,1.121
0.736000,805107,1000.00,12,0,1,1287.220,0.490,6.664,1040.431,-0.292,1.121
0.737000,805108,1000.00,12,0,1,1289.262,1.720,6.651,1039.975,-0.477,1.122
0.738000,805109,1000.00,12,0,1,1292.985,4.189,6.659,1040.479,-0.154,1.119
0.739000,805110,1000.00,12,0,1,1296.324,5.574,6.681,1041.777,1.194,1.119
0.740000,805111,1000.00,12,0,1,1296.828,4.296,6.708,1040.744,0.478,1.121
0.741000,805112,1000.00,12,0,1,1295.171,0.664,6.703,1040.239,-0.406,1.091
0.742000,805113,1000.00,12,0,1,1299.999,2.443,6.690,1040.960,0.446,1.078
0.743000,805114,1000.00,12,0,1,1301.800,3.982,6.713,1041.104,0.620,1.079
0.744000,805115,1000.00,12,0,1,1300.527,0.749,6.713,1040.095,-0.223,1.071
0.745000,805116,1000.00,12,0,1,1301.320,0.805,6.704,1040.888,0.156,1.056
0.746000,805117,1000.00,12,0,1,1301.344,0.902,6.693,1040.455,0.307,1.038
0.747000,805118,1000.00,12,0,1,1298.053,-1.528,6.696,1040.960,0.193,1.037
0.748000,805119,1000.00,12,0,1,1294.786,-3.674,6.715,1039.999,-0.039,1.016
0.749000,805120,1000.00,12,0,1,1288.589,-6.872,6.764,1040.479,-0.283,0.991
0.750000,805121,1000.00,12,0,1,1288.109,-6.191,6.777,1041.536,1.130,1.002
0.751000,805122,1000.00,12,0,1,1288.877,-1.988,6.772,1040.335,0.038,0.978
0.752000,805123,1000.00,12,0,1,1290.054,0.290,6.771,1042.401,1.106,0.945
0.753000,805124,1000.00,12,0,1,1290.703,2.576,6.780,1043.194,2.516,1.006
0.754000,805125,1000.00,12,0,1,1292.456,4.144,6.794,1042.665,1.095,1.017
0.755000,805126,1000.00,12,0,1,1295.411,6.561,6.757,1042.041,0.617,1.021
0.756000,805127,1000.00,12,0,1,1292.264,3.591,6.625,1039.879,-1.480,1.042
0.757000,805128,1000.00,12,0,1,1290.823,-0.247,6.449,1040.768,-1.081,1.053
0.758000,805129,1000.00,12,0,1,1292.961,1.086,6.310,1041.560,0.329,1.032
0.759000,805130,1000.00,12,0,1,1297.501,3.058,6.267,1041.272,-0.210,1.028
0.760000,805131,1000.00,12,0,1,1301.416,5.189,6.272,1041.969,0.406,1.009
0.761000,805132,1000.00,12,0,1,1302.016,3.425,6.283,1042.665,1.003,1.005
0.762000,805133,1000.00,12,0,1,1298.630,-1.273,6.227,1041.921,0.326,0.998
0.763000,805134,1000.00,12,0,1,1292.889,-7.495,6.227,1041.993,-0.005,0.970
0.764000,805135,1000.00,12,0,1,1292.288,-8.609,6.319,1041.296,-0.331,0.940
0.765000,805136,1000.00,12,0,1,1294.114,-5.364,6.339,1041.464,-0.570,0.905
0.766000,805137,1000.00,12,0,1,1295.579,-3.096,6.262,1040.984,-0.552,0.868
0.767000,805138,1000.00,12,0,1,1293.225,-3.169,6.036,1037.549,-3.352,0.984
0.768000,805139,1000.00,12,0,1,1289.213,-5.510,5.685,1039.158,-2.466,1.041
0.769000,805140,1000.00,12,0,1,1292.504,-1.260,5.361,1041.272,0.740,1.045
0.770000,805141,1000.00,12,0,1,1298.726,6.574,5.398,1039.951,-0.552,1.047
0.771000,805142,1000.00,12,0,1,1303.914,11.562,5.628,1042.041,0.792,1.047
0.772000,805143,1000.00,12,0,1,1301.896,10.294,5.805,1040.816,0.693,1.050
0.773000,805144,1000.00,12,0,1,1292.504,1.082,5.740,1040.431,-0.815,1.045
0.774000,805145,1000.00,12,0,1,1279.845,-9.861,5.774,1041.320,0.663,0.996
0.775000,805146,1000.00,12,0,1,1274.369,-14.414,6.085,1040.455,-0.254,0.979
0.776000,805147,1000.00,12,0,1,1275.954,-10.614,6.267,1042.257,0.908,0.985
0.777000,805148,1000.00,12,0,1,1279.077,-6.202,6.262,1042.233,1.532,1.008
0.778000,805149,1000.00,12,0,1,1283.208,-2.015,6.112,1042.881,1.104,0.978
0.779000,805150,1000.00,12,0,1,1289.382,3.067,5.794,1042.161,1.064,0.960
0.780000,805151,1000.00,12,0,1,1290.487,3.649,5.478,1041.320,-0.469,0.962
0.781000,805152,1000.00,12,0,1,1295.051,4.779,5.375,1042.281,0.547,0.965
0.782000,805153,1000.00,12,0,1,1299.735,8.196,5.449,1041.777,0.276,0.962
0.783000,805154,1000.00,12,0,1,1299.014,5.568,5.388,1042.329,0.278,0.959
0.784000,805155,1000.00,12,0,1,1298.822,3.336,5.376,1042.978,1.175,0.972
0.785000,805156,1000.00,12,0,1,1291.495,-2.478,5.379,1041.248,-0.477,0.972
0.786000,805157,1000.00,12,0,1,1280.038,-12.881,5.678,1041.032,-1.011,0.981
0.787000,805158,1000.00,12,0,1,1277.107,-13.614,5.991,1043.050,0.873,0.987
0.788000,805159,1000.00,12,0,1,1281.263,-6.480,6.031,1040.047,-1.050,0.998
0.789000,805160,1000.00,12,0,1,1283.617,-0.800,5.981,1040.383,-1.987,1.023
0.790000,805161,1000.00,12,0,1,1288.277,4.615,5.986,1040.239,-0.688,1.025
0.791000,805162,1000.00,12,0,1,1287.316,6.496,6.055,1040.239,-1.406,1.043
0.792000,805163,1000.00,12,0,1,1280.230,0.453,6.045,1040.071,-0.775,1.046
0.793000,805164,1000.00,12,0,1,1286.523,5.058,6.062,1039.110,-1.713,1.070
0.794000,805165,1000.00,12,0,1,1293.849,13.577,6.357,1041.128,-0.069,1.070
0.795000,805166,1000.00,12,0,1,1296.035,13.213,6.625,1042.353,1.672,1.096
0.796000,805167,1000.00,12,0,1,1290.607,7.352,6.705,1040.936,0.050,1.095
0.797000,805168,1000.00,12,0,1,1287.028,0.585,6.702,1041.873,0.506,1.097
0.798000,805169,1000.00,12,0,1,1286.763,-0.410,6.682,1043.050,1.724,1.124
0.799000,805170,1000.00,12,0,1,1286.019,-2.431,6.620,1039.326,-1.237,1.136
0.800000,805171,1000.00,12,0,1,1283.184,-5.640,6.610,1040.215,-1.615,1.148
0.801000,805172,1000.00,12,0,1,1286.691,-4.088,6.630,1040.768,0.378,1.149
0.802000,805173,1000.00,12,0,1,1291.760,0.741,6.630,1042.569,0.976,1.147
0.803000,805174,1000.00,12,0,1,1293.585,1.604,6.624,1042.833,2.124,1.131
0.804000,805175,1000.00,12,0,1,1293.633,0.802,6.599,1040.215,-0.731,1.125
0.805000,805176,1000.00,12,0,1,1295.147,1.580,6.538,1040.840,-0.565,1.124
0.806000,805177,1000.00,12,0,1,1294.906,1.622,6.522,1040.191,-0.231,1.105
0.807000,805178,1000.00,12,0,1,1293.441,0.446,6.522,1041.488,0.053,1.095
0.808000,805179,1000.00,12,0,1,1295.267,2.182,6.528,1040.215,0.168,1.094
0.809000,805180,1000.00,12,0,1,1292.648,1.754,6.518,1040.191,-1.015,1.103
0.810000,805181,1000.00,12,0,1,1285.803,-3.962,6.501,1041.176,0.721,1.106
0.811000,805182,1000.00,12,0,1,1286.883,-2.394,6.491,1040.888,0.151,1.097
0.812000,805183,1000.00,12,0,1,1289.141,1.933,6.495,1041.368,0.449,1.098
0.813000,805184,1000.00,12,0,1,1288.325,1.665,6.412,1040.960,0.263,1.099
0.814000,805185,1000.00,12,0,1,1288.325,1.688,6.300,1041.200,-0.021,1.098
0.815000,805186,1000.00,12,0,1,1283.809,-1.649,6.258,1041.176,0.301,1.096
0.816000,805187,1000.00,12,0,1,1279.365,-6.480,6.310,1042.113,0.562,1.096
0.817000,805188,1000.00,12,0,1,1277.563,-7.474,6.382,1043.626,2.059,1.030
0.818000,805189,1000.00,12,0,1,1277.804,-7.157,6.415,1039.639,-1.180,0.983
0.819000,805190,1000.00,12,0,1,1282.752,-2.918,6.425,1040.888,-1.464,0.999
0.820000,805191,1000.00,12,0,1,1287.412,1.342,6.361,1041.296,0.526,0.999
0.821000,805192,1000.00,12,0,1,1291.784,3.659,6.169,1040.720,-0.867,1.000
0.822000,805193,1000.00,12,0,1,1292.937,3.918,6.020,1040.816,-0.190,0.996
0.823000,805194,1000.00,12,0,1,1292.817,1.865,6.024,1041.897,0.504,0.992
0.824000,805195,1000.00,12,0,1,1290.655,-0.362,5.860,1041.632,0.675,0.992
0.825000,805196,1000.00,12,0,1,1291.880,-0.431,5.495,1042.521,0.950,1.000
0.826000,805197,1000.00,12,0,1,1292.048,0.960,5.288,1042.833,1.469,1.014
0.827000,805198,1000.00,12,0,1,1286.523,-3.230,5.234,1041.440,0.044,0.990
0.828000,805199,1000.00,12,0,1,1289.862,-0.644,5.227,1041.368,-0.448,0.980
0.829000,805200,1000.00,12,0,1,1294.810,6.538,5.291,1042.329,0.646,0.973
0.830000,805201,1000.00,12,0,1,1290.054,3.183,5.285,1041.056,-0.439,0.972
0.831000,805202,1000.00,12,0,1,1285.779,-0.710,5.242,1041.488,-0.505,0.972
0.832000,805203,1000.00,12,0,1,1285.562,0.258,5.113,1042.089,0.365,0.972
0.833000,805204,1000.00,12,0,1,1288.493,3.415,5.075,1040.407,-1.095,0.984
0.834000,805205,1000.00,12,0,1,1283.761,0.862,5.054,1043.266,0.595,0.973
0.835000,805206,1000.00,12,0,1,1280.950,-3.267,5.063,1040.311,-0.418,0.973
0.836000,805207,1000.00,12,0,1,1275.762,-5.935,4.798,1040.912,-1.922,1.000
0.837000,805208,1000.00,12,0,1,1269.180,-12.205,4.722,1042.041,0.794,0.999
0.838000,805209,1000.00,12,0,1,1268.027,-12.204,4.943,1043.218,0.744,0.993
0.839000,805210,1000.00,12,0,1,1267.259,-11.060,5.183,1043.218,1.371,0.972
0.840000,805211,1000.00,12,0,1,1273.168,-6.090,5.214,1042.881,0.391,0.969
0.841000,805212,1000.00,12,0,1,1272.759,-3.610,5.157,1040.864,-1.081,0.960
0.842000,805213,1000.00,12,0,1,1269.709,-7.686,5.270,1041.392,-1.106,0.967
0.843000,805214,1000.00,12,0,1,1272.231,-4.339,5.257,1041.993,0.054,0.936
0.844000,805215,1000.00,12,0,1,1287.700,8.385,5.036,1040.912,-0.788,0.943
0.845000,805216,1000.00,12,0,1,1303.169,22.961,5.693,1041.032,-0.910,0.922
0.846000,805217,1000.00,12,0,1,1301.704,20.058,6.275,1042.185,0.559,0.925
0.847000,805218,1000.00,12,0,1,1297.381,11.999,6.500,1041.392,-0.076,0.922
0.848000,805219,1000.00,12,0,1,1291.327,6.405,6.563,1041.801,0.040,0.889
0.849000,805220,1000.00,12,0,1,1290.703,3.717,6.575,1040.311,-0.775,0.879
0.850000,805221,1000.00,12,0,1,1300.287,12.561,6.764,1040.119,-1.422,0.872
0.851000,805222,1000.00,12,0,1,1298.750,12.470,6.966,1040.431,-0.554,0.874
0.852000,805223,1000.00,12,0,1,1287.964,1.173,6.967,1040.984,-0.190,0.863
0.853000,805224,1000.00,12,0,1,1286.427,-1.267,6.966,1042.401,1.097,0.824
0.854000,805225,1000.00,12,0,1,1290.943,3.660,6.984,1041.032,0.213,0.818
0.855000,805226,1000.00,12,0,1,1293.465,5.695,7.027,1039.495,-1.710,0.850
0.856000,805227,1000.00,12,0,1,1294.138,4.985,7.058,1039.447,-1.376,0.871
0.857000,805228,1000.00,12,0,1,1287.604,-1.507,7.061,1040.239,-0.609,0.875
0.858000,805229,1000.00,12,0,1,1287.460,-4.828,7.087,1041.656,0.877,0.884
0.859000,805230,1000.00,12,0,1,1289.958,-2.216,7.090,1040.816,0.396,0.874
0.860000,805231,1000.00,12,0,1,1288.661,-4.896,7.102,1043.026,1.536,0.895
0.861000,805232,1000.00,12,0,1,1289.526,-5.612,7.138,1043.962,3.058,0.993
0.862000,805233,1000.00,12,0,1,1291.063,-4.740,7.164,1042.930,1.328,1.009
0.863000,805234,1000.00,12,0,1,1293.057,-4.115,7.184,1041.704,0.197,1.009
0.864000,805235,1000.00,12,0,1,1299.470,0.633,7.180,1042.137,0.181,1.009
0.865000,805236,1000.00,12,0,1,1297.140,-0.670,7.177,1040.095,-0.972,1.017
0.866000,805237,1000.00,12,0,1,1289.622,-8.505,7.219,1038.654,-2.666,1.082
0.867000,805238,1000.00,12,0,1,1288.205,-9.198,7.259,1038.846,-1.855,1.075
0.868000,805239,1000.00,12,0,1,1282.199,-11.063,7.356,1041.008,0.172,1.062
0.869000,805240,1000.00,12,0,1,1273.312,-16.947,7.726,1040.551,0.495,1.044
0.870000,805241,1000.00,12,0,1,1265.865,-19.074,8.181,1039.471,-0.879,1.049
0.871000,805242,1000.00,12,0,1,1261.758,-18.393,8.569,1038.558,-1.352,1.059
0.872000,805243,1000.00,12,0,1,1256.858,-16.852,8.877,1040.768,0.298,1.059
0.873000,805244,1000.00,12,0,1,1261.085,-9.986,8.985,1040.191,0.660,1.061
0.874000,805245,1000.00,12,0,1,1277.011,7.766,9.051,1040.936,0.331,1.058
0.875000,805246,1000.00,12,0,1,1291.736,22.212,9.581,1041.296,1.230,1.064
0.876000,805247,1000.00,12,0,1,1292.456,21.761,10.062,1040.912,0.354,1.044
0.877000,805248,1000.00,12,0,1,1289.934,15.006,10.273,1042.401,1.373,1.062
0.878000,805249,1000.00,12,0,1,1291.063,12.808,10.431,1043.650,2.534,1.119
0.879000,805250,1000.00,12,0,1,1298.245,15.285,10.613,1042.281,0.967,1.124
0.880000,805251,1000.00,12,0,1,1303.266,16.877,10.868,1040.311,-1.032,1.132
0.881000,805252,1000.00,12,0,1,1300.575,10.631,10.972,1040.215,-1.334,1.145
0.882000,805253,1000.00,12,0,1,1299.062,4.891,10.993,1042.954,1.239,1.157
0.883000,805254,1000.00,12,0,1,1296.948,1.463,10.985,1040.479,-0.100,1.147
0.884000,805255,1000.00,12,0,1,1297.332,-0.719,10.984,1040.359,-1.367,1.160
0.885000,805256,1000.00,12,0,1,1294.618,-2.436,10.980,1041.248,0.479,1.160
0.886000,805257,1000.00,12,0,1,1287.508,-9.015,11.022,1041.296,0.207,1.128
0.887000,805258,1000.00,12,0,1,1283.400,-11.442,11.006,1043.554,2.043,1.159
0.888000,805259,1000.00,12,0,1,1281.479,-10.475,10.970,1042.857,1.874,1.185
0.889000,805260,1000.00,12,0,1,1285.250,-5.234,10.883,1042.833,0.702,1.173
0.890000,805261,1000.00,12,0,1,1280.278,-5.126,10.873,1041.464,0.122,1.172
0.891000,805262,1000.00,12,0,1,1268.676,-14.151,11.044,1040.960,-1.264,1.175
0.892000,805263,1000.00,12,0,1,1266.946,-13.307,11.150,1041.320,-0.407,1.166
0.893000,805264,1000.00,12,0,1,1274.921,-3.105,11.142,1040.912,-0.952,1.174
0.894000,805265,1000.00,12,0,1,1280.710,4.488,11.097,1041.296,-0.666,1.173
0.895000,805266,1000.00,12,0,1,1288.565,10.338,10.711,1041.897,-0.027,1.165
0.896000,805267,1000.00,12,0,1,1287.244,9.563,10.417,1042.930,0.616,1.166
0.897000,805268,1000.00,12,0,1,1279.845,-0.099,10.278,1042.689,0.574,1.169
0.898000,805269,1000.00,12,0,1,1291.111,6.131,10.275,1040.960,-1.260,1.182
0.899000,805270,1000.00,12,0,1,1302.857,16.896,10.536,1040.576,-1.671,1.201
0.900000,805271,1000.00,12,0,1,1301.056,11.419,10.510,1041.849,-0.386,1.185
0.901000,805272,1000.00,12,0,1,1296.684,3.727,10.374,1043.962,1.573,1.203
0.902000,805273,1000.00,12,0,1,1290.967,-3.256,10.383,1040.912,-0.497,1.205
0.903000,805274,1000.00,12,0,1,1287.388,-7.743,10.439,1041.993,-0.881,1.201
0.904000,805275,1000.00,12,0,1,1285.658,-8.370,10.493,1040.864,-0.191,1.201
0.905000,805276,1000.00,12,0,1,1281.359,-10.529,10.568,1040.888,-1.346,1.192
0.906000,805277,1000.00,12,0,1,1277.491,-12.027,10.680,1040.912,-0.131,1.176
0.907000,805278,1000.00,12,0,1,1282.247,-5.826,10.710,1042.017,0.251,1.173
0.908000,805279,1000.00,12,0,1,1298.942,10.648,10.794,1040.960,0.130,1.167
0.909000,805280,1000.00,12,0,1,1310.304,22.476,11.248,1041.392,-0.225,1.166
0.910000,805281,1000.00,12,0,1,1305.355,16.721,11.473,1039.759,-0.821,1.152
0.911000,805282,1000.00,12,0,1,1294.690,4.673,11.464,1040.912,-0.634,1.071
0.912000,805283,1000.00,12,0,1,1288.133,-2.237,11.449,1040.744,0.199,1.055
0.913000,805284,1000.00,12,0,1,1286.907,-3.284,11.444,1040.720,-0.449,1.056
0.914000,805285,1000.00,12,0,1,1289.982,-0.395,11.443,1041.392,0.370,1.057
0.915000,805286,1000.00,12,0,1,1290.102,0.115,11.443,1040.527,-0.248,1.049
0.916000,805287,1000.00,12,0,1,1285.538,-4.697,11.399,1038.774,-2.005,1.019
0.917000,805288,1000.00,12,0,1,1283.881,-7.283,11.371,1040.143,-0.787,0.991
0.918000,805289,1000.00,12,0,1,1289.910,-2.652,11.269,1041.969,1.175,1.005
0.919000,805290,1000.00,12,0,1,1296.011,2.542,11.017,1041.632,1.033,1.013
0.920000,805291,1000.00,12,0,1,1296.708,1.752,10.685,1041.680,0.551,1.008
0.921000,805292,1000.00,12,0,1,1298.149,0.705,10.364,1042.425,1.374,1.009
0.922000,805293,1000.00,12,0,1,1304.250,4.440,10.106,1038.966,-1.352,1.026
0.923000,805294,1000.00,12,0,1,1291.519,-5.265,10.034,1042.209,0.251,1.022
0.924000,805295,1000.00,12,0,1,1291.616,-10.081,10.075,1042.593,2.441,1.078
0.925000,805296,1000.00,12,0,1,1291.111,-4.977,9.599,1041.224,-0.108,1.064
0.926000,805297,1000.00,12,0,1,1289.814,-7.512,9.154,1041.873,0.838,1.069
0.927000,805298,1000.00,12,0,1,1290.607,-3.432,8.918,1042.641,1.367,1.069
0.928000,805299,1000.00,12,0,1,1291.664,-1.391,8.734,1040.672,-0.167,1.008
0.929000,805300,1000.00,12,0,1,1288.012,-2.155,8.468,1041.440,-0.182,0.999
0.930000,805301,1000.00,12,0,1,1285.899,-3.117,8.137,1042.377,1.164,1.001
0.931000,805302,1000.00,12,0,1,1284.962,-1.987,8.002,1042.473,0.900,0.992
0.932000,805303,1000.00,12,0,1,1283.809,-1.362,7.974,1042.281,0.534,0.979
0.933000,805304,1000.00,12,0,1,1287.700,2.055,7.977,1041.897,0.057,0.979
0.934000,805305,1000.00,12,0,1,1291.736,6.928,8.036,1040.960,-0.949,0.969
0.935000,805306,1000.00,12,0,1,1290.703,4.830,8.058,1039.567,-2.033,1.009
0.936000,805307,1000.00,12,0,1,1289.045,2.155,7.962,1042.041,-0.372,1.009
0.937000,805308,1000.00,12,0,1,1291.616,2.450,7.803,1044.275,2.356,1.023
0.938000,805309,1000.00,12,0,1,1297.284,6.232,7.712,1043.074,0.834,0.995
0.939000,805310,1000.00,12,0,1,1299.855,6.689,7.735,1042.833,0.093,0.990
0.940000,805311,1000.00,12,0,1,1298.005,2.849,7.711,1041.176,-1.036,1.001
0.941000,805312,1000.00,12,0,1,1298.341,0.604,7.447,1041.368,-1.444,1.006
0.942000,805313,1000.00,12,0,1,1301.032,1.915,7.211,1040.960,-0.928,1.013
0.943000,805314,1000.00,12,0,1,1301.776,1.713,7.201,1040.600,-1.533,1.027
0.944000,805315,1000.00,12,0,1,1292.480,-6.004,7.223,1042.665,0.552,1.025
0.945000,805316,1000.00,12,0,1,1291.015,-8.943,7.186,1041.801,0.421,1.027
0.946000,805317,1000.00,12,0,1,1290.727,-5.501,7.100,1041.632,-0.425,1.025
0.947000,805318,1000.00,12,0,1,1287.052,-7.600,7.181,1040.792,-0.403,1.024
0.948000,805319,1000.00,12,0,1,1286.980,-5.572,7.172,1040.191,-1.346,1.026
0.949000,805320,1000.00,12,0,1,1289.093,-1.268,6.765,1039.158,-1.551,1.022
0.950000,805321,1000.00,12,0,1,1289.934,1.171,6.571,1041.320,-0.128,1.021
0.951000,805322,1000.00,12,0,1,1285.803,-0.660,6.551,1042.089,1.503,1.019
0.952000,805323,1000.00,12,0,1,1281.335,-4.338,6.563,1039.206,-1.318,1.033
0.953000,805324,1000.00,12,0,1,1276.891,-6.349,6.533,1040.167,-1.057,1.036
0.954000,805325,1000.00,12,0,1,1276.459,-6.346,6.488,1041.680,1.094,1.048
0.955000,805326,1000.00,12,0,1,1277.804,-3.327,6.332,1041.897,0.826,1.037
0.956000,805327,1000.00,12,0,1,1281.887,-0.033,6.099,1040.527,-0.135,1.037
0.957000,805328,1000.00,12,0,1,1289.742,6.574,6.114,1040.191,-0.996,1.046
0.958000,805329,1000.00,12,0,1,1294.498,9.715,6.083,1041.680,0.582,1.049
0.959000,805330,1000.00,12,0,1,1296.876,9.020,5.341,1042.353,1.236,1.063
0.960000,805331,1000.00,12,0,1,1293.369,4.364,4.829,1042.401,1.053,1.067
0.961000,805332,1000.00,12,0,1,1291.664,-0.251,4.784,1043.458,1.704,1.090
0.962000,805333,1000.00,12,0,1,1291.736,-0.297,4.773,1042.041,0.685,1.094
0.963000,805334,1000.00,12,0,1,1290.126,-2.226,4.761,1040.960,-0.847,1.099
0.964000,805335,1000.00,12,0,1,1291.111,-1.399,4.765,1041.825,0.115,1.098
0.965000,805336,1000.00,12,0,1,1288.997,-1.665,4.771,1041.897,0.442,1.099
0.966000,805337,1000.00,12,0,1,1289.021,-1.692,4.730,1041.272,-0.197,1.062
0.967000,805338,1000.00,12,0,1,1293.105,3.621,4.645,1039.398,-1.510,1.077
0.968000,805339,1000.00,12,0,1,1291.183,3.571,4.657,1039.471,-1.698,1.091
0.969000,805340,1000.00,12,0,1,1287.676,0.568,4.644,1041.921,0.920,1.089
0.970000,805341,1000.00,12,0,1,1283.737,-1.354,4.642,1041.272,0.777,1.092
0.971000,805342,1000.00,12,0,1,1285.274,0.082,4.640,1041.104,-0.051,1.075
0.972000,805343,1000.00,12,0,1,1287.892,4.125,4.635,1041.416,0.525,1.060
0.973000,805344,1000.00,12,0,1,1284.337,1.233,4.578,1040.431,-0.511,1.062
0.974000,805345,1000.00,12,0,1,1277.443,-5.110,4.410,1038.966,-1.788,1.036
0.975000,805346,1000.00,12,0,1,1275.690,-7.032,4.465,1041.656,0.139,1.036
0.976000,805347,1000.00,12,0,1,1275.690,-5.969,4.419,1041.849,1.245,1.044
0.977000,805348,1000.00,12,0,1,1272.351,-8.321,4.547,1040.383,-0.819,1.032
0.978000,805349,1000.00,12,0,1,1277.011,-5.272,4.603,1039.951,-1.043,1.042
0.979000,805350,1000.00,12,0,1,1286.643,4.077,4.629,1040.840,-0.304,1.043
0.980000,805351,1000.00,12,0,1,1297.020,11.440,4.884,1041.008,0.173,1.030
0.981000,805352,1000.00,12,0,1,1296.972,10.740,5.107,1042.833,1.405,1.041
0.982000,805353,1000.00,12,0,1,1302.257,10.256,5.305,1043.002,1.954,1.075
0.983000,805354,1000.00,12,0,1,1317.462,21.788,6.128,1041.128,-0.067,1.075
0.984000,805355,1000.00,12,0,1,1316.477,19.646,6.657,1041.632,-0.005,1.066
0.985000,805356,1000.00,12,0,1,1300.143,1.318,6.625,1042.209,1.002,1.037
0.986000,805357,1000.00,12,0,1,1289.670,-9.730,6.759,1042.593,0.957,1.044
0.987000,805358,1000.00,12,0,1,1292.240,-6.593,6.814,1043.074,1.498,1.012
0.988000,805359,1000.00,12,0,1,1295.651,-0.489,6.757,1041.921,0.348,1.006
0.989000,805360,1000.00,12,0,1,1288.733,-4.552,6.722,1042.209,0.171,1.007
0.990000,805361,1000.00,12,0,1,1282.247,-9.578,6.845,1041.344,-0.175,0.996
0.991000,805362,1000.00,12,0,1,1282.199,-7.375,6.924,1041.728,-0.447,0.977
0.992000,805363,1000.00,12,0,1,1291.447,1.854,6.923,1042.185,0.391,0.970
0.993000,805364,1000.00,12,0,1,1290.366,3.823,6.940,1042.737,0.421,0.947
0.994000,805365,1000.00,12,0,1,1290.078,0.534,6.888,1041.993,-0.044,0.944
0.995000,805366,1000.00,12,0,1,1292.096,2.854,6.783,1041.849,-0.701,0.947
0.996000,805367,1000.00,12,0,1,1292.648,1.351,6.741,1042.473,-0.055,0.945
0.997000,805368,1000.00,12,0,1,1295.651,2.100,6.662,1041.512,-0.803,0.950
0.998000,805369,1000.00,12,0,1,1298.389,2.931,6.628,1041.272,-1.381,0.951
0.999000,805370,1000.00,12,0,1,1298.269,0.501,6.626,1040.648,-1.415,0.947
1.000000,805371,1000.00,12,0,1,1294.018,-4.525,6.655,1042.906,0.016,0.947
1.001000,805372,1000.00,12,0,1,1293.177,-7.385,6.735,1042.713,0.889,0.931
1.002000,805373,1000.00,12,0,1,1290.126,-8.652,6.818,1041.825,-0.739,0.918
1.003000,805374,1000.00,12,0,1,1287.700,-11.172,6.941,1041.753,-0.356,0.908
1.004000,805375,1000.00,12,0,1,1290.895,-6.547,6.945,1042.569,0.184,0.895
1.005000,805376,1000.00,12,0,1,1292.793,-2.688,6.939,1043.650,1.330,0.907
1.006000,805377,1000.00,12,0,1,1288.445,-4.483,6.968,1042.233,0.280,0.907
1.007000,805378,1000.00,12,0,1,1287.364,-4.416,6.934,1043.962,0.912,0.906
1.008000,805379,1000.00,12,0,1,1291.856,1.877,6.802,1041.200,-0.168,0.902
1.009000,805380,1000.00,12,0,1,1292.144,4.548,6.712,1042.906,-0.564,0.889
1.010000,805381,1000.00,12,0,1,1284.121,-1.254,6.686,1042.641,1.123,0.890
1.011000,805382,1000.00,12,0,1,1280.614,-4.132,6.711,1040.383,-2.073,0.906
1.012000,805383,1000.00,12,0,1,1281.143,-1.492,6.714,1040.551,-1.474,0.925
1.013000,805384,1000.00,12,0,1,1290.799,6.607,6.772,1041.440,-0.504,0.920
1.014000,805385,1000.00,12,0,1,1295.579,12.303,6.989,1042.401,0.337,0.921
1.015000,805386,1000.00,12,0,1,1291.736,6.375,7.043,1040.936,-0.514,0.921
1.016000,805387,1000.00,12,0,1,1286.211,-0.423,7.039,1041.704,-0.732,0.927
1.017000,805388,1000.00,12,0,1,1288.301,-0.925,7.021,1041.344,-0.029,0.902
1.018000,805389,1000.00,12,0,1,1297.957,6.294,7.060,1040.479,-1.512,0.895
1.019000,805390,1000.00,12,0,1,1298.846,6.617,7.121,1043.122,0.959,0.896
1.020000,805391,1000.00,12,0,1,1296.252,0.608,7.119,1043.482,1.695,0.921
1.021000,805392,1000.00,12,0,1,1295.579,-0.974,7.120,1041.440,-0.522,0.924
1.022000,805393,1000.00,12,0,1,1291.327,-5.298,7.136,1042.113,-0.264,0.922
1.023000,805394,1000.00,12,0,1,1288.085,-8.329,7.230,1041.921,0.149,0.919
1.024000,805395,1000.00,12,0,1,1288.973,-6.394,7.251,1042.065,-0.109,0.884
1.025000,805396,1000.00,12,0,1,1289.165,-4.153,7.206,1043.962,1.699,0.916
1.026000,805397,1000.00,12,0,1,1287.604,-3.839,7.177,1044.731,2.437,0.962
1.027000,805398,1000.00,12,0,1,1283.881,-4.880,7.113,1042.641,0.449,0.957
1.028000,805399,1000.00,12,0,1,1284.001,-3.300,7.090,1040.960,-1.407,0.967
1.029000,805400,1000.00,12,0,1,1278.885,-4.070,7.090,1042.161,-0.354,0.967
1.030000,805401,1000.00,12,0,1,1278.476,-4.164,6.928,1042.641,0.592,0.970
1.031000,805402,1000.00,12,0,1,1286.283,5.130,6.798,1042.425,0.107,0.950
1.032000,805403,1000.00,12,0,1,1285.755,6.520,6.705,1043.194,0.735,0.915
1.033000,805404,1000.00,12,0,1,1281.311,1.281,5.958,1043.290,0.800,0.922
1.034000,805405,1000.00,12,0,1,1281.143,0.845,5.272,1041.945,-0.521,0.925
1.035000,805406,1000.00,12,0,1,1281.287,0.693,5.269,1041.512,-1.196,0.929
1.036000,805407,1000.00,12,0,1,1282.055,0.482,5.087,1043.122,0.202,0.920
1.037000,805408,1000.00,12,0,1,1284.986,1.921,5.008,1043.458,0.736,0.901
1.038000,805409,1000.00,12,0,1,1284.722,1.089,5.010,1041.825,-0.934,0.909
1.039000,805410,1000.00,12,0,1,1285.250,-0.482,4.969,1042.617,-0.654,0.914
1.040000,805411,1000.00,12,0,1,1294.306,5.857,4.852,1042.401,-0.247,0.914
1.041000,805412,1000.00,12,0,1,1302.785,12.607,5.063,1043.434,0.033,0.912
1.042000,805413,1000.00,12,0,1,1307.325,13.862,5.423,1042.377,-0.122,0.910
1.043000,805414,1000.00,12,0,1,1307.445,11.790,5.647,1040.864,-2.002,0.952
1.044000,805415,1000.00,12,0,1,1304.130,6.516,5.722,1042.257,-0.537,0.955
1.045000,805416,1000.00,12,0,1,1304.322,4.872,5.749,1043.410,0.939,0.959
1.046000,805417,1000.00,12,0,1,1299.302,1.344,5.749,1042.425,0.098,0.959
1.047000,805418,1000.00,12,0,1,1293.513,-4.567,5.777,1042.161,-0.292,0.953
1.048000,805419,1000.00,12,0,1,1292.865,-3.696,5.786,1040.888,-1.001,0.943
1.049000,805420,1000.00,12,0,1,1293.009,-1.882,5.792,1042.401,-0.079,0.922
1.050000,805421,1000.00,12,0,1,1289.718,-3.148,5.773,1041.969,0.486,0.924
1.051000,805422,1000.00,12,0,1,1287.364,-4.572,5.715,1041.344,-0.692,0.921
1.052000,805423,1000.00,12,0,1,1288.757,-2.429,5.593,1040.720,-0.732,0.921
1.053000,805424,1000.00,12,0,1,1286.932,-2.757,5.379,1040.095,-1.358,0.939
1.054000,805425,1000.00,12,0,1,1287.724,-3.149,5.318,1041.777,0.100,0.939
1.055000,805426,1000.00,12,0,1,1288.349,-1.914,5.311,1042.353,1.124,0.934
1.056000,805427,1000.00,12,0,1,1286.403,-4.742,5.315,1041.080,-0.354,0.934
1.057000,805428,1000.00,12,0,1,1286.499,-5.535,5.336,1043.074,0.984,0.936
1.058000,805429,1000.00,12,0,1,1286.523,-5.801,5.393,1044.107,2.258,0.988
1.059000,805430,1000.00,12,0,1,1286.859,-6.284,5.427,1042.954,0.747,0.991
1.060000,805431,1000.00,12,0,1,1291.303,-2.938,5.440,1042.473,-0.046,0.978
1.061000,805432,1000.00,12,0,1,1292.168,-1.641,5.414,1042.713,0.157,0.933
1.062000,805433,1000.00,12,0,1,1290.919,-3.518,5.433,1043.266,0.524,0.913
1.063000,805434,1000.00,12,0,1,1286.787,-6.093,5.421,1043.122,0.513,0.913
1.064000,805435,1000.00,12,0,1,1287.508,-5.422,5.191,1041.392,-1.009,0.923
1.065000,805436,1000.00,12,0,1,1292.817,1.421,5.116,1042.809,-0.152,0.920
1.066000,805437,1000.00,12,0,1,1290.342,1.582,5.120,1043.002,0.848,0.922
1.067000,805438,1000.00,12,0,1,1297.789,6.712,5.206,1043.314,0.504,0.925
1.068000,805439,1000.00,12,0,1,1297.909,10.905,5.356,1043.026,0.698,0.905
1.069000,805440,1000.00,12,0,1,1293.609,4.795,5.317,1043.002,0.227,0.896
1.070000,805441,1000.00,12,0,1,1293.609,5.815,5.380,1043.002,0.420,0.865
1.071000,805442,1000.00,12,0,1,1293.609,5.765,5.439,1043.002,0.227,0.862
1.072000,805443,1000.00,12,0,1,1307.805,15.751,5.830,1042.353,-0.299,0.863
1.073000,805444,1000.00,12,0,1,1297.717,10.501,5.900,1041.632,-1.022,0.874
1.074000,805445,1000.00,12,0,1,1289.814,-4.443,5.864,1042.473,-0.441,0.876
1.075000,805446,1000.00,12,0,1,1281.887,-7.787,5.937,1043.794,0.912,0.853
1.076000,805447,1000.00,12,0,1,1280.470,-12.712,6.179,1044.635,1.344,0.803
1.077000,805448,1000.00,12,0,1,1292.408,-0.725,6.142,1041.704,-0.965,0.812
1.078000,805449,1000.00,12,0,1,1291.784,0.048,6.124,1042.809,-1.226,0.806
1.079000,805450,1000.00,12,0,1,1288.277,-6.455,6.165,1042.233,-0.367,0.806
1.080000,805451,1000.00,12,0,1,1290.222,-4.315,6.167,1042.497,-1.213,0.820
1.081000,805452,1000.00,12,0,1,1295.795,-0.815,6.125,1043.098,0.167,0.820
1.082000,805453,1000.00,12,0,1,1303.097,5.826,6.111,1043.074,-0.193,0.814
1.083000,805454,1000.00,12,0,1,1301.752,4.102,6.136,1046.004,2.096,0.859
1.084000,805455,1000.00,12,0,1,1296.948,-1.373,6.138,1043.770,1.054,0.869
1.085000,805456,1000.00,12,0,1,1294.066,-3.758,6.160,1040.672,-2.876,0.944
1.086000,805457,1000.00,12,0,1,1288.589,-6.756,6.233,1042.113,-1.111,0.957
1.087000,805458,1000.00,12,0,1,1284.602,-8.925,6.354,1042.305,-0.319,0.952
1.088000,805459,1000.00,12,0,1,1282.416,-7.682,6.444,1042.209,-0.476,0.945
1.089000,805460,1000.00,12,0,1,1284.361,-3.875,6.467,1040.287,-1.548,0.966
1.090000,805461,1000.00,12,0,1,1282.584,-1.858,6.419,1039.398,-2.559,1.031
1.091000,805462,1000.00,12,0,1,1277.251,-5.235,6.211,1041.200,-0.442,1.033
1.092000,805463,1000.00,12,0,1,1273.096,-6.930,5.975,1042.906,1.387,1.051
1.093000,805464,1000.00,12,0,1,1275.161,-3.877,5.763,1041.921,0.671,1.017
1.094000,805465,1000.00,12,0,1,1283.328,4.424,5.723,1041.104,-0.491,1.016
1.095000,805466,1000.00,12,0,1,1289.045,9.823,5.849,1041.248,-0.259,1.008
1.096000,805467,1000.00,12,0,1,1284.962,5.076,5.890,1040.215,-0.960,1.017
1.097000,805468,1000.00,12,0,1,1284.361,1.408,5.858,1041.008,-0.615,1.020
1.098000,805469,1000.00,12,0,1,1283.208,0.258,5.835,1042.305,0.988,1.020
1.099000,805470,1000.00,12,0,1,1287.460,1.238,5.831,1043.266,1.507,1.042
1.100000,805471,1000.00,12,0,1,1286.259,1.164,5.817,1043.842,1.949,1.075
1.101000,805472,1000.00,12,0,1,1291.616,2.270,5.789,1042.113,0.318,1.072
1.102000,805473,1000.00,12,0,1,1298.317,9.117,5.921,1041.008,-1.089,1.078
1.103000,805474,1000.00,12,0,1,1297.453,6.822,5.987,1042.593,0.395,1.062
1.104000,805475,1000.00,12,0,1,1295.483,3.608,5.992,1044.251,2.074,1.102
1.105000,805476,1000.00,12,0,1,1295.099,3.199,6.003,1042.978,1.056,1.100
1.106000,805477,1000.00,12,0,1,1301.056,7.468,6.058,1041.608,-0.598,1.102
1.107000,805478,1000.00,12,0,1,1302.016,10.107,6.175,1041.512,-0.488,1.096
1.108000,805479,1000.00,12,0,1,1295.171,2.967,6.135,1043.890,1.439,1.068
1.109000,805480,1000.00,12,0,1,1290.727,-0.853,6.071,1040.864,-0.195,1.063
1.110000,805481,1000.00,12,0,1,1289.526,-1.101,6.059,1039.591,-2.546,1.122
1.111000,805482,1000.00,12,0,1,1290.583,0.687,6.055,1041.440,-0.009,1.122
1.112000,805483,1000.00,12,0,1,1288.349,-0.192,6.035,1040.672,-0.372,1.121
1.113000,805484,1000.00,12,0,1,1287.292,-1.823,5.978,1041.176,-0.389,1.120
1.114000,805485,1000.00,12,0,1,1286.331,-2.105,5.937,1041.680,0.586,1.114
1.115000,805486,1000.00,12,0,1,1287.460,-2.229,5.941,1043.050,1.125,1.125
1.116000,805487,1000.00,12,0,1,1291.856,1.015,5.939,1042.761,1.293,1.133
1.117000,805488,1000.00,12,0,1,1292.985,1.111,5.865,1041.801,-0.350,1.132
1.118000,805489,1000.00,12,0,1,1293.729,-0.590,5.659,1044.491,1.660,1.152
1.119000,805490,1000.00,12,0,1,1294.810,-0.917,5.620,1041.680,0.010,1.152
1.120000,805491,1000.00,12,0,1,1298.798,0.401,5.559,1042.857,-0.784,1.155
1.121000,805492,1000.00,12,0,1,1302.977,3.197,5.518,1042.857,0.810,1.161
1.122000,805493,1000.00,12,0,1,1293.345,-5.226,5.102,1041.272,-1.609,1.182
1.123000,805494,1000.00,12,0,1,1290.559,-10.517,5.103,1043.722,0.680,1.177
1.124000,805495,1000.00,12,0,1,1293.201,-5.244,5.118,1043.218,0.982,1.183
1.125000,805496,1000.00,12,0,1,1290.847,-5.986,5.069,1043.170,0.022,1.176
1.126000,805497,1000.00,12,0,1,1287.892,-6.884,4.839,1041.296,-0.628,1.164
1.127000,805498,1000.00,12,0,1,1285.370,-6.595,4.927,1041.512,-1.367,1.172
1.128000,805499,1000.00,12,0,1,1285.130,-4.671,4.971,1043.098,1.013,1.168
1.129000,805500,1000.00,12,0,1,1286.163,-0.944,4.888,1041.512,-0.341,1.168
1.130000,805501,1000.00,12,0,1,1281.599,-2.508,4.863,1041.440,-0.769,1.161
1.131000,805502,1000.00,12,0,1,1280.134,-3.086,4.881,1042.930,0.888,1.167
1.132000,805503,1000.00,12,0,1,1285.178,2.880,4.828,1043.530,1.312,1.181
1.133000,805504,1000.00,12,0,1,1287.292,5.915,4.866,1042.065,0.041,1.144
1.134000,805505,1000.00,12,0,1,1287.364,4.846,4.910,1040.960,-1.424,1.152
1.135000,805506,1000.00,12,0,1,1287.964,4.427,4.921,1042.209,-0.313,1.078
1.136000,805507,1000.00,12,0,1,1291.976,5.844,4.898,1041.945,-0.207,1.067
1.137000,805508,1000.00,12,0,1,1291.976,5.004,4.785,1041.993,-0.629,1.070
1.138000,805509,1000.00,12,0,1,1294.522,3.700,4.689,1042.233,-0.172,1.068
1.139000,805510,1000.00,12,0,1,1302.257,8.721,4.818,1043.962,0.900,1.053
1.140000,805511,1000.00,12,0,1,1298.894,4.757,4.857,1041.656,-0.399,0.991
1.141000,805512,1000.00,12,0,1,1295.171,-2.346,4.812,1040.287,-2.556,1.053
1.142000,805513,1000.00,12,0,1,1290.415,-5.796,4.782,1040.431,-1.585,1.058
1.143000,805514,1000.00,12,0,1,1285.995,-10.316,4.969,1042.785,0.306,1.055
1.144000,805515,1000.00,12,0,1,1282.512,-10.975,5.168,1042.089,0.674,1.057
1.145000,805516,1000.00,12,0,1,1286.259,-6.551,5.064,1041.993,-0.153,1.057
1.146000,805517,1000.00,12,0,1,1290.102,0.411,5.013,1042.353,0.739,1.053
1.147000,805518,1000.00,12,0,1,1289.574,1.384,5.013,1040.407,-0.801,1.055
1.148000,805519,1000.00,12,0,1,1290.342,2.976,5.030,1040.960,-0.724,1.051
1.149000,805520,1000.00,12,0,1,1290.150,4.425,5.066,1041.176,0.413,1.031
1.150000,805521,1000.00,12,0,1,1289.646,4.039,5.095,1041.512,0.203,0.994
1.151000,805522,1000.00,12,0,1,1292.841,7.015,5.181,1042.353,1.357,1.011
1.152000,805523,1000.00,12,0,1,1288.036,3.650,5.045,1043.842,2.149,1.045
1.153000,805524,1000.00,12,0,1,1284.049,-1.838,4.958,1043.362,1.915,1.078
1.154000,805525,1000.00,12,0,1,1280.398,-4.168,4.967,1041.801,-0.165,1.037
1.155000,805526,1000.00,12,0,1,1277.491,-7.387,5.056,1042.617,0.199,1.027
1.156000,805527,1000.00,12,0,1,1280.590,-4.719,4.989,1043.170,0.858,1.031
1.157000,805528,1000.00,12,0,1,1289.213,2.582,4.794,1043.314,0.507,1.031
1.158000,805529,1000.00,12,0,1,1293.105,5.635,4.841,1043.938,0.915,1.019
1.159000,805530,1000.00,12,0,1,1294.426,4.320,4.878,1044.227,0.887,1.026
1.160000,805531,1000.00,12,0,1,1297.068,4.682,4.920,1043.554,0.161,0.961
1.161000,805532,1000.00,12,0,1,1296.348,2.948,4.937,1042.881,-0.708,0.966
1.162000,805533,1000.00,12,0,1,1292.432,-1.944,4.945,1042.785,-0.745,0.971
1.163000,805534,1000.00,12,0,1,1291.375,-3.343,4.961,1042.641,-0.735,0.975
1.164000,805535,1000.00,12,0,1,1298.341,2.582,4.965,1041.753,-1.288,0.988
1.165000,805536,1000.00,12,0,1,1298.582,4.979,5.005,1042.641,-0.597,0.979
1.166000,805537,1000.00,12,0,1,1287.964,-4.392,5.041,1043.002,0.307,0.962
1.167000,805538,1000.00,12,0,1,1280.998,-9.906,5.230,1043.146,0.216,0.962
1.168000,805539,1000.00,12,0,1,1282.920,-5.840,5.294,1043.026,0.333,0.934
1.169000,805540,1000.00,12,0,1,1282.728,-2.555,5.305,1040.744,-1.502,0.958
1.170000,805541,1000.00,12,0,1,1276.915,-5.700,5.365,1041.368,-1.406,0.972
1.171000,805542,1000.00,12,0,1,1276.362,-5.248,5.397,1041.801,-0.119,0.965
1.172000,805543,1000.00,12,0,1,1282.175,1.732,5.352,1043.338,0.621,0.942
1.173000,805544,1000.00,12,0,1,1292.048,10.335,5.345,1041.656,-0.004,0.937
1.174000,805545,1000.00,12,0,1,1295.627,13.327,5.619,1042.833,-0.295,0.928
1.175000,805546,1000.00,12,0,1,1292.144,7.262,5.649,1044.323,1.871,0.965
1.176000,805547,1000.00,12,0,1,1290.895,3.194,5.583,1041.801,-0.699,0.966
1.177000,805548,1000.00,12,0,1,1295.579,4.886,5.548,1040.768,-2.148,0.994
1.178000,805549,1000.00,12,0,1,1294.858,3.222,5.527,1041.584,-0.973,0.993
1.179000,805550,1000.00,12,0,1,1295.507,0.362,5.526,1042.209,-0.388,0.993
1.180000,805551,1000.00,12,0,1,1298.389,1.981,5.521,1039.591,-2.000,1.027
1.181000,805552,1000.00,12,0,1,1298.750,0.952,5.506,1040.239,-2.166,1.064
1.182000,805553,1000.00,12,0,1,1296.011,-2.224,5.500,1041.440,0.194,1.048
1.183000,805554,1000.00,12,0,1,1293.849,-4.486,5.472,1042.233,0.549,1.051
1.184000,805555,1000.00,12,0,1,1287.316,-8.630,5.565,1042.017,0.900,1.040
1.185000,805556,1000.00,12,0,1,1278.764,-14.602,5.903,1044.010,2.005,1.077
1.186000,805557,1000.00,12,0,1,1279.077,-12.137,6.091,1043.554,2.299,1.124
1.187000,805558,1000.00,12,0,1,1279.966,-6.620,6.122,1044.947,2.307,1.167
1.188000,805559,1000.00,12,0,1,1277.179,-6.505,6.169,1043.098,1.515,1.187
1.189000,805560,1000.00,12,0,1,1275.882,-5.013,6.085,1040.720,-1.630,1.202
1.190000,805561,1000.00,12,0,1,1273.768,-4.190,6.077,1040.984,-1.118,1.211
1.191000,805562,1000.00,12,0,1,1278.644,0.795,6.069,1042.593,0.470,1.158
1.192000,805563,1000.00,12,0,1,1292.841,13.981,6.330,1040.263,-1.048,1.145
1.193000,805564,1000.00,12,0,1,1307.277,25.428,7.133,1042.257,-0.302,1.145
1.194000,805565,1000.00,12,0,1,1303.818,20.320,7.531,1042.881,1.384,1.158
1.195000,805566,1000.00,12,0,1,1295.291,6.604,7.532,1041.080,-0.861,1.164
1.196000,805567,1000.00,12,0,1,1293.705,2.154,7.538,1041.368,-0.807,1.165
1.197000,805568,1000.00,12,0,1,1289.454,-2.865,7.547,1040.359,-1.099,1.170
1.198000,805569,1000.00,12,0,1,1288.661,-6.091,7.584,1042.329,-0.207,1.166
1.199000,805570,1000.00,12,0,1,1291.976,-3.075,7.571,1043.146,1.582,1.186
1.200000,805571,1000.00,12,0,1,1291.135,-3.926,7.569,1042.329,0.021,1.185
1.201000,805572,1000.00,12,0,1,1294.186,-2.333,7.511,1041.656,-0.294,1.171
1.202000,805573,1000.00,12,0,1,1296.107,0.528,7.494,1040.696,-1.262,1.144
1.203000,805574,1000.00,12,0,1,1298.533,1.813,7.494,1041.368,-0.606,1.115
1.204000,805575,1000.00,12,0,1,1297.381,2.061,7.476,1042.906,1.040,1.125
1.205000,805576,1000.00,12,0,1,1294.138,-1.094,7.405,1041.080,-0.170,1.124
1.206000,805577,1000.00,12,0,1,1284.289,-7.511,7.451,1041.344,-0.571,1.121
1.207000,805578,1000.00,12,0,1,1280.662,-10.551,7.590,1042.954,1.424,1.137
1.208000,805579,1000.00,12,0,1,1284.289,-3.951,7.568,1043.146,1.516,1.149
1.209000,805580,1000.00,12,0,1,1286.571,0.287,7.544,1044.083,1.931,1.175
1.210000,805581,1000.00,12,0,1,1287.964,2.300,7.522,1044.179,2.075,1.211
1.211000,805582,1000.00,12,0,1,1295.747,8.687,7.610,1043.674,1.027,1.215
1.212000,805583,1000.00,12,0,1,1301.824,13.762,7.850,1043.266,0.549,1.213
1.213000,805584,1000.00,12,0,1,1296.348,7.402,7.905,1041.801,-0.890,1.215
1.214000,805585,1000.00,12,0,1,1292.817,0.373,7.897,1042.833,-0.424,1.203
1.215000,805586,1000.00,12,0,1,1289.742,-2.575,7.874,1042.377,-0.203,1.200
1.216000,805587,1000.00,12,0,1,1289.286,-5.286,7.885,1042.329,-0.902,1.206
1.217000,805588,1000.00,12,0,1,1288.060,-5.799,7.803,1041.008,-1.427,1.223
1.218000,805589,1000.00,12,0,1,1293.105,-3.398,7.774,1040.600,-2.245,1.262
1.219000,805590,1000.00,12,0,1,1309.487,10.259,7.900,1042.497,-0.201,1.245
1.220000,805591,1000.00,12,0,1,1317.726,17.127,8.223,1041.680,-0.379,1.230
1.221000,805592,1000.00,12,0,1,1312.514,9.127,8.291,1041.248,-1.288,1.243
1.222000,805593,1000.00,12,0,1,1302.881,-1.703,8.291,1044.875,1.955,1.270
1.223000,805594,1000.00,12,0,1,1301.944,-4.439,8.185,1041.632,0.131,1.271
1.224000,805595,1000.00,12,0,1,1301.848,-2.440,7.973,1040.479,-2.420,1.315
1.225000,805596,1000.00,12,0,1,1296.852,-6.157,7.954,1042.089,0.102,1.288
1.226000,805597,1000.00,12,0,1,1294.450,-7.103,8.005,1044.083,1.554,1.303
1.227000,805598,1000.00,12,0,1,1292.961,-5.993,8.020,1040.551,-0.641,1.271
1.228000,805599,1000.00,12,0,1,1288.805,-7.543,8.077,1041.248,-1.445,1.279
1.229000,805600,1000.00,12,0,1,1282.776,-10.590,8.215,1042.161,0.809,1.283
1.230000,805601,1000.00,12,0,1,1285.658,-7.090,8.271,1041.488,-0.270,1.252
1.231000,805602,1000.00,12,0,1,1287.748,-1.854,8.274,1040.576,-0.791,1.220
1.232000,805603,1000.00,12,0,1,1291.928,1.003,8.269,1040.648,-0.729,1.224
1.233000,805604,1000.00,12,0,1,1294.546,4.329,8.268,1040.912,-0.301,1.222
1.234000,805605,1000.00,12,0,1,1293.537,1.773,8.181,1041.368,0.264,1.216
1.235000,805606,1000.00,12,0,1,1293.609,0.384,7.916,1042.137,0.766,1.187
1.236000,805607,1000.00,12,0,1,1292.817,-1.210,7.730,1042.665,1.349,1.158
1.237000,805608,1000.00,12,0,1,1295.195,-1.065,7.674,1041.152,-0.142,1.111
1.238000,805609,1000.00,12,0,1,1300.623,3.108,7.632,1040.768,-0.792,1.096
1.239000,805610,1000.00,12,0,1,1298.269,0.580,7.599,1043.290,1.296,1.087
1.240000,805611,1000.00,12,0,1,1292.576,-5.806,7.620,1042.449,1.173,1.088
1.241000,805612,1000.00,12,0,1,1291.087,-7.064,7.685,1042.665,0.254,1.087
1.242000,805613,1000.00,12,0,1,1294.330,-3.099,7.439,1040.792,-0.477,1.079
1.243000,805614,1000.00,12,0,1,1297.381,1.155,6.514,1040.720,-1.523,1.099
1.244000,805615,1000.00,12,0,1,1293.273,-0.709,5.847,1040.720,-0.472,1.084
1.245000,805616,1000.00,12,0,1,1297.188,1.945,5.778,1043.098,0.945,1.085
1.246000,805617,1000.00,12,0,1,1303.530,10.148,5.946,1044.443,2.860,1.152
1.247000,805618,1000.00,12,0,1,1296.516,4.891,5.972,1040.696,-0.574,1.145
1.248000,805619,1000.00,12,0,1,1291.688,-0.755,5.911,1040.720,-1.534,1.165
1.249000,805620,1000.00,12,0,1,1287.004,-2.524,5.906,1042.641,1.131,1.154
1.250000,805621,1000.00,12,0,1,1282.800,-6.088,5.942,1041.032,-0.317,1.155
1.251000,805622,1000.00,12,0,1,1282.296,-4.833,5.972,1041.777,-0.114,1.154
1.252000,805623,1000.00,12,0,1,1285.514,-1.423,5.975,1043.002,1.372,1.157
1.253000,805624,1000.00,12,0,1,1290.006,3.002,5.985,1042.881,1.014,1.162
1.254000,805625,1000.00,12,0,1,1295.699,6.860,6.056,1044.059,1.583,1.175
1.255000,805626,1000.00,12,0,1,1293.561,4.379,6.086,1042.353,0.416,1.176
1.256000,805627,1000.00,12,0,1,1293.801,1.072,5.994,1040.551,-1.972,1.206
1.257000,805628,1000.00,12,0,1,1295.291,1.820,5.811,1041.008,-1.300,1.203
1.258000,805629,1000.00,12,0,1,1295.147,-0.131,5.784,1041.008,-1.030,1.193
1.259000,805630,1000.00,12,0,1,1293.105,-2.666,5.796,1041.368,-0.748,1.166
1.260000,805631,1000.00,12,0,1,1295.363,-1.885,5.793,1044.131,1.582,1.150
1.261000,805632,1000.00,12,0,1,1299.903,2.412,5.672,1042.857,1.050,1.151
1.262000,805633,1000.00,12,0,1,1296.948,0.603,5.328,1042.809,-0.145,1.148
1.263000,805634,1000.00,12,0,1,1294.666,-2.413,5.235,1042.041,-0.055,1.141
1.264000,805635,1000.00,12,0,1,1291.832,-2.726,5.249,1040.503,-1.856,1.170
1.265000,805636,1000.00,12,0,1,1291.904,-2.395,5.248,1041.801,-0.611,1.172
1.266000,805637,1000.00,12,0,1,1288.805,-1.904,5.201,1041.777,0.057,1.165
1.267000,805638,1000.00,12,0,1,1287.676,-2.609,5.149,1041.680,-0.427,1.149
1.268000,805639,1000.00,12,0,1,1284.577,-2.192,5.136,1041.801,0.141,1.105
1.269000,805640,1000.00,12,0,1,1291.015,2.699,4.942,1041.993,0.087,1.105
1.270000,805641,1000.00,12,0,1,1294.162,8.498,4.472,1041.608,0.066,1.103
1.271000,805642,1000.00,12,0,1,1289.454,2.976,4.302,1040.359,-1.103,1.099
1.272000,805643,1000.00,12,0,1,1282.752,-3.332,4.321,1040.071,-1.293,1.080
1.273000,805644,1000.00,12,0,1,1278.692,-7.289,4.398,1042.377,0.733,1.084
1.274000,805645,1000.00,12,0,1,1280.110,-6.112,4.469,1043.674,2.229,1.076
1.275000,805646,1000.00,12,0,1,1284.698,-1.483,4.388,1042.329,0.758,1.081
1.276000,805647,1000.00,12,0,1,1289.093,1.631,4.278,1041.993,-0.078,1.059
1.277000,805648,1000.00,12,0,1,1293.081,4.231,4.236,1042.329,0.339,1.056
1.278000,805649,1000.00,12,0,1,1299.831,7.810,4.245,1042.449,0.244,1.037
1.279000,805650,1000.00,12,0,1,1303.698,10.133,4.223,1040.720,-1.035,1.041
1.280000,805651,1000.00,12,0,1,1299.735,4.459,4.150,1042.833,0.040,1.040
1.281000,805652,1000.00,12,0,1,1300.023,2.162,4.153,1042.641,0.999,1.044
1.282000,805653,1000.00,12,0,1,1300.936,3.276,4.177,1041.392,-0.975,1.048
1.283000,805654,1000.00,12,0,1,1294.738,-2.047,4.142,1041.272,-0.691,1.051
1.284000,805655,1000.00,12,0,1,1284.890,-9.956,4.367,1040.527,-1.182,1.064
1.285000,805656,1000.00,12,0,1,1278.909,-13.364,4.758,1040.600,-1.090,1.070
1.286000,805657,1000.00,12,0,1,1275.185,-12.835,5.090,1040.696,-0.489,1.055
1.287000,805658,1000.00,12,0,1,1277.371,-8.054,5.214,1040.600,-0.577,1.058
1.288000,805659,1000.00,12,0,1,1282.320,-0.066,5.195,1041.993,0.782,1.057
1.289000,805660,1000.00,12,0,1,1281.719,1.754,5.200,1042.161,1.175,1.055
1.290000,805661,1000.00,12,0,1,1283.256,2.956,5.152,1041.488,0.351,1.043
1.291000,805662,1000.00,12,0,1,1286.643,6.763,5.144,1040.792,-0.284,1.043
1.292000,805663,1000.00,12,0,1,1287.916,6.957,5.219,1041.392,0.090,1.041
1.293000,805664,1000.00,12,0,1,1290.943,7.814,5.332,1040.479,-0.309,1.019
1.294000,805665,1000.00,12,0,1,1291.375,6.801,5.417,1041.032,-0.339,1.018
1.295000,805666,1000.00,12,0,1,1289.646,2.656,5.423,1043.242,1.839,1.042
1.296000,805667,1000.00,12,0,1,1292.192,2.479,5.242,1042.930,1.615,0.987
1.297000,805668,1000.00,12,0,1,1297.284,5.296,5.249,1042.521,0.567,0.987
1.298000,805669,1000.00,12,0,1,1296.828,3.537,5.272,1043.794,1.532,0.987
1.299000,805670,1000.00,12,0,1,1292.480,-2.281,5.270,1042.785,0.710,0.979
1.300000,805671,1000.00,12,0,1,1292.048,-3.826,5.227,1041.921,-0.626,0.982
1.301000,805672,1000.00,12,0,1,1285.250,-8.002,5.304,1042.401,-0.116,0.982
1.302000,805673,1000.00,12,0,1,1275.570,-16.037,5.765,1042.281,-0.103,0.963
1.303000,805674,1000.00,12,0,1,1270.718,-17.200,6.243,1041.488,-0.809,0.959
1.304000,805675,1000.00,12,0,1,1267.114,-15.989,6.569,1042.281,-0.211,0.933
1.305000,805676,1000.00,12,0,1,1260.389,-17.021,6.968,1042.954,0.690,0.936
1.306000,805677,1000.00,12,0,1,1255.993,-16.566,7.350,1043.770,1.151,0.909
1.307000,805678,1000.00,12,0,1,1255.849,-11.651,7.528,1041.272,-0.606,0.894
1.308000,805679,1000.00,12,0,1,1259.068,-4.624,7.557,1041.008,-1.677,0.913
1.309000,805680,1000.00,12,0,1,1269.949,7.132,7.614,1043.314,0.922,0.916
1.310000,805681,1000.00,12,0,1,1282.440,19.620,8.100,1042.833,0.721,0.895
1.311000,805682,1000.00,12,0,1,1301.272,32.746,9.324,1040.455,-1.646,0.912
1.312000,805683,1000.00,12,0,1,1309.655,37.931,10.757,1041.680,-0.890,0.921
1.313000,805684,1000.00,12,0,1,1318.519,36.236,11.910,1040.768,-0.791,0.928
1.314000,805685,1000.00,12,0,1,1320.729,33.247,12.799,1041.080,-1.224,0.906
1.315000,805686,1000.00,12,0,1,1312.538,17.739,13.038,1042.137,0.336,0.903
1.316000,805687,1000.00,12,0,1,1305.524,5.453,13.058,1041.993,0.070,0.903
1.317000,805688,1000.00,12,0,1,1306.917,2.425,13.057,1042.305,0.167,0.902
1.318000,805689,1000.00,12,0,1,1305.163,-0.470,13.054,1041.753,-0.091,0.902
1.319000,805690,1000.00,12,0,1,1303.001,-4.727,13.065,1042.113,-0.223,0.902
1.320000,805691,1000.00,12,0,1,1303.194,-5.018,13.029,1040.864,-0.672,0.907
1.321000,805692,1000.00,12,0,1,1303.914,-4.117,13.035,1039.447,-2.301,0.951
1.322000,805693,1000.00,12,0,1,1302.161,-5.076,13.047,1043.242,1.021,0.944
1.323000,805694,1000.00,12,0,1,1299.831,-6.291,13.036,1043.530,2.308,0.994
1.324000,805695,1000.00,12,0,1,1299.903,-5.396,13.030,1041.152,-0.579,0.946
1.325000,805696,1000.00,12,0,1,1296.780,-5.891,13.055,1042.089,0.096,0.940
1.326000,805697,1000.00,12,0,1,1289.526,-11.203,13.149,1041.921,0.505,0.943
1.327000,805698,1000.00,12,0,1,1286.379,-12.534,13.254,1040.960,-0.650,0.946
1.328000,805699,1000.00,12,0,1,1285.851,-10.642,13.293,1041.272,-0.217,0.946
1.329000,805700,1000.00,12,0,1,1283.376,-10.823,13.304,1041.777,0.343,0.936
1.330000,805701,1000.00,12,0,1,1283.617,-9.856,13.362,1041.440,0.168,0.936
1.331000,805702,1000.00,12,0,1,1288.901,-4.326,13.373,1041.152,-0.215,0.926
1.332000,805703,1000.00,12,0,1,1287.724,-4.148,13.378,1042.641,0.944,0.925
1.333000,805704,1000.00,12,0,1,1287.460,-6.134,13.402,1042.761,1.314,0.938
1.334000,805705,1000.00,12,0,1,1290.366,-3.326,13.337,1042.233,0.330,0.924
1.335000,805706,1000.00,12,0,1,1290.222,-3.769,13.213,1042.089,0.158,0.912
1.336000,805707,1000.00,12,0,1,1289.262,-5.263,13.109,1042.041,-0.052,0.909
1.337000,805708,1000.00,12,0,1,1285.730,-7.676,13.104,1041.801,-0.268,0.906
1.338000,805709,1000.00,12,0,1,1290.054,-4.684,13.121,1042.881,0.428,0.902
1.339000,805710,1000.00,12,0,1,1294.930,2.129,13.122,1044.923,2.178,0.938
1.340000,805711,1000.00,12,0,1,1296.612,3.453,13.124,1043.578,1.126,0.950
1.341000,805712,1000.00,12,0,1,1295.555,3.579,13.099,1042.065,-0.977,0.959
1.342000,805713,1000.00,12,0,1,1291.087,0.338,13.062,1042.521,-0.445,0.961
1.343000,805714,1000.00,12,0,1,1290.415,0.343,13.016,1040.576,-1.686,0.990
1.344000,805715,1000.00,12,0,1,1290.583,2.799,12.986,1041.921,-1.114,1.001
1.345000,805716,1000.00,12,0,1,1288.181,1.872,12.983,1041.608,-0.119,0.967
1.346000,805717,1000.00,12,0,1,1291.928,5.511,13.002,1041.032,-1.278,0.957
1.347000,805718,1000.00,12,0,1,1290.655,6.501,13.013,1041.272,-0.440,0.955
1.348000,805719,1000.00,12,0,1,1285.995,1.389,13.005,1041.488,-0.282,0.931
1.349000,805720,1000.00,12,0,1,1284.962,0.500,13.001,1040.191,-1.022,0.937
1.350000,805721,1000.00,12,0,1,1283.088,-0.796,12.990,1041.080,-0.589,0.936
1.351000,805722,1000.00,12,0,1,1281.335,-2.988,12.948,1041.368,0.314,0.937
1.352000,805723,1000.00,12,0,1,1282.055,-2.583,12.753,1040.600,-0.559,0.941
1.353000,805724,1000.00,12,0,1,1292.168,4.503,12.535,1041.104,-0.209,0.934
1.354000,805725,1000.00,12,0,1,1293.273,6.465,12.363,1040.720,-0.158,0.934
1.355000,805726,1000.00,12,0,1,1290.943,0.349,12.127,1041.584,0.085,0.929
1.356000,805727,1000.00,12,0,1,1289.141,-1.645,11.900,1042.329,1.195,0.930
1.357000,805728,1000.00,12,0,1,1290.342,-2.415,11.791,1042.545,0.900,0.935
1.358000,805729,1000.00,12,0,1,1290.222,-1.824,11.775,1043.170,1.388,0.925
1.359000,805730,1000.00,12,0,1,1286.211,-5.262,11.756,1042.137,0.419,0.918
1.360000,805731,1000.00,12,0,1,1287.868,-3.878,11.437,1042.281,0.044,0.912
1.361000,805732,1000.00,12,0,1,1288.637,-0.499,10.457,1041.056,-0.493,0.885
1.362000,805733,1000.00,12,0,1,1285.442,-2.503,8.984,1041.152,-0.952,0.886
1.363000,805734,1000.00,12,0,1,1284.890,-1.381,7.381,1041.128,-0.223,0.880
1.364000,805735,1000.00,12,0,1,1284.962,0.640,5.691,1039.807,-1.407,0.885
1.365000,805736,1000.00,12,0,1,1282.223,0.154,5.108,1039.254,-1.650,0.914
1.366000,805737,1000.00,12,0,1,1280.038,-0.733,5.050,1038.918,-1.446,0.937
1.367000,805738,1000.00,12,0,1,1281.046,1.434,5.043,1041.128,0.412,0.938
1.368000,805739,1000.00,12,0,1,1284.842,5.388,5.100,1041.248,1.405,0.959
1.369000,805740,1000.00,12,0,1,1285.562,6.455,5.137,1042.617,1.636,0.986
1.370000,805741,1000.00,12,0,1,1288.565,7.149,5.188,1041.272,1.279,0.998
1.371000,805742,1000.00,12,0,1,1289.550,7.433,5.261,1041.248,-0.019,0.943
1.372000,805743,1000.00,12,0,1,1289.165,4.373,5.248,1042.497,1.575,0.958
1.373000,805744,1000.00,12,0,1,1286.643,0.765,5.173,1043.410,1.845,0.938
1.374000,805745,1000.00,12,0,1,1286.403,-1.851,5.123,1042.857,1.256,0.951
1.375000,805746,1000.00,12,0,1,1283.857,-4.272,5.091,1041.272,-0.523,0.954
1.376000,805747,1000.00,12,0,1,1283.232,-6.338,4.921,1040.984,-1.122,0.964
1.377000,805748,1000.00,12,0,1,1281.527,-6.878,4.692,1040.960,-0.775,0.966
1.378000,805749,1000.00,12,0,1,1284.770,-4.676,4.493,1041.512,-0.518,0.969
1.379000,805750,1000.00,12,0,1,1286.571,-1.089,4.227,1040.287,-0.958,0.977
1.380000,805751,1000.00,12,0,1,1287.364,-0.458,3.992,1040.407,-1.368,0.995
1.381000,805752,1000.00,12,0,1,1287.604,0.946,3.947,1043.122,1.457,1.016
1.382000,805753,1000.00,12,0,1,1292.192,5.020,3.967,1042.617,1.383,1.026
1.383000,805754,1000.00,12,0,1,1290.535,5.562,3.950,1041.560,-0.139,1.009
1.384000,805755,1000.00,12,0,1,1288.133,2.610,3.939,1041.873,0.261,1.009
1.385000,805756,1000.00,12,0,1,1288.085,3.565,3.935,1041.512,0.040,1.009
1.386000,805757,1000.00,12,0,1,1289.958,5.410,3.939,1042.809,0.868,1.016
1.387000,805758,1000.00,12,0,1,1288.493,4.704,3.845,1041.368,0.217,1.016
1.388000,805759,1000.00,12,0,1,1285.370,1.391,3.793,1040.527,-1.296,1.030
1.389000,805760,1000.00,12,0,1,1284.770,0.244,3.781,1040.191,-0.974,0.993
1.390000,805761,1000.00,12,0,1,1282.488,-1.364,3.754,1042.089,0.240,0.981
1.391000,805762,1000.00,12,0,1,1279.293,-5.121,3.790,1042.161,1.016,0.982
1.392000,805763,1000.00,12,0,1,1279.893,-4.828,3.850,1042.401,0.423,0.981
1.393000,805764,1000.00,12,0,1,1282.488,-2.802,3.870,1042.906,1.028,0.963
1.394000,805765,1000.00,12,0,1,1285.658,-0.552,3.851,1041.128,-0.617,0.954
1.395000,805766,1000.00,12,0,1,1292.264,3.728,3.878,1042.713,-0.050,0.954
1.396000,805767,1000.00,12,0,1,1290.991,2.680,3.817,1043.002,1.090,0.949
1.397000,805768,1000.00,12,0,1,1294.378,1.962,3.715,1040.191,-1.928,0.986
1.398000,805769,1000.00,12,0,1,1300.311,7.437,3.856,1041.945,-0.758,0.991
1.399000,805770,1000.00,12,0,1,1297.861,4.087,3.899,1042.377,0.561,0.983
1.400000,805771,1000.00,12,0,1,1292.865,-1.665,3.904,1043.002,0.389,0.981
1.401000,805772,1000.00,12,0,1,1287.868,-5.498,3.959,1042.209,0.333,0.981
1.402000,805773,1000.00,12,0,1,1284.962,-7.284,4.074,1043.266,0.423,0.980
1.403000,805774,1000.00,12,0,1,1284.698,-5.252,4.092,1041.080,-0.441,0.982
1.404000,805775,1000.00,12,0,1,1285.995,-2.325,4.002,1041.680,-1.101,0.994
1.405000,805776,1000.00,12,0,1,1290.991,3.495,4.032,1042.978,1.111,1.006
1.406000,805777,1000.00,12,0,1,1290.222,4.679,4.079,1043.506,1.095,1.004
1.407000,805778,1000.00,12,0,1,1278.764,-4.771,4.121,1043.074,0.824,1.002
1.408000,805779,1000.00,12,0,1,1277.636,-6.954,4.229,1042.353,-0.077,0.983
1.409000,805780,1000.00,12,0,1,1278.116,-3.190,4.187,1041.392,-0.980,0.991
1.410000,805781,1000.00,12,0,1,1277.876,-3.894,4.187,1041.608,-0.803,0.997
1.411000,805782,1000.00,12,0,1,1281.935,0.164,4.187,1040.576,-1.394,1.014
1.412000,805783,1000.00,12,0,1,1287.892,4.787,4.226,1040.407,-1.665,1.032
1.413000,805784,1000.00,12,0,1,1291.231,6.572,4.323,1043.050,0.658,1.036
1.414000,805785,1000.00,12,0,1,1285.971,0.716,4.323,1043.050,1.271,1.033
1.415000,805786,1000.00,12,0,1,1276.819,-9.327,4.520,1040.984,-1.160,1.019
1.416000,805787,1000.00,12,0,1,1275.474,-11.095,4.783,1041.801,-0.605,1.002
1.417000,805788,1000.00,12,0,1,1279.317,-6.430,4.865,1041.728,-0.180,1.001
1.418000,805789,1000.00,12,0,1,1280.902,-3.621,4.832,1041.704,-0.516,0.984
1.419000,805790,1000.00,12,0,1,1280.638,-3.203,4.767,1041.416,-0.400,0.958
1.420000,805791,1000.00,12,0,1,1283.424,-0.032,4.658,1043.098,0.686,0.945
1.421000,805792,1000.00,12,0,1,1284.770,2.730,4.554,1040.912,-0.287,0.946
1.422000,805793,1000.00,12,0,1,1291.688,8.293,4.662,1042.881,0.074,0.920
1.423000,805794,1000.00,12,0,1,1292.336,10.995,4.913,1041.560,0.644,0.887
1.424000,805795,1000.00,12,0,1,1289.646,6.959,5.004,1040.744,-1.424,0.892
1.425000,805796,1000.00,12,0,1,1286.715,5.037,5.018,1043.890,1.909,0.929
1.426000,805797,1000.00,12,0,1,1287.004,4.601,4.980,1042.641,1.366,0.935
1.427000,805798,1000.00,12,0,1,1287.292,5.581,4.948,1041.728,-0.503,0.931
1.428000,805799,1000.00,12,0,1,1284.914,3.192,4.924,1041.512,0.003,0.929
1.429000,805800,1000.00,12,0,1,1276.987,-3.604,4.948,1042.113,-0.063,0.919
1.430000,805801,1000.00,12,0,1,1275.330,-6.189,5.024,1042.473,0.799,0.905
1.431000,805802,1000.00,12,0,1,1270.910,-7.855,5.144,1041.849,-0.147,0.882
1.432000,805803,1000.00,12,0,1,1273.360,-7.176,5.195,1040.720,-0.978,0.871
1.433000,805804,1000.00,12,0,1,1277.924,-1.245,5.138,1042.449,0.064,0.871
1.434000,805805,1000.00,12,0,1,1283.136,1.965,5.132,1042.353,0.711,0.876
1.435000,805806,1000.00,12,0,1,1282.920,1.872,5.114,1039.278,-2.302,0.934
1.436000,805807,1000.00,12,0,1,1278.236,-3.817,5.085,1040.167,-1.894,0.964
1.437000,805808,1000.00,12,0,1,1276.843,-5.961,5.112,1040.888,-0.243,0.964
1.438000,805809,1000.00,12,0,1,1281.094,-1.862,5.115,1039.879,-1.310,0.965
1.439000,805810,1000.00,12,0,1,1282.560,0.279,5.115,1040.792,-0.402,0.956
1.440000,805811,1000.00,12,0,1,1285.058,2.121,5.120,1041.368,0.489,0.958
1.441000,805812,1000.00,12,0,1,1288.733,5.751,5.133,1041.320,0.375,0.949
1.442000,805813,1000.00,12,0,1,1292.024,8.589,5.231,1041.512,0.572,0.950
1.443000,805814,1000.00,12,0,1,1290.366,7.287,5.317,1039.807,-0.642,0.944
1.444000,805815,1000.00,12,0,1,1288.277,4.696,5.357,1038.149,-2.211,0.990
1.445000,805816,1000.00,12,0,1,1292.793,8.107,5.453,1038.414,-1.589,1.015
1.446000,805817,1000.00,12,0,1,1292.600,9.100,5.590,1040.167,0.306,1.005
1.447000,805818,1000.00,12,0,1,1287.124,2.903,5.598,1039.519,0.360,0.968
1.448000,805819,1000.00,12,0,1,1285.418,0.810,5.500,1039.615,-0.007,0.962
1.449000,805820,1000.00,12,0,1,1286.091,1.384,5.473,1039.639,0.538,0.962
1.450000,805821,1000.00,12,0,1,1285.394,0.566,5.468,1039.927,0.502,0.963
1.451000,805822,1000.00,12,0,1,1285.730,-0.173,5.413,1042.954,2.948,1.048
1.452000,805823,1000.00,12,0,1,1286.067,-0.468,5.314,1040.744,1.680,1.073
1.453000,805824,1000.00,12,0,1,1289.286,0.654,5.263,1039.326,-1.015,1.081
1.454000,805825,1000.00,12,0,1,1288.373,-0.444,5.253,1040.744,0.759,1.075
1.455000,805826,1000.00,12,0,1,1287.964,-3.267,5.250,1040.407,0.448,1.065
1.456000,805827,1000.00,12,0,1,1285.466,-5.402,5.264,1041.008,0.585,1.057
1.457000,805828,1000.00,12,0,1,1287.508,-5.471,5.278,1041.056,0.903,1.059
1.458000,805829,1000.00,12,0,1,1287.076,-4.452,5.223,1042.449,1.452,1.078
1.459000,805830,1000.00,12,0,1,1288.757,-4.266,5.239,1039.975,0.062,1.069
1.460000,805831,1000.00,12,0,1,1291.664,-0.535,5.210,1039.999,-1.224,1.077
1.461000,805832,1000.00,12,0,1,1293.081,0.776,5.211,1040.840,0.575,1.062
1.462000,805833,1000.00,12,0,1,1293.225,1.221,5.170,1041.512,0.635,1.040
1.463000,805834,1000.00,12,0,1,1287.844,-2.277,5.096,1040.600,0.300,1.037
1.464000,805835,1000.00,12,0,1,1283.088,-6.403,5.175,1039.879,-0.757,1.026
1.465000,805836,1000.00,12,0,1,1285.562,-2.499,5.016,1040.744,0.117,1.013
1.466000,805837,1000.00,12,0,1,1286.067,0.207,4.765,1041.392,0.910,1.018
1.467000,805838,1000.00,12,0,1,1283.569,-1.082,4.680,1040.912,0.322,1.019
1.468000,805839,1000.00,12,0,1,1282.992,-0.994,4.654,1041.632,0.741,1.021
1.469000,805840,1000.00,12,0,1,1282.440,-0.404,4.632,1040.984,0.329,1.021
1.470000,805841,1000.00,12,0,1,1281.167,-1.359,4.636,1042.665,1.095,1.028
1.471000,805842,1000.00,12,0,1,1279.966,-2.164,4.630,1042.353,1.354,1.045
1.472000,805843,1000.00,12,0,1,1285.779,1.830,4.486,1040.191,-1.202,1.059
1.473000,805844,1000.00,12,0,1,1290.727,6.553,4.309,1040.359,-1.258,1.070
1.474000,805845,1000.00,12,0,1,1287.004,1.821,4.203,1040.720,-0.537,1.053
1.475000,805846,1000.00,12,0,1,1288.517,0.214,4.142,1042.017,0.249,1.019
1.476000,805847,1000.00,12,0,1,1289.189,1.091,4.094,1044.131,2.244,1.049
1.477000,805848,1000.00,12,0,1,1288.373,-1.627,4.024,1043.554,1.574,1.070
1.478000,805849,1000.00,12,0,1,1290.078,-0.517,3.999,1040.744,-1.222,1.084
1.479000,805850,1000.00,12,0,1,1289.862,-0.769,3.968,1041.248,-1.350,1.101
1.480000,805851,1000.00,12,0,1,1289.406,-1.536,3.876,1040.431,-1.110,1.106
1.481000,805852,1000.00,12,0,1,1285.730,-3.590,3.748,1043.002,0.213,1.106
1.482000,805853,1000.00,12,0,1,1285.610,-3.846,3.649,1041.512,0.424,1.099
1.483000,805854,1000.00,12,0,1,1283.761,-2.684,3.664,1041.368,-1.182,1.112
1.484000,805855,1000.00,12,0,1,1277.972,-6.605,3.771,1040.191,-0.895,1.114
1.485000,805856,1000.00,12,0,1,1276.074,-6.499,3.873,1041.152,-0.969,1.075
1.486000,805857,1000.00,12,0,1,1274.177,-5.160,3.904,1042.713,1.252,1.056
1.487000,805858,1000.00,12,0,1,1274.705,-3.319,3.840,1043.002,1.216,1.069
1.488000,805859,1000.00,12,0,1,1277.804,1.506,3.837,1042.689,0.713,1.058
1.489000,805860,1000.00,12,0,1,1281.503,5.243,3.908,1041.584,-0.242,1.057
1.490000,805861,1000.00,12,0,1,1280.158,4.697,3.953,1041.560,-0.764,1.060
1.491000,805862,1000.00,12,0,1,1280.782,3.364,3.897,1041.392,-0.407,1.060
1.492000,805863,1000.00,12,0,1,1287.460,8.308,3.885,1042.497,-0.016,1.057
1.493000,805864,1000.00,12,0,1,1289.982,9.546,3.982,1040.239,-1.053,1.064
1.494000,805865,1000.00,12,0,1,1288.997,5.809,4.011,1038.846,-3.183,1.112
1.495000,805866,1000.00,12,0,1,1288.733,3.476,3.875,1041.632,-0.158,1.089
1.496000,805867,1000.00,12,0,1,1291.183,3.432,3.687,1041.753,0.567,1.091
1.497000,805868,1000.00,12,0,1,1288.421,0.628,3.665,1040.335,-1.040,1.100
1.498000,805869,1000.00,12,0,1,1284.001,-5.039,3.732,1040.455,-0.817,1.106
1.499000,805870,1000.00,12,0,1,1285.178,-4.077,3.771,1042.041,0.609,1.107
1.500000,805871,1000.00,12,0,1,1287.580,-0.991,3.773,1040.407,-0.179,1.105
1.501000,805872,1000.00,12,0,1,1285.010,-2.195,3.786,1042.161,0.320,1.024
1.502000,805873,1000.00,12,0,1,1285.706,-1.650,3.792,1042.113,1.498,1.018
1.503000,805874,1000.00,12,0,1,1289.237,2.995,3.815,1040.071,-1.075,1.020
1.504000,805875,1000.00,12,0,1,1286.499,1.957,3.824,1040.311,-0.719,1.019
1.505000,805876,1000.00,12,0,1,1279.725,-3.644,3.831,1040.648,-0.057,1.017
1.506000,805877,1000.00,12,0,1,1276.987,-5.164,3.824,1040.840,0.048,1.014
1.507000,805878,1000.00,12,0,1,1279.725,-1.375,3.750,1040.912,0.357,1.007
1.508000,805879,1000.00,12,0,1,1274.825,-3.089,3.723,1043.170,1.833,1.019
1.509000,805880,1000.00,12,0,1,1271.726,-6.640,3.792,1042.305,1.763,1.049
1.510000,805881,1000.00,12,0,1,1274.153,-2.825,3.812,1041.560,-0.038,1.035
1.511000,805882,1000.00,12,0,1,1277.299,0.227,3.811,1043.074,1.476,1.053
1.512000,805883,1000.00,12,0,1,1285.562,6.480,3.915,1042.113,0.669,1.053
1.513000,805884,1000.00,12,0,1,1288.661,9.118,4.110,1043.002,0.618,1.056
1.514000,805885,1000.00,12,0,1,1290.535,7.164,4.135,1042.329,0.645,1.054
1.515000,805886,1000.00,12,0,1,1288.877,4.688,4.173,1041.753,-0.720,1.059
1.516000,805887,1000.00,12,0,1,1288.853,1.360,4.177,1041.680,-0.354,1.052
1.517000,805888,1000.00,12,0,1,1292.048,3.366,4.201,1041.560,-0.687,1.056
1.518000,805889,1000.00,12,0,1,1294.138,3.955,4.236,1040.287,-1.420,1.070
1.519000,805890,1000.00,12,0,1,1290.967,0.669,4.237,1041.320,-0.872,1.076
1.520000,805891,1000.00,12,0,1,1288.421,-2.590,4.248,1039.326,-1.535,1.087
1.521000,805892,1000.00,12,0,1,1287.508,-2.660,4.254,1041.488,-0.709,1.074
1.522000,805893,1000.00,12,0,1,1285.610,-3.180,4.270,1041.224,0.692,1.065
1.523000,805894,1000.00,12,0,1,1279.653,-6.705,4.274,1039.447,-1.740,1.079
1.524000,805895,1000.00,12,0,1,1281.046,-4.879,4.322,1039.374,-1.333,1.092
1.525000,805896,1000.00,12,0,1,1280.686,-1.670,4.328,1039.831,-0.668,1.096
1.526000,805897,1000.00,12,0,1,1280.806,-1.324,4.330,1041.032,0.408,1.051
1.527000,805898,1000.00,12,0,1,1280.062,0.044,4.323,1044.683,3.517,1.141
1.528000,805899,1000.00,12,0,1,1277.732,-1.710,4.330,1043.554,2.834,1.197
1.529000,805900,1000.00,12,0,1,1280.254,0.367,4.329,1041.272,-0.248,1.182
1.530000,805901,1000.00,12,0,1,1281.046,2.040,4.333,1041.392,-0.310,1.172
1.531000,805902,1000.00,12,0,1,1277.948,-1.746,4.310,1041.728,0.166,1.172
1.532000,805903,1000.00,12,0,1,1277.035,-3.224,4.300,1040.696,-0.772,1.176
1.533000,805904,1000.00,12,0,1,1277.539,-3.183,4.307,1040.720,-0.843,1.170
1.534000,805905,1000.00,12,0,1,1280.830,-1.024,4.207,1041.584,0.063,1.163
1.535000,805906,1000.00,12,0,1,1280.134,-1.411,4.110,1042.785,1.151,1.166
1.536000,805907,1000.00,12,0,1,1280.686,-2.507,4.060,1041.248,0.030,1.153
1.537000,805908,1000.00,12,0,1,1285.923,1.933,4.042,1041.152,-0.658,1.144
1.538000,805909,1000.00,12,0,1,1288.277,4.087,4.078,1040.551,-0.550,1.142
1.539000,805910,1000.00,12,0,1,1285.538,1.135,4.013,1042.353,0.431,1.143
1.540000,805911,1000.00,12,0,1,1285.610,0.518,3.958,1040.576,-0.038,1.138
1.541000,805912,1000.00,12,0,1,1286.259,2.057,3.940,1042.281,0.067,1.136
1.542000,805913,1000.00,12,0,1,1286.091,2.293,3.775,1040.768,0.311,1.137
1.543000,805914,1000.00,12,0,1,1285.971,2.916,3.549,1040.696,-1.177,1.140
1.544000,805915,1000.00,12,0,1,1282.416,0.986,3.456,1041.152,0.253,1.048
1.545000,805916,1000.00,12,0,1,1274.849,-4.677,3.484,1040.744,-0.452,1.049
1.546000,805917,1000.00,12,0,1,1275.690,-3.610,3.487,1041.272,-0.004,1.046
1.547000,805918,1000.00,12,0,1,1279.533,2.263,3.501,1039.927,-0.681,1.040
1.548000,805919,1000.00,12,0,1,1281.911,4.540,3.487,1040.143,-1.186,1.048
1.549000,805920,1000.00,12,0,1,1281.455,4.252,3.491,1040.936,0.329,1.045
1.550000,805921,1000.00,12,0,1,1278.957,1.097,3.492,1042.401,1.019,1.055
1.551000,805922,1000.00,12,0,1,1278.524,-0.416,3.479,1041.296,0.746,1.059
1.552000,805923,1000.00,12,0,1,1278.428,-0.903,3.473,1041.272,-0.299,1.038
1.553000,805924,1000.00,12,0,1,1280.278,-0.717,3.449,1040.768,0.003,1.027
1.554000,805925,1000.00,12,0,1,1283.016,1.100,3.441,1042.257,0.524,1.025
1.555000,805926,1000.00,12,0,1,1285.394,1.710,3.411,1042.185,1.229,1.039
1.556000,805927,1000.00,12,0,1,1285.803,1.154,3.336,1041.777,0.147,1.040
1.557000,805928,1000.00,12,0,1,1285.298,-0.625,3.331,1040.287,-0.742,1.044
1.558000,805929,1000.00,12,0,1,1286.523,-0.257,3.303,1039.711,-1.549,1.034
1.559000,805930,1000.00,12,0,1,1284.770,-1.383,3.173,1040.431,-0.560,1.007
1.560000,805931,1000.00,12,0,1,1285.827,-1.187,3.152,1040.503,-0.134,1.007
1.561000,805932,1000.00,12,0,1,1284.433,-0.538,3.153,1041.392,0.394,0.987
1.562000,805933,1000.00,12,0,1,1281.911,-2.692,3.040,1041.488,0.937,0.991
1.563000,805934,1000.00,12,0,1,1284.313,0.568,2.755,1041.704,0.588,0.991
1.564000,805935,1000.00,12,0,1,1281.695,0.560,2.563,1036.804,-2.722,1.059
1.565000,805936,1000.00,12,0,1,1278.068,-2.547,2.502,1039.038,-2.425,1.109
1.566000,805937,1000.00,12,0,1,1279.053,-0.276,2.494,1040.864,1.447,1.126
1.567000,805938,1000.00,12,0,1,1273.840,-2.774,2.480,1040.768,0.274,1.123
1.568000,805939,1000.00,12,0,1,1268.315,-7.594,2.644,1039.807,0.034,1.105
1.569000,805940,1000.00,12,0,1,1269.829,-5.054,2.737,1040.311,-0.140,1.098
1.570000,805941,1000.00,12,0,1,1272.711,-1.155,2.717,1041.296,1.047,1.086
1.571000,805942,1000.00,12,0,1,1274.032,0.122,2.691,1039.759,-0.147,1.082
1.572000,805943,1000.00,12,0,1,1274.369,0.033,2.654,1039.206,-1.206,1.091
1.573000,805944,1000.00,12,0,1,1278.092,1.936,2.493,1040.143,0.144,1.063
1.574000,805945,1000.00,12,0,1,1286.980,8.398,2.674,1042.353,1.711,1.074
1.575000,805946,1000.00,12,0,1,1292.000,11.468,3.119,1040.912,1.184,1.083
1.576000,805947,1000.00,12,0,1,1293.465,9.562,3.394,1040.335,-0.472,1.083
1.577000,805948,1000.00,12,0,1,1292.024,6.137,3.503,1043.170,2.322,1.017
1.578000,805949,1000.00,12,0,1,1287.172,0.014,3.495,1042.593,2.037,0.978
1.579000,805950,1000.00,12,0,1,1285.274,-2.903,3.519,1040.071,-0.766,0.983
1.580000,805951,1000.00,12,0,1,1284.025,-3.094,3.534,1042.209,0.624,0.986
1.581000,805952,1000.00,12,0,1,1287.244,-0.376,3.526,1041.488,0.920,0.994
1.582000,805953,1000.00,12,0,1,1285.803,0.840,3.498,1040.191,-1.093,1.000
1.583000,805954,1000.00,12,0,1,1284.145,-1.059,3.472,1039.951,-0.867,1.001
1.584000,805955,1000.00,12,0,1,1282.440,-0.479,3.470,1040.840,-0.243,1.001
1.585000,805956,1000.00,12,0,1,1280.878,-1.249,3.469,1040.792,0.105,0.988
1.586000,805957,1000.00,12,0,1,1274.008,-5.013,3.522,1039.711,-0.955,0.997
1.587000,805958,1000.00,12,0,1,1270.405,-8.021,3.691,1042.017,0.621,0.997
1.588000,805959,1000.00,12,0,1,1271.222,-5.089,3.715,1038.630,-1.044,1.005
1.589000,805960,1000.00,12,0,1,1275.209,-0.801,3.714,1039.086,-2.423,1.060
1.590000,805961,1000.00,12,0,1,1277.491,1.943,3.723,1041.008,0.882,1.067
1.591000,805962,1000.00,12,0,1,1278.572,1.973,3.722,1041.680,0.738,1.072
1.592000,805963,1000.00,12,0,1,1280.686,2.482,3.725,1041.680,1.007,1.081
1.593000,805964,1000.00,12,0,1,1278.404,-0.113,3.702,1039.567,-0.992,1.077
1.594000,805965,1000.00,12,0,1,1280.014,-1.475,3.705,1041.440,-0.083,1.076
1.595000,805966,1000.00,12,0,1,1279.797,-1.099,3.649,1040.311,0.233,1.075
1.596000,805967,1000.00,12,0,1,1282.848,-0.964,3.615,1040.768,-0.722,1.080
1.597000,805968,1000.00,12,0,1,1284.385,1.306,3.606,1039.951,-0.077,1.076
1.598000,805969,1000.00,12,0,1,1284.746,0.075,3.548,1039.663,-1.248,1.077
1.599000,805970,1000.00,12,0,1,1285.971,1.402,3.503,1039.182,-0.698,1.080
1.600000,805971,1000.00,12,0,1,1285.971,1.560,3.506,1039.903,-0.465,1.073
1.601000,805972,1000.00,12,0,1,1283.713,0.095,3.506,1040.888,0.958,1.076
1.602000,805973,1000.00,12,0,1,1284.337,1.058,3.507,1040.263,0.450,1.077
1.603000,805974,1000.00,12,0,1,1283.424,1.903,3.515,1039.326,-0.551,1.080
1.604000,805975,1000.00,12,0,1,1281.239,0.732,3.513,1040.359,0.370,1.079
1.605000,805976,1000.00,12,0,1,1275.834,-2.384,3.521,1041.032,1.113,1.076
1.606000,805977,1000.00,12,0,1,1273.672,-3.720,3.557,1039.999,0.233,1.077
1.607000,805978,1000.00,12,0,1,1275.281,-0.606,3.557,1039.182,-0.827,1.078
1.608000,805979,1000.00,12,0,1,1275.450,0.708,3.558,1040.047,0.016,1.055
