# FW/GUI: v9.6.1-multi17-dual (PyQt5)
# StartTime: 2026-04-03 16:22:29
# Slot: 13
# DeviceID: 13
# Label: EMG13
# IP: 192.168.137.206
# TCP: 3333
# DeviceFW: EMG_FW_v9.6_MULTI17_DUALCH_RUNTIMECFG_CHEN
# IMU1_RefTime = format(imu_ms) = relative since power-on Time (IMU acquisition time)
IMU1_RefTime,ax_g,ay_g,az_g,gx_dps,gy_dps,gz_dps,mx_uT,my_uT,mz_uT,temp_C,qw,qx,qy,qz
'00:14:22.814,0.059082,0.030762,1.002930,0.304878,1.341463,-0.670732,-4.881250,17.631250,19.387501,30.420,0.56790330,-0.00975473,-0.02882771,-0.82253246
'00:14:22.824,0.059570,0.031250,1.003906,0.304878,1.341463,-0.609756,-4.793750,17.518751,19.375000,30.405,0.56790588,-0.00975431,-0.02884138,-0.82253021
'00:14:22.834,0.058594,0.029785,1.004395,0.365854,1.341463,-0.548781,-5.031250,17.793751,19.493750,30.450,0.56790288,-0.00974110,-0.02883490,-0.82253266
'00:14:22.844,0.059570,0.029785,1.003906,0.365854,1.280488,-0.609756,-5.031250,17.793751,19.493750,30.420,0.56789537,-0.00973776,-0.02883553,-0.82253786
'00:14:22.854,0.059570,0.029785,1.002930,0.304878,1.341463,-0.548781,-5.100000,17.887501,19.575001,30.420,0.56788961,-0.00973099,-0.02882603,-0.82254225
'00:14:22.864,0.060059,0.029785,1.002930,0.365854,1.341463,-0.548781,-5.100000,17.887501,19.575001,30.450,0.56788394,-0.00972399,-0.02882294,-0.82254636
'00:14:22.874,0.059082,0.029785,1.004395,0.304878,1.341463,-0.548781,-4.831250,17.556250,19.293751,30.450,0.56788997,-0.00972520,-0.02882446,-0.82254213
'00:14:22.885,0.059570,0.029297,1.003418,0.304878,1.341463,-0.609756,-4.831250,17.556250,19.293751,30.420,0.56789185,-0.00973162,-0.02882559,-0.82254071
'00:14:22.894,0.059082,0.029785,1.003418,0.304878,1.402439,-0.609756,-4.806250,17.568750,19.375000,30.420,0.56789497,-0.00973044,-0.02882643,-0.82253854
'00:14:22.904,0.060547,0.029297,1.002930,0.365854,1.341463,-0.548781,-4.806250,17.568750,19.375000,30.405,0.56790273,-0.00974080,-0.02883776,-0.82253267
'00:14:22.914,0.062012,0.028320,1.004883,0.304878,1.341463,-0.548781,-4.806250,17.581251,19.325001,30.465,0.56791104,-0.00976541,-0.02884420,-0.82252642
'00:14:22.924,0.061035,0.030762,1.004883,0.365854,1.341463,-0.548781,-4.806250,17.581251,19.325001,30.389,0.56791884,-0.00977167,-0.02886490,-0.82252023
'00:14:22.934,0.059082,0.028809,1.003906,0.304878,1.341463,-0.548781,-5.200000,18.162500,19.731251,30.405,0.56791227,-0.00976359,-0.02884603,-0.82252552
'00:14:22.944,0.059082,0.028809,1.002930,0.365854,1.341463,-0.548781,-5.200000,18.162500,19.731251,30.405,0.56790581,-0.00975287,-0.02883224,-0.82253059
'00:14:22.955,0.058105,0.028809,1.002930,0.304878,1.280488,-0.609756,-5.256250,18.125000,19.743750,30.435,0.56788871,-0.00973946,-0.02880639,-0.82254346
'00:14:22.965,0.057617,0.032227,1.004883,0.365854,1.341463,-0.548781,-5.256250,18.125000,19.743750,30.465,0.56787719,-0.00970428,-0.02880086,-0.82255203
'00:14:22.974,0.057617,0.031250,1.002930,0.304878,1.341463,-0.548781,-4.812500,17.593750,19.400000,30.374,0.56788405,-0.00969518,-0.02880745,-0.82254717
'00:14:22.984,0.059570,0.027832,1.005859,0.365854,1.402439,-0.609756,-4.812500,17.593750,19.400000,30.389,0.56788815,-0.00970136,-0.02880302,-0.82254442
'00:14:22.995,0.061035,0.025879,1.001953,0.365854,1.341463,-0.548781,-4.775000,17.556250,19.325001,30.405,0.56789988,-0.00973308,-0.02879957,-0.82253607
'00:14:23.005,0.058105,0.028320,1.003418,0.304878,1.280488,-0.548781,-4.775000,17.556250,19.325001,30.420,0.56790990,-0.00974265,-0.02879701,-0.82252913
'00:14:23.014,0.059570,0.030273,1.002441,0.365854,1.341463,-0.609756,-4.856250,17.575001,19.318750,30.435,0.56790999,-0.00974060,-0.02880611,-0.82252877
'00:14:23.024,0.061035,0.031250,1.003906,0.426829,1.341463,-0.609756,-4.856250,17.575001,19.318750,30.420,0.56790988,-0.00973923,-0.02883097,-0.82252799
'00:14:23.034,0.060547,0.028809,1.002930,0.243902,1.341463,-0.609756,-4.756250,17.512501,19.331251,30.450,0.56791555,-0.00975947,-0.02883337,-0.82252375
'00:14:23.044,0.058594,0.029785,1.002930,0.304878,1.341463,-0.548781,-4.756250,17.512501,19.331251,30.405,0.56792547,-0.00976177,-0.02883800,-0.82251671
'00:14:23.054,0.060059,0.028809,1.004395,0.365854,1.402439,-0.609756,-5.162500,18.025000,19.775000,30.435,0.56791387,-0.00975189,-0.02882373,-0.82252534
'00:14:23.064,0.061523,0.028320,1.004883,0.365854,1.402439,-0.609756,-5.162500,18.025000,19.775000,30.405,0.56790241,-0.00975191,-0.02881240,-0.82253364
'00:14:23.074,0.060059,0.030762,1.003906,0.304878,1.341463,-0.609756,-5.143750,18.075001,19.687500,30.420,0.56789308,-0.00974382,-0.02881109,-0.82254023
'00:14:23.085,0.059082,0.029785,1.004395,0.365854,1.341463,-0.609756,-4.775000,17.481251,19.356251,30.420,0.56789700,-0.00974421,-0.02882049,-0.82253719
'00:14:23.094,0.058105,0.029785,1.001465,0.365854,1.402439,-0.548781,-4.775000,17.481251,19.356251,30.420,0.56790426,-0.00973634,-0.02882289,-0.82253219
'00:14:23.104,0.060547,0.029785,1.002930,0.304878,1.280488,-0.609756,-4.762500,17.481251,19.325001,30.405,0.56790850,-0.00975330,-0.02883719,-0.82252855
'00:14:23.115,0.060059,0.028809,1.004883,0.243902,1.219512,-0.548781,-4.762500,17.481251,19.325001,30.465,0.56791795,-0.00978073,-0.02884200,-0.82252154
'00:14:23.125,0.060059,0.028809,1.004883,0.243902,1.219512,-0.548781,-4.831250,17.500000,19.381250,30.465,0.56792183,-0.00980133,-0.02884111,-0.82251864
'00:14:23.134,0.060547,0.028320,1.004395,0.304878,1.402439,-0.609756,-4.831250,17.500000,19.381250,30.420,0.56792188,-0.00980918,-0.02883549,-0.82251871
'00:14:23.144,0.060547,0.028809,1.004395,0.365854,1.341463,-0.548781,-5.006250,17.825001,19.606251,30.405,0.56792086,-0.00981179,-0.02883328,-0.82251947
'00:14:23.154,0.060547,0.029297,1.002930,0.365854,1.341463,-0.548781,-5.006250,17.825001,19.606251,30.450,0.56791972,-0.00981279,-0.02883443,-0.82252020
'00:14:23.167,0.059570,0.030762,1.002441,0.426829,1.341463,-0.548781,-4.862500,17.662500,19.412500,30.435,0.56792680,-0.00980350,-0.02885759,-0.82251461
'00:14:23.174,0.059570,0.030762,1.002441,0.426829,1.341463,-0.548781,-4.862500,17.662500,19.412500,30.435,0.56793058,-0.00979856,-0.02886981,-0.82251163
'00:14:23.184,0.060059,0.029785,1.003418,0.365854,1.341463,-0.609756,-4.843750,17.531250,19.356251,30.465,0.56793014,-0.00979992,-0.02887712,-0.82251166
'00:14:23.194,0.059570,0.028809,1.002930,0.304878,1.280488,-0.548781,-4.843750,17.531250,19.356251,30.450,0.56793408,-0.00981004,-0.02887567,-0.82250887
'00:14:23.206,0.059570,0.029785,1.004395,0.304878,1.341463,-0.609756,-4.781250,17.525000,19.318750,30.450,0.56793873,-0.00981598,-0.02888214,-0.82250536
'00:14:23.214,0.059570,0.029785,1.004395,0.304878,1.341463,-0.609756,-4.781250,17.525000,19.318750,30.450,0.56794181,-0.00981985,-0.02888635,-0.82250304
'00:14:23.224,0.058594,0.029785,1.004395,0.365854,1.341463,-0.548781,-4.768750,17.556250,19.293751,30.420,0.56795183,-0.00981746,-0.02889386,-0.82249589
'00:14:23.234,0.059082,0.028809,1.003418,0.365854,1.341463,-0.548781,-4.768750,17.556250,19.293751,30.450,0.56796198,-0.00982183,-0.02889793,-0.82248868
'00:14:23.246,0.058594,0.029297,1.003418,0.304878,1.341463,-0.609756,-5.137500,18.012501,19.656250,30.435,0.56794953,-0.00980715,-0.02887707,-0.82249818
'00:14:23.254,0.058594,0.028320,1.003418,0.304878,1.341463,-0.548781,-5.137500,18.012501,19.656250,30.420,0.56794497,-0.00980070,-0.02885910,-0.82250204
'00:14:23.264,0.060059,0.030273,1.006836,0.304878,1.341463,-0.609756,-5.018750,17.750000,19.593750,30.420,0.56793659,-0.00979551,-0.02885477,-0.82250804
'00:14:23.274,0.059570,0.031250,1.002930,0.182927,1.219512,-0.548781,-5.018750,17.750000,19.593750,30.405,0.56793199,-0.00979969,-0.02885295,-0.82251123
'00:14:23.285,0.059570,0.028320,1.007812,0.365854,1.402439,-0.548781,-4.787500,17.512501,19.362501,30.435,0.56794072,-0.00980247,-0.02884911,-0.82250530
'00:14:23.294,0.061523,0.026855,1.001953,0.426829,1.463415,-0.609756,-4.787500,17.512501,19.362501,30.480,0.56794424,-0.00981399,-0.02884863,-0.82250275
'00:14:23.304,0.060059,0.029785,1.000977,0.243902,1.219512,-0.548781,-4.856250,17.487501,19.362501,30.389,0.56794577,-0.00982922,-0.02885237,-0.82250138
'00:14:23.314,0.057617,0.032227,1.004395,0.304878,1.341463,-0.609756,-4.856250,17.487501,19.362501,30.389,0.56794284,-0.00980835,-0.02885747,-0.82250348
'00:14:23.326,0.058594,0.029297,1.003906,0.487805,1.463415,-0.609756,-4.793750,17.537500,19.337500,30.420,0.56794744,-0.00978823,-0.02886424,-0.82250031
'00:14:23.334,0.061035,0.026855,1.003906,0.365854,1.280488,-0.548781,-4.793750,17.537500,19.337500,30.420,0.56795388,-0.00980899,-0.02886535,-0.82249557
'00:14:23.344,0.058105,0.030273,1.004883,0.243902,1.219512,-0.487805,-5.018750,17.912500,19.550001,30.450,0.56795788,-0.00980758,-0.02885980,-0.82249302
'00:14:23.354,0.056641,0.030762,1.005371,0.426829,1.463415,-0.609756,-5.018750,17.912500,19.550001,30.510,0.56795384,-0.00976931,-0.02885241,-0.82249653
'00:14:23.365,0.060547,0.029297,1.003906,0.426829,1.402439,-0.609756,-5.093750,17.975000,19.700001,30.480,0.56794493,-0.00975927,-0.02885088,-0.82250285
'00:14:23.374,0.061035,0.028320,1.003418,0.243902,1.219512,-0.548781,-5.175000,18.006250,19.662500,30.450,0.56793717,-0.00977318,-0.02883833,-0.82250848
'00:14:23.384,0.059570,0.031250,1.004395,0.304878,1.280488,-0.548781,-5.175000,18.006250,19.662500,30.435,0.56792822,-0.00976178,-0.02883621,-0.82251487
'00:14:23.394,0.059570,0.029297,1.003906,0.365854,1.402439,-0.609756,-5.325000,18.243750,19.800001,30.420,0.56791089,-0.00974141,-0.02881650,-0.82252777
'00:14:23.406,0.061035,0.029297,1.003418,0.304878,1.280488,-0.609756,-5.325000,18.243750,19.800001,30.389,0.56788980,-0.00974104,-0.02880212,-0.82254284
'00:14:23.414,0.061035,0.028809,1.003418,0.243902,1.219512,-0.548781,-4.850000,17.612501,19.456251,30.389,0.56789390,-0.00976319,-0.02880642,-0.82253960
'00:14:23.424,0.058594,0.029785,1.004395,0.365854,1.402439,-0.548781,-4.850000,17.612501,19.456251,30.405,0.56789943,-0.00975378,-0.02880708,-0.82253586
'00:14:23.434,0.058594,0.028320,1.003906,0.365854,1.402439,-0.609756,-4.937500,17.700001,19.425001,30.420,0.56789705,-0.00974599,-0.02879518,-0.82253802
'00:14:23.446,0.059082,0.028809,1.002441,0.304878,1.280488,-0.548781,-4.937500,17.700001,19.425001,30.420,0.56789891,-0.00975244,-0.02878932,-0.82253686
'00:14:23.454,0.058594,0.029785,1.004395,0.365854,1.280488,-0.548781,-5.018750,17.756250,19.462500,30.405,0.56789656,-0.00974558,-0.02878733,-0.82253864
'00:14:23.466,0.058594,0.031250,1.002441,0.365854,1.341463,-0.609756,-5.018750,17.756250,19.462500,30.450,0.56788760,-0.00972367,-0.02879160,-0.82254493
'00:14:23.474,0.059570,0.030273,1.003418,0.304878,1.280488,-0.548781,-4.993750,17.825001,19.550001,30.389,0.56788753,-0.00972464,-0.02879429,-0.82254488
'00:14:23.487,0.059082,0.028809,1.002930,0.304878,1.341463,-0.548781,-4.993750,17.825001,19.550001,30.405,0.56788801,-0.00972456,-0.02878183,-0.82254498
'00:14:23.494,0.060059,0.028320,1.003418,0.365854,1.280488,-0.609756,-4.850000,17.581251,19.387501,30.495,0.56788855,-0.00973386,-0.02878490,-0.82254439
'00:14:23.504,0.061035,0.030273,1.003906,0.365854,1.341463,-0.548781,-4.850000,17.581251,19.387501,30.465,0.56789338,-0.00974038,-0.02880077,-0.82254042
'00:14:23.514,0.060547,0.028809,1.004395,0.304878,1.280488,-0.548781,-4.837500,17.587500,19.337500,30.420,0.56789951,-0.00975780,-0.02880589,-0.82253581
'00:14:23.524,0.060059,0.029785,1.004395,0.365854,1.280488,-0.548781,-4.837500,17.587500,19.337500,30.435,0.56790544,-0.00976539,-0.02881889,-0.82253116
'00:14:23.534,0.059082,0.030762,1.003418,0.365854,1.341463,-0.609756,-4.825000,17.643751,19.431250,30.389,0.56790874,-0.00976108,-0.02883297,-0.82252845
'00:14:23.544,0.059570,0.028320,1.002441,0.304878,1.341463,-0.609756,-4.825000,17.643751,19.431250,30.450,0.56791245,-0.00977235,-0.02883083,-0.82252583
'00:14:23.554,0.059082,0.029785,1.004883,0.304878,1.280488,-0.548781,-5.206250,18.156250,19.831251,30.465,0.56790466,-0.00976458,-0.02881964,-0.82253169
'00:14:23.566,0.060059,0.031250,1.003418,0.365854,1.341463,-0.548781,-5.206250,18.156250,19.831251,30.420,0.56789523,-0.00974655,-0.02882292,-0.82253830
'00:14:23.574,0.059082,0.031250,1.003906,0.365854,1.341463,-0.548781,-5.037500,17.912500,19.625000,30.420,0.56789411,-0.00973508,-0.02882784,-0.82253904
'00:14:23.584,0.060547,0.027344,1.005371,0.304878,1.402439,-0.609756,-5.037500,17.912500,19.625000,30.465,0.56788922,-0.00974217,-0.02880979,-0.82254296
'00:14:23.594,0.060547,0.026367,1.001465,0.304878,1.280488,-0.548781,-4.743750,17.487501,19.318750,30.420,0.56790010,-0.00977437,-0.02880697,-0.82253517
'00:14:23.605,0.058594,0.030273,1.004395,0.365854,1.402439,-0.548781,-4.743750,17.487501,19.318750,30.420,0.56791159,-0.00976660,-0.02881696,-0.82252697
'00:14:23.614,0.061035,0.029297,1.001465,0.365854,1.402439,-0.609756,-4.818750,17.537500,19.318750,30.420,0.56791341,-0.00977278,-0.02882529,-0.82252535
'00:14:23.624,0.060547,0.030762,1.004395,0.243902,1.280488,-0.548781,-4.781250,17.531250,19.356251,30.420,0.56792142,-0.00978775,-0.02883963,-0.82251914
'00:14:23.634,0.060059,0.029297,1.004883,0.304878,1.280488,-0.548781,-4.781250,17.531250,19.356251,30.420,0.56792974,-0.00980240,-0.02884765,-0.82251294
'00:14:23.644,0.058105,0.028809,1.004395,0.365854,1.402439,-0.548781,-5.031250,17.837500,19.500000,30.450,0.56792794,-0.00978575,-0.02883163,-0.82251494
'00:14:23.654,0.060059,0.029297,1.002441,0.365854,1.341463,-0.548781,-5.031250,17.837500,19.500000,30.389,0.56792588,-0.00978293,-0.02882984,-0.82251646
'00:14:23.664,0.059570,0.030273,1.002441,0.304878,1.280488,-0.548781,-5.268750,18.168751,19.843750,30.420,0.56791408,-0.00977296,-0.02881982,-0.82252508
'00:14:23.674,0.056641,0.031250,1.005371,0.304878,1.341463,-0.548781,-5.268750,18.168751,19.843750,30.435,0.56790236,-0.00973861,-0.02880019,-0.82253427
'00:14:23.686,0.058105,0.028320,1.004395,0.365854,1.402439,-0.609756,-5.150000,18.106251,19.750000,30.420,0.56789220,-0.00971895,-0.02877535,-0.82254238
'00:14:23.694,0.060547,0.028320,1.003906,0.304878,1.341463,-0.548781,-5.150000,18.106251,19.750000,30.405,0.56788880,-0.00972284,-0.02876558,-0.82254502
'00:14:23.704,0.059082,0.029785,1.002441,0.304878,1.280488,-0.548781,-4.837500,17.550001,19.381250,30.405,0.56789380,-0.00972871,-0.02877098,-0.82254131
'00:14:23.714,0.061035,0.030762,1.004883,0.365854,1.341463,-0.609756,-4.837500,17.550001,19.381250,30.450,0.56789433,-0.00973336,-0.02878974,-0.82254023
'00:14:23.724,0.062988,0.029785,1.004395,0.365854,1.341463,-0.609756,-4.768750,17.543751,19.293751,30.420,0.56789995,-0.00975649,-0.02881578,-0.82253517
'00:14:23.734,0.061035,0.028809,1.003906,0.304878,1.280488,-0.609756,-4.768750,17.543751,19.293751,30.450,0.56790555,-0.00977984,-0.02882716,-0.82253063
'00:14:23.744,0.060547,0.029297,1.003418,0.304878,1.341463,-0.609756,-4.900000,17.637501,19.350000,30.389,0.56790400,-0.00978722,-0.02882824,-0.82253158
'00:14:23.754,0.059570,0.029785,1.003418,0.365854,1.341463,-0.609756,-4.900000,17.637501,19.350000,30.389,0.56790242,-0.00978422,-0.02883267,-0.82253255
'00:14:23.764,0.060059,0.030273,1.004395,0.304878,1.341463,-0.609756,-5.068750,17.937500,19.625000,30.420,0.56789514,-0.00977968,-0.02883057,-0.82253770
'00:14:23.774,0.059082,0.029785,1.004395,0.365854,1.341463,-0.609756,-5.068750,17.937500,19.625000,30.435,0.56788808,-0.00976878,-0.02882647,-0.82254284
'00:14:23.784,0.059082,0.029785,1.004395,0.304878,1.341463,-0.609756,-4.943750,17.793751,19.481251,30.420,0.56788671,-0.00976611,-0.02882447,-0.82254390
'00:14:23.794,0.059570,0.028809,1.003418,0.365854,1.341463,-0.609756,-4.943750,17.793751,19.481251,30.420,0.56788557,-0.00976715,-0.02882365,-0.82254469
'00:14:23.804,0.060059,0.029785,1.002930,0.365854,1.280488,-0.548781,-4.806250,17.487501,19.381250,30.405,0.56789110,-0.00977564,-0.02883693,-0.82254031
'00:14:23.814,0.058594,0.029785,1.004395,0.304878,1.341463,-0.548781,-4.806250,17.487501,19.381250,30.420,0.56789675,-0.00977412,-0.02883630,-0.82253645
'00:14:23.824,0.060547,0.028809,1.004395,0.365854,1.341463,-0.548781,-4.806250,17.543751,19.312500,30.420,0.56790419,-0.00978485,-0.02884357,-0.82253093
'00:14:23.834,0.060547,0.029297,1.002930,0.304878,1.341463,-0.548781,-4.806250,17.543751,19.312500,30.405,0.56791141,-0.00979680,-0.02884965,-0.82252559
'00:14:23.844,0.060547,0.029297,1.002930,0.304878,1.341463,-0.548781,-4.793750,17.525000,19.275000,30.405,0.56791916,-0.00980894,-0.02885620,-0.82251987
'00:14:23.854,0.062012,0.028809,1.003906,0.365854,1.341463,-0.609756,-4.793750,17.525000,19.275000,30.420,0.56792257,-0.00982744,-0.02886950,-0.82251683
'00:14:23.864,0.059570,0.028809,1.002930,0.365854,1.341463,-0.548781,-5.125000,17.968750,19.600000,30.465,0.56791689,-0.00981967,-0.02885822,-0.82252123
'00:14:23.875,0.059082,0.030273,1.002441,0.304878,1.341463,-0.609756,-5.131250,18.037500,19.687500,30.435,0.56790644,-0.00980632,-0.02884944,-0.82252892
'00:14:23.884,0.059082,0.030273,1.002441,0.304878,1.341463,-0.609756,-5.131250,18.037500,19.687500,30.435,0.56789794,-0.00979561,-0.02884244,-0.82253516
'00:14:23.894,0.059082,0.030762,1.004395,0.304878,1.341463,-0.548781,-4.825000,17.550001,19.306250,30.450,0.56790379,-0.00979216,-0.02884931,-0.82253092
'00:14:23.904,0.061035,0.027832,1.004883,0.304878,1.341463,-0.609756,-4.825000,17.550001,19.306250,30.450,0.56790578,-0.00981072,-0.02884686,-0.82252941
'00:14:23.914,0.058594,0.028809,1.002441,0.365854,1.280488,-0.609756,-4.750000,17.550001,19.337500,30.435,0.56791266,-0.00981834,-0.02885464,-0.82252430
'00:14:23.924,0.057617,0.030762,1.004395,0.365854,1.341463,-0.548781,-4.750000,17.550001,19.337500,30.450,0.56792366,-0.00980799,-0.02886579,-0.82251644
'00:14:23.934,0.057129,0.030762,1.003418,0.365854,1.341463,-0.548781,-4.800000,17.587500,19.362501,30.420,0.56793189,-0.00979272,-0.02887212,-0.82251071
'00:14:23.944,0.059570,0.029785,1.005859,0.365854,1.341463,-0.548781,-4.800000,17.587500,19.362501,30.420,0.56794024,-0.00979459,-0.02888127,-0.82250460
'00:14:23.954,0.059082,0.028320,1.004395,0.304878,1.341463,-0.548781,-5.231250,18.093750,19.768751,30.435,0.56792985,-0.00978524,-0.02885511,-0.82251281
'00:14:23.964,0.059570,0.029297,1.003906,0.365854,1.341463,-0.609756,-5.231250,18.093750,19.768751,30.450,0.56791502,-0.00977194,-0.02884125,-0.82252369
'00:14:23.974,0.061035,0.029785,1.003906,0.304878,1.341463,-0.548781,-5.075000,17.956251,19.618750,30.420,0.56791220,-0.00977485,-0.02884010,-0.82252564
'00:14:23.984,0.061035,0.029785,1.002930,0.304878,1.280488,-0.548781,-5.075000,17.956251,19.618750,30.389,0.56790922,-0.00978231,-0.02884238,-0.82252753
'00:14:23.994,0.059570,0.029785,1.003418,0.365854,1.341463,-0.609756,-5.075000,17.943750,19.643751,30.465,0.56790172,-0.00977394,-0.02883992,-0.82253289
'00:14:24.005,0.061523,0.028320,1.003906,0.365854,1.341463,-0.609756,-5.075000,17.943750,19.643751,30.405,0.56789379,-0.00978267,-0.02883627,-0.82253839
'00:14:24.014,0.059570,0.029297,1.002930,0.365854,1.280488,-0.609756,-5.462500,18.456251,19.968750,30.389,0.56787390,-0.00976844,-0.02881983,-0.82255287
'00:14:24.032,0.059082,0.029785,1.002441,0.365854,1.341463,-0.609756,-4.731250,17.475000,19.331251,30.450,0.56788575,-0.00977388,-0.02884248,-0.82254383
'00:14:24.036,0.058594,0.029785,1.005371,0.304878,1.341463,-0.548781,-4.731250,17.475000,19.331251,30.420,0.56789010,-0.00977496,-0.02884435,-0.82254075
'00:14:24.044,0.059082,0.029297,1.004395,0.304878,1.341463,-0.609756,-4.731250,17.475000,19.331251,30.420,0.56789535,-0.00978086,-0.02884769,-0.82253694
'00:14:24.054,0.057129,0.030762,1.003418,0.365854,1.280488,-0.548781,-4.825000,17.550001,19.337500,30.435,0.56790106,-0.00976839,-0.02885467,-0.82253290
'00:14:24.064,0.058594,0.029297,1.004883,0.304878,1.341463,-0.548781,-4.825000,17.550001,19.337500,30.435,0.56790713,-0.00976835,-0.02885092,-0.82252884
'00:14:24.074,0.059570,0.029297,1.003418,0.304878,1.341463,-0.548781,-5.131250,18.031250,19.643751,30.420,0.56790235,-0.00976318,-0.02883915,-0.82253261
'00:14:24.084,0.060547,0.029297,1.002441,0.365854,1.341463,-0.548781,-5.131250,18.031250,19.643751,30.465,0.56789765,-0.00976059,-0.02883604,-0.82253600
'00:14:24.094,0.061035,0.030273,1.003906,0.304878,1.341463,-0.548781,-4.962500,17.712500,19.456251,30.480,0.56789734,-0.00976475,-0.02884087,-0.82253600
'00:14:24.105,0.061035,0.029297,1.003906,0.365854,1.341463,-0.548781,-4.962500,17.712500,19.456251,30.420,0.56789727,-0.00977010,-0.02884488,-0.82253584
'00:14:24.114,0.059570,0.029785,1.004395,0.365854,1.341463,-0.548781,-4.831250,17.525000,19.362501,30.405,0.56790165,-0.00976999,-0.02885062,-0.82253262
'00:14:24.124,0.059570,0.030273,1.003906,0.365854,1.341463,-0.548781,-4.831250,17.525000,19.362501,30.450,0.56790637,-0.00976803,-0.02885985,-0.82252905
'00:14:24.134,0.060059,0.028809,1.003906,0.304878,1.341463,-0.548781,-4.800000,17.525000,19.275000,30.405,0.56791387,-0.00977922,-0.02886078,-0.82252371
'00:14:24.144,0.058105,0.030273,1.004883,0.365854,1.280488,-0.548781,-4.850000,17.587500,19.306250,30.420,0.56791886,-0.00977271,-0.02886696,-0.82252013
'00:14:24.154,0.058594,0.028809,1.004883,0.304878,1.280488,-0.548781,-4.850000,17.587500,19.306250,30.420,0.56792407,-0.00977772,-0.02886226,-0.82251664
'00:14:24.164,0.058594,0.029297,1.003418,0.365854,1.341463,-0.609756,-4.987500,17.843750,19.537500,30.450,0.56792062,-0.00976939,-0.02885742,-0.82251929
'00:14:24.174,0.059570,0.030273,1.003418,0.304878,1.280488,-0.609756,-4.987500,17.843750,19.537500,30.435,0.56791676,-0.00977015,-0.02886053,-0.82252183
'00:14:24.184,0.059570,0.029297,1.003418,0.365854,1.280488,-0.609756,-5.081250,17.906250,19.675001,30.450,0.56790775,-0.00976737,-0.02885660,-0.82252822
'00:14:24.194,0.060059,0.028809,1.002441,0.365854,1.341463,-0.548781,-5.081250,17.906250,19.675001,30.420,0.56790339,-0.00976521,-0.02884922,-0.82253152
'00:14:24.204,0.060059,0.028809,1.003906,0.304878,1.341463,-0.609756,-4.825000,17.506250,19.325001,30.450,0.56790414,-0.00977467,-0.02884785,-0.82253094
'00:14:24.214,0.060059,0.029297,1.003906,0.365854,1.341463,-0.609756,-4.825000,17.506250,19.325001,30.480,0.56790482,-0.00977905,-0.02885363,-0.82253022
'00:14:24.224,0.061035,0.027832,1.003418,0.304878,1.341463,-0.548781,-4.868750,17.550001,19.350000,30.450,0.56790796,-0.00979570,-0.02884814,-0.82252804
'00:14:24.234,0.060059,0.029297,1.004395,0.365854,1.341463,-0.548781,-4.868750,17.550001,19.350000,30.450,0.56791086,-0.00979777,-0.02885120,-0.82252591
'00:14:24.244,0.060059,0.028809,1.004395,0.365854,1.341463,-0.609756,-4.812500,17.568750,19.387501,30.420,0.56791367,-0.00980542,-0.02885624,-0.82252370
'00:14:24.254,0.059082,0.029297,1.004395,0.304878,1.341463,-0.609756,-4.812500,17.568750,19.387501,30.420,0.56791635,-0.00980861,-0.02885580,-0.82252183
'00:14:24.264,0.060547,0.028809,1.003906,0.304878,1.341463,-0.609756,-5.143750,18.000000,19.668751,30.450,0.56790552,-0.00980863,-0.02884296,-0.82252976
'00:14:24.274,0.059082,0.028809,1.004883,0.365854,1.341463,-0.548781,-5.143750,18.000000,19.668751,30.420,0.56789921,-0.00979769,-0.02882877,-0.82253474
'00:14:24.284,0.059570,0.029297,1.004395,0.304878,1.280488,-0.609756,-5.162500,18.056250,19.706251,30.420,0.56788819,-0.00979486,-0.02881816,-0.82254275
'00:14:24.297,0.059082,0.030762,1.003418,0.304878,1.341463,-0.548781,-5.162500,18.056250,19.706251,30.465,0.56787945,-0.00977535,-0.02880927,-0.82254933
'00:14:24.304,0.059082,0.030762,1.003418,0.365854,1.341463,-0.548781,-5.175000,17.987501,19.700001,30.420,0.56787314,-0.00976178,-0.02880590,-0.82255396
'00:14:24.314,0.059570,0.028809,1.002930,0.304878,1.280488,-0.609756,-5.175000,17.987501,19.700001,30.420,0.56786000,-0.00976011,-0.02879109,-0.82256357
'00:14:24.324,0.059082,0.028320,1.003418,0.304878,1.341463,-0.548781,-4.768750,17.500000,19.331251,30.420,0.56786929,-0.00977010,-0.02878865,-0.82255713
'00:14:24.335,0.060547,0.028320,1.003906,0.365854,1.341463,-0.548781,-4.768750,17.500000,19.331251,30.420,0.56787945,-0.00978641,-0.02879682,-0.82254964
'00:14:24.344,0.060059,0.029297,1.004883,0.365854,1.341463,-0.609756,-4.831250,17.568750,19.431250,30.435,0.56788075,-0.00979086,-0.02880318,-0.82254846
'00:14:24.354,0.060547,0.029297,1.003418,0.304878,1.341463,-0.548781,-4.831250,17.568750,19.431250,30.405,0.56788646,-0.00980192,-0.02880817,-0.82254421
'00:14:24.364,0.059570,0.028809,1.003906,0.304878,1.341463,-0.548781,-4.793750,17.525000,19.318750,30.420,0.56789432,-0.00981058,-0.02880846,-0.82253867
'00:14:24.374,0.060059,0.028809,1.003418,0.365854,1.341463,-0.548781,-4.793750,17.525000,19.318750,30.480,0.56790218,-0.00981887,-0.02881514,-0.82253291
'00:14:24.385,0.058105,0.030273,1.004395,0.304878,1.341463,-0.548781,-5.068750,17.893751,19.556250,30.435,0.56789819,-0.00980096,-0.02880390,-0.82253628
'00:14:24.394,0.058594,0.029297,1.004883,0.365854,1.402439,-0.548781,-5.068750,17.893751,19.556250,30.420,0.56789534,-0.00978561,-0.02879274,-0.82253881
'00:14:24.404,0.058105,0.030273,1.004883,0.304878,1.341463,-0.609756,-4.887500,17.625000,19.393751,30.450,0.56789415,-0.00977613,-0.02879052,-0.82253983
'00:14:24.414,0.059082,0.029297,1.003906,0.365854,1.341463,-0.609756,-4.781250,17.550001,19.350000,30.465,0.56789902,-0.00977860,-0.02879793,-0.82253618
'00:14:24.424,0.059570,0.028809,1.003906,0.365854,1.341463,-0.548781,-4.781250,17.550001,19.350000,30.495,0.56790830,-0.00978580,-0.02880426,-0.82252946
'00:14:24.435,0.059570,0.030273,1.004883,0.304878,1.341463,-0.609756,-4.756250,17.487501,19.287500,30.420,0.56791384,-0.00979069,-0.02881574,-0.82252518
'00:14:24.444,0.061035,0.030762,1.003418,0.304878,1.341463,-0.609756,-4.756250,17.487501,19.287500,30.450,0.56791816,-0.00980044,-0.02883305,-0.82252147
'00:14:24.454,0.060547,0.029785,1.003418,0.304878,1.280488,-0.609756,-4.806250,17.525000,19.362501,30.405,0.56792004,-0.00981423,-0.02884432,-0.82251961
'00:14:24.464,0.060547,0.030273,1.003418,0.365854,1.341463,-0.548781,-4.806250,17.525000,19.362501,30.435,0.56792634,-0.00981861,-0.02885946,-0.82251468
'00:14:24.474,0.060059,0.029297,1.003906,0.365854,1.341463,-0.548781,-5.068750,17.887501,19.700001,30.450,0.56792203,-0.00981398,-0.02885445,-0.82251789
'00:14:24.484,0.059570,0.029297,1.003906,0.304878,1.341463,-0.548781,-5.068750,17.887501,19.700001,30.450,0.56791771,-0.00980977,-0.02884330,-0.82252131
'00:14:24.495,0.059570,0.030273,1.004395,0.365854,1.341463,-0.548781,-4.931250,17.812500,19.456251,30.450,0.56792225,-0.00980477,-0.02885202,-0.82251793
'00:14:24.504,0.058105,0.028809,1.004395,0.365854,1.341463,-0.548781,-4.931250,17.812500,19.456251,30.435,0.56792628,-0.00979860,-0.02884659,-0.82251541
'00:14:24.514,0.058105,0.030273,1.002930,0.365854,1.341463,-0.609756,-4.837500,17.518751,19.400000,30.465,0.56792581,-0.00978766,-0.02884979,-0.82251575
'00:14:24.524,0.057617,0.029785,1.003418,0.365854,1.341463,-0.609756,-4.837500,17.518751,19.400000,30.420,0.56792549,-0.00977597,-0.02884808,-0.82251617
'00:14:24.534,0.058594,0.029297,1.003418,0.365854,1.341463,-0.609756,-4.806250,17.562500,19.337500,30.450,0.56792876,-0.00977423,-0.02885111,-0.82251383
'00:14:24.544,0.060059,0.029785,1.004883,0.304878,1.341463,-0.548781,-4.806250,17.562500,19.337500,30.420,0.56793618,-0.00978155,-0.02885751,-0.82250839
'00:14:24.554,0.060059,0.029297,1.001953,0.365854,1.341463,-0.609756,-4.818750,17.531250,19.312500,30.435,0.56793780,-0.00978682,-0.02886491,-0.82250695
'00:14:24.564,0.059570,0.031738,1.004883,0.304878,1.341463,-0.609756,-4.818750,17.531250,19.312500,30.450,0.56793886,-0.00978209,-0.02887858,-0.82250580
'00:14:24.574,0.062012,0.028320,1.002930,0.243902,1.280488,-0.548781,-4.981250,17.812500,19.518751,30.435,0.56793929,-0.00980664,-0.02887519,-0.82250533
'00:14:24.584,0.062012,0.028320,1.002930,0.243902,1.280488,-0.548781,-4.981250,17.812500,19.518751,30.435,0.56793968,-0.00983082,-0.02887180,-0.82250489
'00:14:24.594,0.060059,0.029297,1.004883,0.426829,1.341463,-0.548781,-5.087500,17.943750,19.587500,30.450,0.56793586,-0.00982209,-0.02887079,-0.82250767
'00:14:24.604,0.059570,0.029297,1.002930,0.426829,1.402439,-0.609756,-5.087500,17.943750,19.587500,30.450,0.56792785,-0.00980673,-0.02886577,-0.82251356
'00:14:24.615,0.060547,0.029785,1.000977,0.304878,1.280488,-0.548781,-4.806250,17.437500,19.287500,30.435,0.56793264,-0.00982088,-0.02887641,-0.82250971
'00:14:24.624,0.059082,0.030762,1.005371,0.243902,1.219512,-0.548781,-4.806250,17.437500,19.287500,30.450,0.56793622,-0.00982725,-0.02888202,-0.82250696
'00:14:24.634,0.058594,0.029785,1.005859,0.365854,1.341463,-0.548781,-4.825000,17.506250,19.268751,30.480,0.56794122,-0.00982024,-0.02888347,-0.82250354
'00:14:24.644,0.058594,0.029297,1.003418,0.365854,1.402439,-0.609756,-4.825000,17.506250,19.268751,30.450,0.56794208,-0.00981121,-0.02888012,-0.82250318
'00:14:24.654,0.058105,0.028809,1.004395,0.365854,1.280488,-0.548781,-4.793750,17.512501,19.318750,30.510,0.56794929,-0.00981238,-0.02888023,-0.82249818
'00:14:24.664,0.058105,0.029297,1.004395,0.365854,1.341463,-0.548781,-5.175000,17.981251,19.631250,30.420,0.56794033,-0.00979201,-0.02886186,-0.82250525
'00:14:24.674,0.058105,0.029785,1.004883,0.426829,1.402439,-0.609756,-5.175000,17.981251,19.631250,30.420,0.56792720,-0.00976250,-0.02884776,-0.82251516
'00:14:24.684,0.059570,0.029297,1.003906,0.365854,1.341463,-0.548781,-5.062500,17.900000,19.575001,30.450,0.56792424,-0.00975625,-0.02884229,-0.82251747
'00:14:24.695,0.058594,0.028809,1.004395,0.304878,1.341463,-0.548781,-5.062500,17.900000,19.575001,30.465,0.56792111,-0.00974893,-0.02882429,-0.82252036
'00:14:24.704,0.058594,0.030273,1.003418,0.365854,1.341463,-0.609756,-5.268750,18.068750,19.750000,30.420,0.56790507,-0.00972727,-0.02881110,-0.82253215
'00:14:24.714,0.061523,0.028809,1.003418,0.304878,1.341463,-0.548781,-5.268750,18.068750,19.750000,30.420,0.56789194,-0.00972811,-0.02879529,-0.82254176
'00:14:24.724,0.059570,0.029297,1.005371,0.365854,1.280488,-0.548781,-5.162500,18.018751,19.675001,30.450,0.56788481,-0.00972273,-0.02878848,-0.82254698
'00:14:24.736,0.059082,0.030762,1.003418,0.304878,1.341463,-0.548781,-5.162500,18.018751,19.675001,30.435,0.56787607,-0.00970537,-0.02878002,-0.82255351
'00:14:24.744,0.059082,0.030762,1.003418,0.304878,1.341463,-0.548781,-5.175000,18.018751,19.631250,30.435,0.56786978,-0.00969338,-0.02877389,-0.82255821
'00:14:24.754,0.059570,0.029785,1.003418,0.365854,1.341463,-0.548781,-5.175000,18.018751,19.631250,30.450,0.56786222,-0.00968197,-0.02876719,-0.82256380
'00:14:24.765,0.059570,0.029785,1.003418,0.304878,1.280488,-0.548781,-4.775000,17.550001,19.287500,30.389,0.56787313,-0.00969590,-0.02878056,-0.82255564
'00:14:24.775,0.059570,0.030273,1.004395,0.304878,1.341463,-0.548781,-4.775000,17.550001,19.287500,30.420,0.56788302,-0.00970180,-0.02879179,-0.82254834
'00:14:24.784,0.058594,0.029785,1.004395,0.304878,1.341463,-0.548781,-4.956250,17.718750,19.481251,30.420,0.56788355,-0.00969648,-0.02878639,-0.82254823
'00:14:24.794,0.060059,0.029297,1.003418,0.304878,1.341463,-0.609756,-4.956250,17.718750,19.481251,30.465,0.56787983,-0.00970067,-0.02878380,-0.82255084
'00:14:24.804,0.060059,0.029785,1.003906,0.365854,1.341463,-0.548781,-4.793750,17.525000,19.318750,30.450,0.56788777,-0.00970676,-0.02879649,-0.82254485
'00:14:24.814,0.059570,0.029785,1.003906,0.365854,1.341463,-0.609756,-4.793750,17.525000,19.318750,30.450,0.56789130,-0.00970987,-0.02880710,-0.82254200
'00:14:24.827,0.060059,0.029297,1.004395,0.304878,1.341463,-0.609756,-4.800000,17.506250,19.375000,30.420,0.56789442,-0.00972300,-0.02881215,-0.82253951
'00:14:24.834,0.060059,0.028320,1.002930,0.365854,1.341463,-0.609756,-4.800000,17.506250,19.375000,30.450,0.56789625,-0.00973074,-0.02881436,-0.82253808
'00:14:24.845,0.058594,0.029297,1.004883,0.365854,1.341463,-0.548781,-4.837500,17.625000,19.425001,30.374,0.56790375,-0.00972866,-0.02881654,-0.82253285
'00:14:24.855,0.059570,0.030273,1.002930,0.304878,1.341463,-0.548781,-4.837500,17.625000,19.425001,30.435,0.56791024,-0.00973178,-0.02882419,-0.82252807
'00:14:24.864,0.059570,0.029785,1.003418,0.304878,1.341463,-0.548781,-4.837500,17.550001,19.381250,30.435,0.56791469,-0.00973511,-0.02882674,-0.82252486
'00:14:24.874,0.059082,0.029785,1.003418,0.304878,1.341463,-0.548781,-4.837500,17.550001,19.381250,30.435,0.56791964,-0.00973604,-0.02882761,-0.82252140
'00:14:24.884,0.059570,0.030273,1.004395,0.365854,1.341463,-0.548781,-5.043750,17.843750,19.537500,30.420,0.56791668,-0.00972660,-0.02882793,-0.82252355
'00:14:24.895,0.060547,0.029297,1.003418,0.243902,1.341463,-0.609756,-5.175000,18.093750,19.706251,30.420,0.56790478,-0.00972891,-0.02881265,-0.82253228
'00:14:24.904,0.059570,0.028809,1.002930,0.304878,1.280488,-0.609756,-5.175000,18.093750,19.706251,30.450,0.56789510,-0.00972906,-0.02880149,-0.82253934
'00:14:24.914,0.060059,0.028809,1.004883,0.304878,1.280488,-0.609756,-5.175000,18.093750,19.706251,30.480,0.56788441,-0.00973150,-0.02879039,-0.82254709
'00:14:24.924,0.060059,0.029785,1.004395,0.304878,1.341463,-0.548781,-4.781250,17.493750,19.375000,30.420,0.56789211,-0.00974055,-0.02879846,-0.82254138
'00:14:24.937,0.059570,0.028809,1.003906,0.365854,1.280488,-0.548781,-4.862500,17.668751,19.400000,30.405,0.56790011,-0.00975210,-0.02880604,-0.82253546
'00:14:24.944,0.058105,0.030762,1.003418,0.365854,1.341463,-0.548781,-4.862500,17.668751,19.400000,30.405,0.56790423,-0.00974415,-0.02881181,-0.82253250
'00:14:24.954,0.059570,0.029297,1.004395,0.365854,1.341463,-0.548781,-4.781250,17.531250,19.387501,30.420,0.56791283,-0.00974966,-0.02882000,-0.82252621
'00:14:24.964,0.059570,0.028809,1.003418,0.304878,1.280488,-0.609756,-4.781250,17.531250,19.387501,30.420,0.56791689,-0.00976444,-0.02882431,-0.82252308
'00:14:24.975,0.059082,0.029785,1.001953,0.365854,1.280488,-0.609756,-5.031250,17.887501,19.550001,30.495,0.56791073,-0.00975945,-0.02882622,-0.82252733
'00:14:24.984,0.059082,0.031250,1.002930,0.304878,1.341463,-0.609756,-5.031250,17.887501,19.550001,30.435,0.56790553,-0.00974894,-0.02882814,-0.82253098
'00:14:24.994,0.060059,0.029297,1.005859,0.243902,1.280488,-0.548781,-5.025000,17.843750,19.537500,30.420,0.56790380,-0.00975699,-0.02882001,-0.82253236
'00:14:25.004,0.061035,0.027832,1.005371,0.304878,1.341463,-0.548781,-5.025000,17.843750,19.537500,30.480,0.56790254,-0.00976859,-0.02880909,-0.82253347
'00:14:25.017,0.060059,0.028320,1.003418,0.426829,1.341463,-0.548781,-4.887500,17.693750,19.356251,30.405,0.56790953,-0.00977428,-0.02881563,-0.82252835
'00:14:25.024,0.060059,0.029297,1.001465,0.365854,1.402439,-0.548781,-4.887500,17.693750,19.356251,30.450,0.56791318,-0.00977394,-0.02881826,-0.82252574
'00:14:25.034,0.059082,0.030762,1.003418,0.304878,1.341463,-0.609756,-4.843750,17.531250,19.431250,30.480,0.56791240,-0.00976977,-0.02882376,-0.82252614
'00:14:25.044,0.059570,0.029297,1.003418,0.304878,1.341463,-0.609756,-4.843750,17.531250,19.431250,30.435,0.56791191,-0.00977416,-0.02882272,-0.82252646
'00:14:25.056,0.060547,0.029297,1.004395,0.426829,1.341463,-0.609756,-4.850000,17.568750,19.418751,30.405,0.56791203,-0.00977845,-0.02883659,-0.82252584
'00:14:25.064,0.059570,0.029785,1.004395,0.304878,1.341463,-0.609756,-4.850000,17.568750,19.418751,30.389,0.56791194,-0.00978021,-0.02883786,-0.82252584
'00:14:25.074,0.059570,0.029297,1.002930,0.304878,1.341463,-0.609756,-5.000000,17.918751,19.587500,30.480,0.56790918,-0.00978080,-0.02883372,-0.82252788
'00:14:25.084,0.060059,0.029785,1.004883,0.365854,1.280488,-0.548781,-5.000000,17.918751,19.587500,30.465,0.56791061,-0.00978327,-0.02884083,-0.82252661
'00:14:25.094,0.060547,0.029297,1.004395,0.365854,1.280488,-0.548781,-5.118750,18.118750,19.750000,30.435,0.56790813,-0.00978650,-0.02884260,-0.82252823
'00:14:25.104,0.059570,0.030273,1.002441,0.365854,1.341463,-0.548781,-5.118750,18.118750,19.750000,30.480,0.56790562,-0.00977666,-0.02884382,-0.82253004
'00:14:25.114,0.059082,0.031250,1.001953,0.304878,1.280488,-0.609756,-5.125000,17.962500,19.656250,30.465,0.56789468,-0.00976518,-0.02884356,-0.82253773
'00:14:25.124,0.060059,0.030273,1.002930,0.243902,1.280488,-0.609756,-5.125000,17.962500,19.656250,30.420,0.56788393,-0.00976579,-0.02883688,-0.82254538
'00:14:25.134,0.059570,0.029785,1.003906,0.243902,1.280488,-0.548781,-4.812500,17.512501,19.306250,30.405,0.56788985,-0.00977713,-0.02883921,-0.82254108
'00:14:25.144,0.060547,0.028320,1.005371,0.304878,1.280488,-0.609756,-4.812500,17.512501,19.306250,30.435,0.56789168,-0.00979593,-0.02884077,-0.82253954
'00:14:25.154,0.060059,0.028320,1.004883,0.365854,1.341463,-0.609756,-4.787500,17.512501,19.331251,30.420,0.56789533,-0.00980611,-0.02884381,-0.82253679
'00:14:25.164,0.058594,0.029297,1.004883,0.426829,1.280488,-0.609756,-4.787500,17.512501,19.331251,30.405,0.56789871,-0.00980550,-0.02885405,-0.82253410
'00:14:25.177,0.060059,0.029785,1.004883,0.365854,1.280488,-0.548781,-4.781250,17.512501,19.256250,30.405,0.56790945,-0.00981708,-0.02887321,-0.82252588
'00:14:25.184,0.059570,0.030273,1.002930,0.365854,1.341463,-0.548781,-4.781250,17.512501,19.256250,30.405,0.56791521,-0.00981713,-0.02888233,-0.82252158
'00:14:25.194,0.059570,0.028809,1.001465,0.365854,1.280488,-0.609756,-5.062500,17.925001,19.637501,30.405,0.56790801,-0.00981718,-0.02887797,-0.82252670
'00:14:25.204,0.060059,0.030273,1.002441,0.304878,1.280488,-0.609756,-5.112500,18.031250,19.725000,30.480,0.56789927,-0.00981584,-0.02887757,-0.82253277
'00:14:25.216,0.059082,0.030273,1.002930,0.243902,1.219512,-0.548781,-5.112500,18.031250,19.725000,30.450,0.56789385,-0.00981683,-0.02887077,-0.82253673
'00:14:25.224,0.061035,0.029785,1.003906,0.182927,1.097561,-0.487805,-4.787500,17.518751,19.325001,30.405,0.56790293,-0.00984609,-0.02888198,-0.82252973
'00:14:25.234,0.060059,0.027832,1.005371,0.304878,1.280488,-0.548781,-4.787500,17.518751,19.325001,30.450,0.56791083,-0.00986483,-0.02888002,-0.82252411
'00:14:25.244,0.060059,0.028320,1.004883,0.548781,1.524390,-0.609756,-4.781250,17.487501,19.318750,30.405,0.56791474,-0.00985168,-0.02888621,-0.82252135
'00:14:25.255,0.058594,0.030273,1.006348,0.609756,1.524390,-0.609756,-4.781250,17.487501,19.318750,30.435,0.56791873,-0.00981632,-0.02890308,-0.82251843
'00:14:25.264,0.060547,0.029785,1.000977,0.182927,1.097561,-0.548781,-4.806250,17.575001,19.393751,30.435,0.56792464,-0.00984696,-0.02891430,-0.82251359
'00:14:25.274,0.061035,0.030762,1.000977,0.487805,1.402439,-0.548781,-4.806250,17.575001,19.393751,30.450,0.56793191,-0.00984239,-0.02894073,-0.82250770
'00:14:25.284,0.059570,0.032227,1.004883,0.426829,1.402439,-0.548781,-5.006250,17.787500,19.487501,30.480,0.56792972,-0.00981738,-0.02895266,-0.82250908
'00:14:25.295,0.061035,0.028320,1.003906,0.182927,1.158537,-0.548781,-5.006250,17.787500,19.487501,30.495,0.56792729,-0.00984842,-0.02894225,-0.82251076
'00:14:25.304,0.059570,0.027832,1.003906,0.548781,1.524390,-0.609756,-5.031250,17.881250,19.618750,30.450,0.56792257,-0.00982803,-0.02893372,-0.82251456
'00:14:25.314,0.058594,0.029785,1.004395,0.182927,1.158537,-0.609756,-5.031250,17.881250,19.618750,30.420,0.56791577,-0.00983703,-0.02892333,-0.82251952
'00:14:25.324,0.058594,0.029785,1.004395,0.182927,1.158537,-0.609756,-4.950000,17.737501,19.550001,30.420,0.56791141,-0.00984857,-0.02891595,-0.82252264
'00:14:25.334,0.060059,0.029297,1.003418,0.487805,1.463415,-0.609756,-4.950000,17.737501,19.550001,30.435,0.56790814,-0.00983320,-0.02891872,-0.82252499
'00:14:25.344,0.058105,0.031250,1.003906,0.243902,1.219512,-0.548781,-4.831250,17.562500,19.337500,30.450,0.56791305,-0.00983340,-0.02892485,-0.82252138
'00:14:25.354,0.060059,0.030762,1.000977,0.487805,1.463415,-0.609756,-4.831250,17.562500,19.337500,30.435,0.56791438,-0.00981723,-0.02894227,-0.82252005
'00:14:25.364,0.058105,0.031250,1.003906,0.243902,1.219512,-0.609756,-4.806250,17.487501,19.306250,30.420,0.56791496,-0.00981783,-0.02894829,-0.82251942
'00:14:25.374,0.059570,0.028809,1.002930,0.426829,1.402439,-0.548781,-4.806250,17.487501,19.306250,30.405,0.56792098,-0.00981439,-0.02895039,-0.82251523
'00:14:25.384,0.060059,0.029785,1.004395,0.182927,1.219512,-0.548781,-4.787500,17.487501,19.362501,30.450,0.56792717,-0.00983606,-0.02895222,-0.82251064
'00:14:25.394,0.060059,0.028320,1.004395,0.487805,1.463415,-0.548781,-4.787500,17.487501,19.362501,30.465,0.56793449,-0.00983058,-0.02895539,-0.82250554
'00:14:25.404,0.060547,0.028320,1.004395,0.243902,1.219512,-0.548781,-5.087500,18.000000,19.668751,30.450,0.56793124,-0.00984701,-0.02894372,-0.82250800
'00:14:25.414,0.060059,0.029785,1.002441,0.365854,1.402439,-0.609756,-5.087500,18.000000,19.668751,30.435,0.56792388,-0.00983605,-0.02893901,-0.82251338
'00:14:25.424,0.059082,0.029785,1.004883,0.365854,1.341463,-0.548781,-5.150000,18.012501,19.637501,30.420,0.56791709,-0.00982051,-0.02892851,-0.82251862
'00:14:25.434,0.060059,0.028320,1.003906,0.243902,1.280488,-0.548781,-5.150000,18.012501,19.637501,30.465,0.56791039,-0.00982672,-0.02890849,-0.82252388
'00:14:25.444,0.060547,0.029785,1.001465,0.426829,1.341463,-0.609756,-5.068750,17.868750,19.662500,30.450,0.56790128,-0.00981970,-0.02891235,-0.82253011
'00:14:25.454,0.057129,0.029785,1.002441,0.243902,1.280488,-0.548781,-5.493750,18.475000,19.987501,30.420,0.56788153,-0.00979331,-0.02887601,-0.82254534
'00:14:25.464,0.058594,0.030273,1.002441,0.304878,1.341463,-0.548781,-5.493750,18.475000,19.987501,30.450,0.56786205,-0.00976602,-0.02884978,-0.82256003
'00:14:25.474,0.059082,0.030762,1.003906,0.304878,1.341463,-0.548781,-4.856250,17.550001,19.393751,30.465,0.56786550,-0.00976152,-0.02885425,-0.82255754
'00:14:25.484,0.059570,0.028320,1.003906,0.365854,1.280488,-0.548781,-4.856250,17.550001,19.393751,30.389,0.56786934,-0.00977074,-0.02885407,-0.82255479
'00:14:25.494,0.060059,0.029297,1.005371,0.365854,1.341463,-0.548781,-5.162500,18.075001,19.637501,30.495,0.56786370,-0.00976362,-0.02884661,-0.82255903
'00:14:25.504,0.061523,0.028320,1.004395,0.365854,1.341463,-0.548781,-5.162500,18.075001,19.637501,30.435,0.56785826,-0.00976843,-0.02883981,-0.82256297
'00:14:25.514,0.061035,0.029297,1.002441,0.304878,1.341463,-0.548781,-5.125000,18.000000,19.625000,30.450,0.56785338,-0.00977143,-0.02883405,-0.82256650
'00:14:25.524,0.060059,0.030273,1.002930,0.304878,1.341463,-0.548781,-5.125000,18.000000,19.625000,30.435,0.56784835,-0.00976528,-0.02882993,-0.82257020
'00:14:25.534,0.060059,0.029297,1.002441,0.304878,1.341463,-0.609756,-4.850000,17.556250,19.343750,30.450,0.56784856,-0.00977253,-0.02883162,-0.82256990
'00:14:25.544,0.060059,0.029297,1.002930,0.365854,1.341463,-0.548781,-4.850000,17.556250,19.343750,30.450,0.56785319,-0.00977668,-0.02883741,-0.82256646
'00:14:25.554,0.061035,0.029785,1.002930,0.304878,1.280488,-0.548781,-4.818750,17.662500,19.362501,30.420,0.56786205,-0.00979503,-0.02885316,-0.82255957
'00:14:25.564,0.057617,0.029297,1.004883,0.365854,1.341463,-0.548781,-4.818750,17.662500,19.362501,30.435,0.56787130,-0.00978828,-0.02885327,-0.82255326
'00:14:25.574,0.059082,0.029297,1.005371,0.304878,1.341463,-0.548781,-4.806250,17.506250,19.356251,30.435,0.56787760,-0.00979125,-0.02885166,-0.82254893
'00:14:25.584,0.058594,0.029297,1.006348,0.304878,1.341463,-0.548781,-4.806250,17.506250,19.356251,30.405,0.56788391,-0.00979123,-0.02884778,-0.82254471
'00:14:25.594,0.060059,0.030762,1.004395,0.365854,1.341463,-0.609756,-5.162500,18.006250,19.725000,30.450,0.56787158,-0.00977751,-0.02884697,-0.82255342
'00:14:25.604,0.060547,0.029785,1.002441,0.304878,1.341463,-0.548781,-5.162500,18.006250,19.725000,30.435,0.56786380,-0.00977401,-0.02883901,-0.82255911
'00:14:25.615,0.060547,0.029297,1.002441,0.365854,1.280488,-0.548781,-5.031250,17.862501,19.606251,30.450,0.56786175,-0.00977975,-0.02884289,-0.82256032
'00:14:25.624,0.060059,0.027832,1.003418,0.426829,1.280488,-0.548781,-5.031250,17.862501,19.606251,30.420,0.56786040,-0.00978415,-0.02884054,-0.82256128
'00:14:25.634,0.060547,0.028809,1.005371,0.365854,1.341463,-0.609756,-5.268750,18.206251,19.781250,30.480,0.56784602,-0.00977734,-0.02882756,-0.82257174
'00:14:25.644,0.060059,0.029297,1.004883,0.426829,1.402439,-0.609756,-5.268750,18.206251,19.781250,30.450,0.56783183,-0.00975894,-0.02881723,-0.82258212
'00:14:25.655,0.060547,0.030273,1.004395,0.304878,1.341463,-0.609756,-5.612500,18.600000,20.093750,30.480,0.56780052,-0.00973579,-0.02879076,-0.82260493
'00:14:25.665,0.058594,0.031738,1.002930,0.243902,1.341463,-0.609756,-5.612500,18.600000,20.093750,30.450,0.56777190,-0.00970279,-0.02876410,-0.82262601
'00:14:25.674,0.059570,0.030762,1.000977,0.304878,1.402439,-0.609756,-4.868750,17.550001,19.381250,30.420,0.56777093,-0.00969818,-0.02876899,-0.82262656
'00:14:25.684,0.058594,0.029785,1.000488,0.304878,1.341463,-0.609756,-4.868750,17.550001,19.381250,30.420,0.56776995,-0.00969601,-0.02876825,-0.82262729
'00:14:25.694,0.058105,0.029297,1.001953,0.243902,1.280488,-0.548781,-4.787500,17.525000,19.287500,30.450,0.56777877,-0.00970473,-0.02876685,-0.82262115
'00:14:25.704,0.059570,0.028809,1.004883,0.365854,1.341463,-0.609756,-4.787500,17.525000,19.287500,30.435,0.56778349,-0.00971216,-0.02877295,-0.82261759
'00:14:25.715,0.059082,0.028809,1.007324,0.426829,1.341463,-0.548781,-5.125000,17.987501,19.625000,30.420,0.56777862,-0.00969921,-0.02876432,-0.82262141
'00:14:25.724,0.060547,0.029297,1.005371,0.365854,1.341463,-0.548781,-5.000000,17.818750,19.481251,30.389,0.56777902,-0.00970154,-0.02876666,-0.82262102
'00:14:25.734,0.060059,0.030273,1.003418,0.365854,1.402439,-0.609756,-5.000000,17.818750,19.481251,30.495,0.56777503,-0.00969355,-0.02877061,-0.82262373
'00:14:25.744,0.060547,0.029785,1.004395,0.304878,1.280488,-0.548781,-4.806250,17.568750,19.356251,30.389,0.56778313,-0.00971000,-0.02878419,-0.82261747
'00:14:25.754,0.060059,0.030273,1.001465,0.365854,1.341463,-0.548781,-4.806250,17.568750,19.356251,30.480,0.56779124,-0.00971477,-0.02880092,-0.82261123
'00:14:25.764,0.060059,0.031738,1.001953,0.304878,1.341463,-0.548781,-4.818750,17.556250,19.356251,30.420,0.56779775,-0.00971560,-0.02881981,-0.82260606
'00:14:25.774,0.060547,0.029297,1.001465,0.365854,1.280488,-0.548781,-4.818750,17.556250,19.356251,30.450,0.56780460,-0.00973016,-0.02883396,-0.82260067
'00:14:25.784,0.059082,0.031250,1.006836,0.365854,1.341463,-0.548781,-4.843750,17.625000,19.362501,30.450,0.56781109,-0.00972260,-0.02884776,-0.82259579
'00:14:25.794,0.060547,0.028320,1.005371,0.304878,1.341463,-0.548781,-4.843750,17.625000,19.362501,30.420,0.56781804,-0.00973796,-0.02884661,-0.82259086
'00:14:25.804,0.061035,0.028320,1.007324,0.365854,1.402439,-0.609756,-4.831250,17.662500,19.412500,30.435,0.56782232,-0.00974923,-0.02884969,-0.82258766
'00:14:25.814,0.060059,0.028320,1.003418,0.365854,1.402439,-0.548781,-4.831250,17.662500,19.412500,30.420,0.56783094,-0.00975596,-0.02885041,-0.82258160
'00:14:25.824,0.059570,0.030273,1.000488,0.365854,1.280488,-0.548781,-5.056250,17.887501,19.637501,30.450,0.56782778,-0.00975175,-0.02885504,-0.82258367
'00:14:25.834,0.058594,0.032227,1.001953,0.304878,1.341463,-0.609756,-5.056250,17.887501,19.637501,30.389,0.56781998,-0.00973283,-0.02885891,-0.82258915
'00:14:25.844,0.060547,0.029297,1.003906,0.365854,1.341463,-0.548781,-5.050000,17.831251,19.556250,30.435,0.56781666,-0.00973238,-0.02885670,-0.82259152
'00:14:25.856,0.059082,0.028320,1.004883,0.426829,1.280488,-0.548781,-5.050000,17.831251,19.556250,30.435,0.56781288,-0.00972818,-0.02884929,-0.82259444
'00:14:25.865,0.058594,0.028809,1.005371,0.365854,1.341463,-0.548781,-4.900000,17.656250,19.387501,30.450,0.56781621,-0.00972517,-0.02884461,-0.82259235
'00:14:25.874,0.058594,0.029297,1.005859,0.365854,1.341463,-0.548781,-4.900000,17.656250,19.387501,30.450,0.56781945,-0.00972040,-0.02884229,-0.82259025
'00:14:25.884,0.059082,0.029785,1.002930,0.365854,1.280488,-0.609756,-4.837500,17.468750,19.387501,30.450,0.56781824,-0.00972198,-0.02884889,-0.82259083
'00:14:25.894,0.060059,0.030762,1.003418,0.304878,1.280488,-0.548781,-4.837500,17.468750,19.387501,30.420,0.56782110,-0.00972818,-0.02886012,-0.82258839
'00:14:25.904,0.059570,0.028809,1.002930,0.304878,1.341463,-0.609756,-4.900000,17.650000,19.443750,30.435,0.56781989,-0.00973364,-0.02885478,-0.82258935
'00:14:25.914,0.061035,0.030273,1.002441,0.365854,1.341463,-0.609756,-4.900000,17.650000,19.443750,30.420,0.56781836,-0.00973844,-0.02886800,-0.82258988
'00:14:25.924,0.061523,0.029785,1.003418,0.304878,1.280488,-0.609756,-5.243750,18.118750,19.800001,30.450,0.56780324,-0.00974201,-0.02886286,-0.82260046
'00:14:25.934,0.061523,0.029785,1.005371,0.304878,1.341463,-0.548781,-5.243750,18.118750,19.800001,30.450,0.56779270,-0.00974093,-0.02885401,-0.82260805
'00:14:25.945,0.060547,0.028320,1.005859,0.426829,1.341463,-0.609756,-4.900000,17.656250,19.450001,30.420,0.56779180,-0.00974760,-0.02885795,-0.82260846
'00:14:25.954,0.061035,0.029297,1.003418,0.426829,1.402439,-0.548781,-4.900000,17.656250,19.450001,30.450,0.56779490,-0.00974863,-0.02886585,-0.82260603
'00:14:25.964,0.059570,0.029297,1.000977,0.365854,1.341463,-0.548781,-4.806250,17.562500,19.381250,30.450,0.56780272,-0.00975389,-0.02887367,-0.82260029
'00:14:25.974,0.058594,0.031250,1.001953,0.304878,1.341463,-0.548781,-4.806250,17.562500,19.381250,30.435,0.56781008,-0.00974866,-0.02888392,-0.82259492
'00:14:25.984,0.058594,0.030762,1.002930,0.304878,1.280488,-0.609756,-4.831250,17.468750,19.343750,30.465,0.56780915,-0.00974647,-0.02888972,-0.82259538
'00:14:25.994,0.059570,0.029785,1.003418,0.304878,1.280488,-0.609756,-5.068750,17.831251,19.556250,30.405,0.56779987,-0.00974483,-0.02888352,-0.82260202
'00:14:26.004,0.058594,0.027832,1.006348,0.304878,1.280488,-0.609756,-5.068750,17.831251,19.556250,30.405,0.56779108,-0.00974483,-0.02886172,-0.82260885
'00:14:26.014,0.060059,0.028320,1.005859,0.365854,1.341463,-0.548781,-5.262500,18.112501,19.793751,30.435,0.56777962,-0.00973715,-0.02884209,-0.82261755
'00:14:26.024,0.060059,0.028809,1.004883,0.365854,1.402439,-0.609756,-5.262500,18.112501,19.793751,30.465,0.56776392,-0.00972348,-0.02882290,-0.82262922
'00:14:26.034,0.060547,0.030273,1.002930,0.304878,1.341463,-0.548781,-5.150000,17.975000,19.625000,30.450,0.56775702,-0.00971918,-0.02881872,-0.82263418
'00:14:26.044,0.061035,0.031250,1.002441,0.304878,1.341463,-0.548781,-5.150000,17.975000,19.625000,30.435,0.56774993,-0.00971397,-0.02882206,-0.82263901
'00:14:26.054,0.061035,0.031250,1.002441,0.304878,1.341463,-0.548781,-5.593750,18.568750,20.043751,30.435,0.56772659,-0.00969374,-0.02880664,-0.82265590
'00:14:26.066,0.059570,0.028320,1.003418,0.426829,1.341463,-0.548781,-5.593750,18.568750,20.043751,30.405,0.56769957,-0.00966618,-0.02877338,-0.82267603
'00:14:26.074,0.059570,0.028320,1.003418,0.426829,1.341463,-0.548781,-5.012500,17.818750,19.512501,30.405,0.56769960,-0.00966498,-0.02877155,-0.82267609
'00:14:26.084,0.058594,0.030273,1.004395,0.365854,1.341463,-0.609756,-5.012500,17.818750,19.512501,30.450,0.56769484,-0.00965327,-0.02877179,-0.82267950
'00:14:26.094,0.059570,0.028809,1.004883,0.365854,1.341463,-0.609756,-4.800000,17.518751,19.312500,30.510,0.56769878,-0.00966093,-0.02877699,-0.82267651
'00:14:26.104,0.059082,0.029785,1.005371,0.365854,1.341463,-0.548781,-4.800000,17.518751,19.312500,30.435,0.56770688,-0.00966197,-0.02878550,-0.82267062
'00:14:26.115,0.059082,0.028809,1.004395,0.304878,1.341463,-0.609756,-5.118750,17.943750,19.643751,30.420,0.56769664,-0.00965699,-0.02876795,-0.82267835
'00:14:26.125,0.060059,0.030273,1.001953,0.304878,1.341463,-0.609756,-5.118750,17.943750,19.643751,30.420,0.56768707,-0.00965278,-0.02876511,-0.82268511
'00:14:26.134,0.060059,0.030273,1.001953,0.304878,1.341463,-0.609756,-4.962500,17.793751,19.568750,30.420,0.56768507,-0.00965535,-0.02877022,-0.82268628
'00:14:26.145,0.060547,0.029785,1.002930,0.304878,1.341463,-0.609756,-4.962500,17.793751,19.568750,30.405,0.56768272,-0.00966326,-0.02877498,-0.82268764
'00:14:26.154,0.059082,0.030273,1.002930,0.304878,1.341463,-0.548781,-4.825000,17.550001,19.256250,30.480,0.56768920,-0.00966450,-0.02878115,-0.82268293
'00:14:26.164,0.059082,0.030273,1.004395,0.304878,1.341463,-0.609756,-4.825000,17.550001,19.256250,30.450,0.56769201,-0.00966538,-0.02878736,-0.82268077
'00:14:26.175,0.058105,0.029785,1.003906,0.365854,1.341463,-0.609756,-4.825000,17.506250,19.312500,30.450,0.56769387,-0.00965875,-0.02879059,-0.82267945
'00:14:26.184,0.059082,0.030273,1.004395,0.304878,1.341463,-0.548781,-4.825000,17.506250,19.312500,30.435,0.56769916,-0.00965933,-0.02879493,-0.82267565
'00:14:26.194,0.059082,0.030273,1.003418,0.365854,1.280488,-0.548781,-4.843750,17.543751,19.343750,30.450,0.56770435,-0.00966095,-0.02880680,-0.82267163
'00:14:26.204,0.059570,0.029297,1.004395,0.304878,1.341463,-0.548781,-4.843750,17.543751,19.343750,30.510,0.56770980,-0.00966748,-0.02880703,-0.82266778
'00:14:26.214,0.061035,0.028809,1.000977,0.304878,1.341463,-0.609756,-4.987500,17.743750,19.493750,30.480,0.56770509,-0.00967884,-0.02880487,-0.82267097
'00:14:26.224,0.059082,0.029785,1.003418,0.365854,1.341463,-0.548781,-4.987500,17.743750,19.493750,30.435,0.56770469,-0.00967215,-0.02880412,-0.82267135
'00:14:26.234,0.059570,0.028809,1.004883,0.365854,1.341463,-0.548781,-5.300000,18.193750,19.831251,30.450,0.56769293,-0.00966071,-0.02878619,-0.82268023
'00:14:26.244,0.059570,0.030762,1.004883,0.426829,1.341463,-0.548781,-5.131250,17.912500,19.656250,30.450,0.56768613,-0.00964428,-0.02878975,-0.82268499
'00:14:26.254,0.060059,0.029297,1.002441,0.304878,1.341463,-0.548781,-5.131250,17.912500,19.656250,30.420,0.56767953,-0.00964295,-0.02877923,-0.82268993
'00:14:26.268,0.061035,0.028320,1.004883,0.365854,1.341463,-0.609756,-5.243750,18.100000,19.731251,30.450,0.56765993,-0.00964334,-0.02876180,-0.82270406
'00:14:26.274,0.059082,0.029297,1.002441,0.365854,1.341463,-0.548781,-5.243750,18.100000,19.731251,30.480,0.56765409,-0.00963543,-0.02875387,-0.82270846
'00:14:26.284,0.058594,0.029297,1.003906,0.304878,1.280488,-0.548781,-4.843750,17.581251,19.400000,30.435,0.56766038,-0.00964235,-0.02875539,-0.82270398
'00:14:26.294,0.060059,0.030273,1.004883,0.304878,1.341463,-0.548781,-4.843750,17.581251,19.400000,30.450,0.56766654,-0.00964883,-0.02876463,-0.82269934
'00:14:26.304,0.059570,0.029785,1.003906,0.304878,1.341463,-0.548781,-5.018750,17.806250,19.537500,30.450,0.56766550,-0.00964749,-0.02876104,-0.82270020
'00:14:26.314,0.059570,0.029785,1.002441,0.365854,1.341463,-0.548781,-5.018750,17.806250,19.537500,30.450,0.56766451,-0.00964347,-0.02876247,-0.82270088
'00:14:26.324,0.058594,0.030273,1.001953,0.365854,1.341463,-0.609756,-5.243750,18.200001,19.818750,30.420,0.56765217,-0.00962543,-0.02875516,-0.82270985
'00:14:26.334,0.059570,0.030273,1.002930,0.304878,1.341463,-0.548781,-5.243750,18.200001,19.818750,30.420,0.56764423,-0.00961595,-0.02874692,-0.82271573
'00:14:26.344,0.060547,0.029297,1.002930,0.304878,1.280488,-0.548781,-4.950000,17.756250,19.462500,30.450,0.56764707,-0.00963023,-0.02875235,-0.82271342
'00:14:26.354,0.059082,0.028809,1.005859,0.304878,1.341463,-0.609756,-4.950000,17.756250,19.462500,30.405,0.56764582,-0.00963301,-0.02874522,-0.82271450
'00:14:26.364,0.057617,0.028809,1.005371,0.304878,1.341463,-0.670732,-4.862500,17.550001,19.350000,30.435,0.56764187,-0.00962979,-0.02873479,-0.82271762
'00:14:26.374,0.060547,0.030762,1.003418,0.304878,1.341463,-0.609756,-4.862500,17.550001,19.350000,30.420,0.56764179,-0.00963575,-0.02874761,-0.82271716
'00:14:26.384,0.060547,0.029297,1.002441,0.365854,1.341463,-0.609756,-4.850000,17.537500,19.256250,30.420,0.56764300,-0.00964482,-0.02875756,-0.82271587
'00:14:26.394,0.060059,0.029297,1.003906,0.426829,1.341463,-0.487805,-4.850000,17.537500,19.256250,30.480,0.56765299,-0.00964803,-0.02876916,-0.82270853
'00:14:26.404,0.060059,0.029297,1.003418,0.304878,1.341463,-0.548781,-4.850000,17.500000,19.331251,30.420,0.56765724,-0.00965686,-0.02877095,-0.82270544
'00:14:26.414,0.060059,0.030273,1.003418,0.304878,1.402439,-0.609756,-4.850000,17.500000,19.331251,30.435,0.56765703,-0.00965717,-0.02877524,-0.82270543
'00:14:26.425,0.059082,0.028809,1.003418,0.304878,1.280488,-0.548781,-5.193750,18.012501,19.656250,30.435,0.56764787,-0.00965398,-0.02875750,-0.82271240
'00:14:26.434,0.060547,0.030273,1.004883,0.365854,1.341463,-0.548781,-5.193750,18.012501,19.656250,30.450,0.56764034,-0.00964662,-0.02875621,-0.82271773
'00:14:26.444,0.059082,0.029297,1.005371,0.304878,1.280488,-0.548781,-5.000000,17.812500,19.518751,30.465,0.56764087,-0.00964984,-0.02875232,-0.82271746
'00:14:26.454,0.059570,0.027344,1.004883,0.365854,1.341463,-0.548781,-5.000000,17.812500,19.518751,30.420,0.56764199,-0.00965595,-0.02874097,-0.82271702
'00:14:26.464,0.060059,0.028809,1.003418,0.365854,1.341463,-0.548781,-5.012500,17.743750,19.568750,30.435,0.56764011,-0.00965777,-0.02873766,-0.82271841
'00:14:26.478,0.060059,0.030273,1.001465,0.365854,1.341463,-0.548781,-4.962500,17.762501,19.443750,30.465,0.56764315,-0.00965695,-0.02875208,-0.82271582
'00:14:26.484,0.060059,0.030273,1.001465,0.365854,1.341463,-0.548781,-4.962500,17.762501,19.443750,30.480,0.56764443,-0.00965658,-0.02875813,-0.82271473
'00:14:26.494,0.061035,0.030762,1.002930,0.304878,1.341463,-0.548781,-4.818750,17.512501,19.318750,30.435,0.56765088,-0.00966713,-0.02877515,-0.82270956
'00:14:26.505,0.061035,0.029297,1.003418,0.304878,1.341463,-0.548781,-4.818750,17.512501,19.318750,30.435,0.56765825,-0.00968473,-0.02878417,-0.82270395
'00:14:26.514,0.061035,0.027832,1.004883,0.304878,1.280488,-0.548781,-5.200000,18.068750,19.706251,30.405,0.56765147,-0.00969475,-0.02877145,-0.82270895
'00:14:26.524,0.061035,0.028320,1.004395,0.304878,1.280488,-0.609756,-5.200000,18.068750,19.706251,30.435,0.56763950,-0.00970388,-0.02876044,-0.82271749
'00:14:26.534,0.060547,0.028809,1.003906,0.365854,1.341463,-0.609756,-5.050000,17.818750,19.450001,30.465,0.56763284,-0.00970578,-0.02875779,-0.82272215
'00:14:26.546,0.059082,0.029785,1.002930,0.426829,1.341463,-0.548781,-5.050000,17.818750,19.450001,30.435,0.56762999,-0.00969082,-0.02876017,-0.82272421
'00:14:26.554,0.058594,0.029785,1.003418,0.365854,1.341463,-0.548781,-4.850000,17.612501,19.362501,30.450,0.56763545,-0.00968831,-0.02876503,-0.82272031
'00:14:26.564,0.059570,0.029785,1.000977,0.304878,1.280488,-0.548781,-4.850000,17.612501,19.362501,30.435,0.56764198,-0.00969850,-0.02877439,-0.82271535
'00:14:26.574,0.059570,0.029785,1.003418,0.304878,1.341463,-0.609756,-4.787500,17.531250,19.312500,30.465,0.56764691,-0.00970607,-0.02878269,-0.82271157
'00:14:26.585,0.059570,0.030273,1.004883,0.304878,1.341463,-0.548781,-4.787500,17.531250,19.312500,30.495,0.56765699,-0.00971194,-0.02879400,-0.82270415
'00:14:26.594,0.061035,0.030273,1.004395,0.304878,1.341463,-0.609756,-4.893750,17.550001,19.337500,30.420,0.56765483,-0.00971824,-0.02880115,-0.82270532
'00:14:26.604,0.059570,0.028809,1.003418,0.365854,1.341463,-0.548781,-4.893750,17.550001,19.337500,30.480,0.56765719,-0.00972016,-0.02879982,-0.82270372
'00:14:26.614,0.060547,0.028809,1.004395,0.365854,1.341463,-0.609756,-4.968750,17.743750,19.462500,30.450,0.56765407,-0.00972548,-0.02880054,-0.82270578
'00:14:26.624,0.061523,0.028320,1.002930,0.365854,1.341463,-0.548781,-4.968750,17.743750,19.462500,30.420,0.56765537,-0.00973842,-0.02880276,-0.82270465
'00:14:26.634,0.061523,0.029297,1.003906,0.304878,1.341463,-0.548781,-5.037500,17.825001,19.637501,30.450,0.56765295,-0.00974771,-0.02880193,-0.82270624
'00:14:26.644,0.061523,0.029297,1.002441,0.304878,1.341463,-0.609756,-5.037500,17.825001,19.637501,30.405,0.56764612,-0.00975703,-0.02880174,-0.82271085
'00:14:26.654,0.060547,0.029297,1.004395,0.304878,1.341463,-0.548781,-4.912500,17.650000,19.393751,30.420,0.56764911,-0.00976504,-0.02880294,-0.82270865
'00:14:26.665,0.059082,0.030273,1.004883,0.304878,1.341463,-0.548781,-4.912500,17.650000,19.393751,30.420,0.56765220,-0.00976056,-0.02880388,-0.82270654
'00:14:26.674,0.058594,0.029785,1.003418,0.304878,1.341463,-0.609756,-4.825000,17.518751,19.387501,30.480,0.56765357,-0.00975950,-0.02880430,-0.82270559
'00:14:26.684,0.058594,0.029297,1.004883,0.365854,1.341463,-0.609756,-4.825000,17.518751,19.387501,30.450,0.56765526,-0.00975694,-0.02880577,-0.82270441
'00:14:26.694,0.058594,0.029785,1.004883,0.365854,1.341463,-0.548781,-4.812500,17.531250,19.387501,30.465,0.56766238,-0.00975359,-0.02881123,-0.82269934
'00:14:26.705,0.058594,0.029297,1.004395,0.365854,1.341463,-0.548781,-4.812500,17.531250,19.387501,30.465,0.56767030,-0.00975215,-0.02881427,-0.82269378
'00:14:26.714,0.059570,0.029297,1.002930,0.426829,1.341463,-0.548781,-4.887500,17.575001,19.318750,30.420,0.56767325,-0.00974962,-0.02882040,-0.82269156
'00:14:26.724,0.059570,0.029297,1.002930,0.304878,1.280488,-0.548781,-4.887500,17.575001,19.318750,30.435,0.56767626,-0.00975723,-0.02882137,-0.82268936
'00:14:26.734,0.060059,0.030273,1.001953,0.304878,1.280488,-0.548781,-5.118750,17.918751,19.662500,30.495,0.56767003,-0.00975574,-0.02881989,-0.82269373
'00:14:26.747,0.059570,0.029297,1.004395,0.304878,1.341463,-0.548781,-4.843750,17.543751,19.356251,30.435,0.56767693,-0.00976251,-0.02881980,-0.82268889
'00:14:26.754,0.060059,0.029785,1.004395,0.304878,1.341463,-0.609756,-4.843750,17.543751,19.356251,30.465,0.56767747,-0.00976652,-0.02882303,-0.82268836
'00:14:26.764,0.059570,0.028809,1.004395,0.365854,1.341463,-0.548781,-4.812500,17.487501,19.318750,30.450,0.56768389,-0.00977150,-0.02882563,-0.82268378
'00:14:26.774,0.059570,0.029785,1.003906,0.304878,1.341463,-0.548781,-4.812500,17.487501,19.318750,30.450,0.56769000,-0.00977565,-0.02882954,-0.82267938
'00:14:26.786,0.060547,0.029785,1.003418,0.304878,1.341463,-0.548781,-4.825000,17.537500,19.318750,30.435,0.56769762,-0.00978703,-0.02883913,-0.82267364
'00:14:26.794,0.058105,0.030273,1.003418,0.365854,1.280488,-0.548781,-4.825000,17.537500,19.318750,30.450,0.56770258,-0.00978317,-0.02884597,-0.82267003
'00:14:26.804,0.059570,0.030273,1.003906,0.304878,1.280488,-0.548781,-4.862500,17.543751,19.375000,30.465,0.56770594,-0.00978737,-0.02885255,-0.82266743
'00:14:26.814,0.061035,0.029297,1.004395,0.304878,1.280488,-0.548781,-4.862500,17.543751,19.375000,30.480,0.56770942,-0.00980329,-0.02885892,-0.82266462
'00:14:26.826,0.061035,0.029297,1.004395,0.304878,1.280488,-0.548781,-5.287500,18.156250,19.800001,30.480,0.56769458,-0.00980347,-0.02884458,-0.82267536
'00:14:26.834,0.060059,0.030273,1.005371,0.365854,1.341463,-0.548781,-5.287500,18.156250,19.800001,30.420,0.56768476,-0.00979041,-0.02883738,-0.82268254
'00:14:26.844,0.061035,0.028809,1.004395,0.365854,1.341463,-0.609756,-5.081250,17.987501,19.668751,30.525,0.56767863,-0.00979439,-0.02883599,-0.82268678
'00:14:26.854,0.060059,0.029297,1.003906,0.426829,1.341463,-0.548781,-5.081250,17.987501,19.668751,30.450,0.56767686,-0.00978839,-0.02883816,-0.82268799
'00:14:26.867,0.060547,0.030273,1.001953,0.365854,1.341463,-0.548781,-4.850000,17.643751,19.325001,30.420,0.56768602,-0.00979437,-0.02885914,-0.82268086
'00:14:26.874,0.060547,0.030273,1.001953,0.365854,1.341463,-0.548781,-4.850000,17.643751,19.325001,30.420,0.56769090,-0.00979749,-0.02887017,-0.82267707
'00:14:26.884,0.059082,0.028809,1.002930,0.304878,1.280488,-0.548781,-4.856250,17.556250,19.375000,30.450,0.56769528,-0.00980528,-0.02886736,-0.82267405
'00:14:26.894,0.059082,0.029785,1.003906,0.304878,1.280488,-0.548781,-4.856250,17.556250,19.375000,30.435,0.56769944,-0.00980889,-0.02886972,-0.82267106
'00:14:26.906,0.060547,0.029785,1.003906,0.304878,1.341463,-0.548781,-4.837500,17.512501,19.331251,30.435,0.56770505,-0.00981813,-0.02887624,-0.82266685
'00:14:26.914,0.060547,0.029785,1.003906,0.304878,1.341463,-0.548781,-4.837500,17.512501,19.331251,30.465,0.56770875,-0.00982416,-0.02888048,-0.82266407
'00:14:26.924,0.060059,0.029297,1.004395,0.365854,1.341463,-0.609756,-5.018750,17.775000,19.500000,30.450,0.56770224,-0.00982064,-0.02887729,-0.82266872
'00:14:26.934,0.060059,0.029297,1.002441,0.426829,1.341463,-0.548781,-5.018750,17.775000,19.500000,30.450,0.56770016,-0.00981475,-0.02887926,-0.82267015
'00:14:26.947,0.059570,0.031250,1.002930,0.243902,1.280488,-0.548781,-5.068750,17.893751,19.568750,30.450,0.56769547,-0.00980979,-0.02887876,-0.82267347
'00:14:26.954,0.059570,0.031250,1.002930,0.243902,1.280488,-0.548781,-5.068750,17.893751,19.568750,30.450,0.56769296,-0.00980719,-0.02887851,-0.82267524
'00:14:26.964,0.061035,0.030762,1.003418,0.304878,1.280488,-0.548781,-4.843750,17.575001,19.437500,30.420,0.56769786,-0.00981905,-0.02889526,-0.82267113
'00:14:26.974,0.061035,0.028809,1.003418,0.304878,1.341463,-0.548781,-4.843750,17.575001,19.437500,30.480,0.56770326,-0.00983400,-0.02889758,-0.82266714
'00:14:26.986,0.060547,0.028320,1.005371,0.243902,1.280488,-0.548781,-4.825000,17.525000,19.306250,30.465,0.56771041,-0.00985913,-0.02889283,-0.82266208
'00:14:26.994,0.060059,0.029297,1.004883,0.365854,1.341463,-0.609756,-4.825000,17.525000,19.306250,30.465,0.56771168,-0.00986199,-0.02889737,-0.82266101
'00:14:27.004,0.060059,0.029297,1.003418,0.365854,1.341463,-0.548781,-4.787500,17.537500,19.381250,30.435,0.56772022,-0.00986872,-0.02890656,-0.82265471
'00:14:27.014,0.059570,0.030273,1.002930,0.365854,1.341463,-0.548781,-4.787500,17.537500,19.381250,30.495,0.56772852,-0.00986883,-0.02891943,-0.82264853
'00:14:27.026,0.060059,0.030273,1.000977,0.365854,1.341463,-0.548781,-4.800000,17.506250,19.375000,30.420,0.56773645,-0.00987120,-0.02893573,-0.82264246
'00:14:27.034,0.059082,0.029785,1.002930,0.365854,1.341463,-0.609756,-5.131250,17.968750,19.662500,30.465,0.56772803,-0.00985938,-0.02892867,-0.82264866
'00:14:27.044,0.060059,0.030762,1.003906,0.304878,1.341463,-0.548781,-5.131250,17.968750,19.662500,30.480,0.56772167,-0.00984935,-0.02892431,-0.82265332
'00:14:27.054,0.060547,0.028809,1.004883,0.304878,1.341463,-0.548781,-5.056250,17.825001,19.550001,30.450,0.56771784,-0.00985156,-0.02891311,-0.82265632
'00:14:27.066,0.060547,0.028809,1.005371,0.426829,1.341463,-0.548781,-5.056250,17.825001,19.550001,30.435,0.56771342,-0.00984683,-0.02891015,-0.82265954
'00:14:27.074,0.059570,0.027832,1.005859,0.426829,1.341463,-0.548781,-4.850000,17.562500,19.350000,30.450,0.56771766,-0.00984906,-0.02890857,-0.82265664
'00:14:27.084,0.059570,0.029785,1.003906,0.426829,1.341463,-0.548781,-4.850000,17.562500,19.350000,30.420,0.56772252,-0.00984457,-0.02891842,-0.82265299
'00:14:27.094,0.060059,0.028809,1.001465,0.365854,1.341463,-0.548781,-4.856250,17.525000,19.306250,30.495,0.56772633,-0.00984916,-0.02891975,-0.82265027
'00:14:27.105,0.058594,0.029785,1.000488,0.304878,1.341463,-0.609756,-4.856250,17.525000,19.306250,30.420,0.56772544,-0.00984436,-0.02891670,-0.82265104
'00:14:27.114,0.059570,0.030273,1.000488,0.304878,1.341463,-0.548781,-4.881250,17.656250,19.387501,30.450,0.56772949,-0.00984425,-0.02892103,-0.82264810
'00:14:27.124,0.058594,0.030273,1.003418,0.365854,1.280488,-0.548781,-4.881250,17.656250,19.387501,30.420,0.56773392,-0.00983946,-0.02892823,-0.82264484
'00:14:27.134,0.061035,0.028809,1.005859,0.304878,1.341463,-0.548781,-5.243750,18.100000,19.743750,30.480,0.56772331,-0.00983761,-0.02891074,-0.82265280
'00:14:27.144,0.060547,0.028320,1.005859,0.243902,1.341463,-0.609756,-5.243750,18.100000,19.743750,30.435,0.56770845,-0.00983794,-0.02888474,-0.82266397
'00:14:27.154,0.061523,0.028320,1.006348,0.304878,1.341463,-0.548781,-5.068750,17.843750,19.631250,30.420,0.56770412,-0.00984704,-0.02887395,-0.82266723
'00:14:27.164,0.059570,0.028809,1.004883,0.365854,1.341463,-0.609756,-5.068750,17.843750,19.631250,30.450,0.56769542,-0.00984066,-0.02886360,-0.82267367
'00:14:27.174,0.059570,0.028809,1.001953,0.365854,1.341463,-0.548781,-4.868750,17.562500,19.337500,30.420,0.56769934,-0.00984252,-0.02886372,-0.82267094
'00:14:27.184,0.058594,0.030273,1.000977,0.365854,1.341463,-0.609756,-4.868750,17.562500,19.337500,30.450,0.56769858,-0.00983323,-0.02886878,-0.82267139
'00:14:27.194,0.058105,0.031250,1.000488,0.304878,1.341463,-0.548781,-4.825000,17.493750,19.312500,30.435,0.56770347,-0.00982239,-0.02887504,-0.82266793
'00:14:27.204,0.058594,0.030762,1.002930,0.243902,1.280488,-0.548781,-4.825000,17.493750,19.312500,30.435,0.56770825,-0.00982324,-0.02887798,-0.82266452
'00:14:27.214,0.059082,0.030273,1.004395,0.365854,1.280488,-0.548781,-4.800000,17.468750,19.293751,30.450,0.56771445,-0.00982350,-0.02888953,-0.82265983
'00:14:27.224,0.060547,0.028320,1.005371,0.365854,1.280488,-0.548781,-4.800000,17.468750,19.293751,30.435,0.56772097,-0.00983932,-0.02889504,-0.82265495
'00:14:27.234,0.060059,0.029297,1.005859,0.304878,1.341463,-0.548781,-5.100000,17.862501,19.550001,30.405,0.56771509,-0.00983494,-0.02888246,-0.82265950
'00:14:27.244,0.061035,0.029297,1.003906,0.365854,1.341463,-0.548781,-5.100000,17.862501,19.550001,30.405,0.56770927,-0.00983335,-0.02887893,-0.82266366
'00:14:27.254,0.060059,0.030273,1.002441,0.365854,1.341463,-0.548781,-5.050000,17.843750,19.525000,30.480,0.56770631,-0.00982566,-0.02888115,-0.82266572
'00:14:27.264,0.060547,0.029785,1.000977,0.365854,1.341463,-0.548781,-5.050000,17.843750,19.525000,30.480,0.56770344,-0.00982294,-0.02888307,-0.82266766
'00:14:27.274,0.060547,0.030273,1.000977,0.365854,1.341463,-0.609756,-4.843750,17.606251,19.356251,30.480,0.56770529,-0.00982690,-0.02889832,-0.82266580
'00:14:27.284,0.059570,0.029297,1.001953,0.304878,1.341463,-0.609756,-4.825000,17.487501,19.331251,30.435,0.56770589,-0.00983148,-0.02889790,-0.82266535
'00:14:27.294,0.059570,0.028809,1.004395,0.304878,1.280488,-0.609756,-4.825000,17.487501,19.331251,30.420,0.56770645,-0.00984175,-0.02889675,-0.82266488
'00:14:27.304,0.059570,0.029297,1.005859,0.304878,1.341463,-0.548781,-4.812500,17.562500,19.350000,30.465,0.56771401,-0.00984728,-0.02889749,-0.82265957
'00:14:27.314,0.060059,0.029297,1.005859,0.365854,1.341463,-0.609756,-4.812500,17.562500,19.350000,30.450,0.56771720,-0.00985223,-0.02890448,-0.82265706
'00:14:27.324,0.060547,0.029297,1.004883,0.365854,1.402439,-0.609756,-4.837500,17.531250,19.356251,30.405,0.56771796,-0.00985366,-0.02890787,-0.82265640
'00:14:27.334,0.059082,0.029785,1.002930,0.304878,1.341463,-0.548781,-4.837500,17.531250,19.356251,30.465,0.56772282,-0.00985298,-0.02890767,-0.82265307
'00:14:27.344,0.059082,0.030273,1.001465,0.365854,1.341463,-0.548781,-5.275000,18.162500,19.775000,30.495,0.56771130,-0.00983202,-0.02889647,-0.82266166
'00:14:27.358,0.058594,0.030273,1.000977,0.304878,1.341463,-0.548781,-5.275000,18.162500,19.775000,30.420,0.56769525,-0.00980385,-0.02887272,-0.82267390
'00:14:27.364,0.059570,0.029297,1.002930,0.304878,1.280488,-0.548781,-5.125000,17.931250,19.631250,30.420,0.56769151,-0.00980283,-0.02886660,-0.82267672
'00:14:27.374,0.060059,0.029297,1.004883,0.304878,1.280488,-0.548781,-5.125000,17.931250,19.631250,30.420,0.56768529,-0.00980341,-0.02885762,-0.82268131
'00:14:27.384,0.060059,0.028320,1.004883,0.365854,1.280488,-0.609756,-4.862500,17.562500,19.393751,30.420,0.56768510,-0.00981463,-0.02885930,-0.82268125
'00:14:27.394,0.059082,0.029297,1.004883,0.304878,1.280488,-0.609756,-4.862500,17.562500,19.393751,30.435,0.56768466,-0.00981946,-0.02885832,-0.82268153
'00:14:27.404,0.060059,0.029297,1.005859,0.365854,1.402439,-0.548781,-4.856250,17.587500,19.393751,30.420,0.56768995,-0.00981853,-0.02886012,-0.82267783
'00:14:27.414,0.059082,0.030762,1.002930,0.365854,1.341463,-0.548781,-4.856250,17.587500,19.393751,30.435,0.56769477,-0.00981143,-0.02887059,-0.82267422
'00:14:27.424,0.060547,0.030273,1.001465,0.365854,1.280488,-0.548781,-4.806250,17.556250,19.325001,30.465,0.56770248,-0.00982158,-0.02889070,-0.82266808
'00:14:27.434,0.059082,0.029785,1.001465,0.365854,1.280488,-0.548781,-4.806250,17.556250,19.325001,30.435,0.56771027,-0.00982532,-0.02890200,-0.82266225
'00:14:27.444,0.060059,0.028809,1.004395,0.365854,1.341463,-0.548781,-5.131250,18.006250,19.631250,30.435,0.56770554,-0.00982069,-0.02889255,-0.82266591
'00:14:27.454,0.060059,0.029297,1.004883,0.365854,1.341463,-0.548781,-5.131250,18.006250,19.631250,30.450,0.56770075,-0.00981419,-0.02888578,-0.82266953
'00:14:27.464,0.060059,0.028809,1.004395,0.304878,1.341463,-0.548781,-5.087500,17.950001,19.581251,30.435,0.56769784,-0.00981444,-0.02887428,-0.82267194
'00:14:27.474,0.059570,0.030273,1.005371,0.304878,1.341463,-0.609756,-5.087500,17.950001,19.581251,30.435,0.56769031,-0.00980609,-0.02886891,-0.82267742
'00:14:27.484,0.060059,0.030273,1.003906,0.365854,1.341463,-0.609756,-4.812500,17.537500,19.318750,30.405,0.56769301,-0.00980793,-0.02888231,-0.82267506
'00:14:27.494,0.059570,0.030273,1.003906,0.304878,1.341463,-0.548781,-4.812500,17.537500,19.318750,30.450,0.56770002,-0.00981017,-0.02888918,-0.82266996
'00:14:27.504,0.060547,0.029297,1.003418,0.365854,1.341463,-0.548781,-4.781250,17.500000,19.331251,30.450,0.56770844,-0.00982017,-0.02890022,-0.82266364
'00:14:27.514,0.060059,0.030762,1.003418,0.304878,1.341463,-0.609756,-4.781250,17.500000,19.331251,30.510,0.56771208,-0.00982434,-0.02891318,-0.82266062
'00:14:27.524,0.059570,0.029785,1.002441,0.304878,1.341463,-0.548781,-4.800000,17.518751,19.312500,30.420,0.56771949,-0.00982896,-0.02891780,-0.82265529
'00:14:27.534,0.060547,0.029297,1.004883,0.304878,1.341463,-0.548781,-4.800000,17.518751,19.312500,30.435,0.56772694,-0.00984028,-0.02892233,-0.82264986
'00:14:27.544,0.060547,0.029297,1.004883,0.304878,1.341463,-0.548781,-5.125000,18.018751,19.662500,30.435,0.56772250,-0.00983965,-0.02891313,-0.82265325
'00:14:27.554,0.060547,0.029785,1.004395,0.304878,1.280488,-0.548781,-4.968750,17.762501,19.500000,30.465,0.56772301,-0.00984693,-0.02891601,-0.82265271
'00:14:27.564,0.059570,0.029785,1.004883,0.365854,1.341463,-0.548781,-4.968750,17.762501,19.500000,30.435,0.56772374,-0.00984125,-0.02891627,-0.82265227
'00:14:27.574,0.060059,0.029297,1.003906,0.304878,1.341463,-0.548781,-4.868750,17.587500,19.412500,30.435,0.56772759,-0.00984688,-0.02891535,-0.82264958
'00:14:27.584,0.061035,0.029785,1.002930,0.365854,1.341463,-0.548781,-4.868750,17.587500,19.412500,30.420,0.56773132,-0.00985308,-0.02892570,-0.82264656
'00:14:27.595,0.058594,0.030273,1.002930,0.365854,1.280488,-0.548781,-4.812500,17.506250,19.281250,30.450,0.56773799,-0.00984975,-0.02893591,-0.82264164
'00:14:27.604,0.061035,0.028809,1.003906,0.304878,1.341463,-0.609756,-4.812500,17.506250,19.281250,30.465,0.56773977,-0.00986283,-0.02893814,-0.82264018
'00:14:27.614,0.060059,0.029297,1.002930,0.304878,1.341463,-0.609756,-4.825000,17.487501,19.381250,30.465,0.56773989,-0.00986934,-0.02893826,-0.82264001
'00:14:27.624,0.060059,0.029297,1.003418,0.304878,1.341463,-0.609756,-4.825000,17.487501,19.381250,30.465,0.56774001,-0.00987564,-0.02893818,-0.82263986
'00:14:27.634,0.059570,0.028809,1.003418,0.304878,1.341463,-0.609756,-4.950000,17.775000,19.500000,30.465,0.56773794,-0.00987771,-0.02893047,-0.82264154
'00:14:27.644,0.059082,0.028809,1.004395,0.304878,1.341463,-0.548781,-4.950000,17.775000,19.500000,30.450,0.56774028,-0.00987703,-0.02892058,-0.82264028
'00:14:27.654,0.059570,0.028320,1.004395,0.365854,1.341463,-0.548781,-5.175000,18.037500,19.731251,30.389,0.56773287,-0.00986891,-0.02890334,-0.82264609
'00:14:27.664,0.060059,0.028809,1.004883,0.365854,1.341463,-0.548781,-5.175000,18.037500,19.731251,30.420,0.56772542,-0.00986164,-0.02889079,-0.82265176
'00:14:27.674,0.059082,0.030273,1.002930,0.365854,1.341463,-0.609756,-5.087500,17.962500,19.668751,30.420,0.56771767,-0.00984768,-0.02888854,-0.82265735
'00:14:27.684,0.061035,0.029785,1.003418,0.304878,1.341463,-0.548781,-5.087500,17.962500,19.668751,30.420,0.56771435,-0.00984955,-0.02888644,-0.82265970
'00:14:27.694,0.059082,0.029297,1.004883,0.365854,1.341463,-0.548781,-4.843750,17.531250,19.375000,30.450,0.56771892,-0.00984715,-0.02888691,-0.82265656
'00:14:27.704,0.060059,0.028809,1.005371,0.304878,1.341463,-0.548781,-4.843750,17.531250,19.375000,30.420,0.56772350,-0.00985501,-0.02888380,-0.82265341
'00:14:27.714,0.059570,0.029785,1.003418,0.365854,1.341463,-0.548781,-4.818750,17.581251,19.375000,30.495,0.56773084,-0.00985583,-0.02889268,-0.82264802
'00:14:27.724,0.060547,0.030273,1.002441,0.304878,1.341463,-0.548781,-4.818750,17.581251,19.375000,30.405,0.56773793,-0.00986332,-0.02890395,-0.82264264
'00:14:27.734,0.061035,0.029785,1.003418,0.243902,1.341463,-0.609756,-4.812500,17.537500,19.456251,30.480,0.56773968,-0.00987799,-0.02890867,-0.82264110
'00:14:27.744,0.061035,0.030273,1.003906,0.304878,1.341463,-0.609756,-4.812500,17.537500,19.456251,30.465,0.56774134,-0.00988737,-0.02892025,-0.82263943
'00:14:27.754,0.060547,0.029297,1.004395,0.365854,1.341463,-0.609756,-5.050000,17.787500,19.487501,30.374,0.56773276,-0.00988370,-0.02891604,-0.82264554
'00:14:27.764,0.060059,0.029785,1.004395,0.304878,1.341463,-0.609756,-5.050000,17.787500,19.487501,30.465,0.56772408,-0.00987859,-0.02890843,-0.82265186
'00:14:27.774,0.059082,0.029785,1.003418,0.365854,1.341463,-0.609756,-5.181250,18.056250,19.693750,30.450,0.56771225,-0.00986214,-0.02889824,-0.82266058
'00:14:27.784,0.059570,0.030273,1.004395,0.365854,1.341463,-0.609756,-5.181250,18.056250,19.693750,30.420,0.56770039,-0.00984656,-0.02889244,-0.82266916
'00:14:27.794,0.058594,0.029297,1.003418,0.365854,1.341463,-0.548781,-4.756250,17.468750,19.325001,30.405,0.56770987,-0.00984625,-0.02889702,-0.82266245
'00:14:27.804,0.060059,0.030273,1.004395,0.365854,1.341463,-0.548781,-4.756250,17.468750,19.325001,30.450,0.56771905,-0.00985000,-0.02891238,-0.82265554
'00:14:27.814,0.060059,0.029785,1.002441,0.304878,1.341463,-0.548781,-4.818750,17.537500,19.318750,30.480,0.56772547,-0.00985602,-0.02891780,-0.82265084
'00:14:27.824,0.060059,0.028320,1.003418,0.304878,1.341463,-0.548781,-4.787500,17.500000,19.256250,30.450,0.56773373,-0.00986872,-0.02891608,-0.82264505
'00:14:27.834,0.060547,0.029785,1.002930,0.304878,1.341463,-0.548781,-4.787500,17.500000,19.256250,30.495,0.56774161,-0.00987825,-0.02892473,-0.82263919
'00:14:27.844,0.059570,0.030273,1.004395,0.426829,1.341463,-0.609756,-5.031250,17.818750,19.600000,30.420,0.56773446,-0.00986440,-0.02892844,-0.82264417
'00:14:27.854,0.060547,0.029785,1.002441,0.365854,1.341463,-0.548781,-5.031250,17.818750,19.600000,30.450,0.56773172,-0.00986160,-0.02892948,-0.82264605
'00:14:27.864,0.060547,0.030273,1.001465,0.304878,1.341463,-0.548781,-5.181250,18.131250,19.750000,30.420,0.56772554,-0.00985615,-0.02892516,-0.82265053
'00:14:27.874,0.059570,0.030273,1.003906,0.304878,1.341463,-0.609756,-5.181250,18.131250,19.750000,30.420,0.56771507,-0.00984485,-0.02891635,-0.82265821
'00:14:27.884,0.060059,0.029297,1.004883,0.304878,1.280488,-0.548781,-4.868750,17.575001,19.393751,30.480,0.56771857,-0.00985438,-0.02891782,-0.82265562
'00:14:27.894,0.060059,0.029785,1.003418,0.304878,1.280488,-0.548781,-4.868750,17.575001,19.393751,30.420,0.56772193,-0.00986215,-0.02892259,-0.82265304
'00:14:27.904,0.059570,0.029297,1.004395,0.304878,1.280488,-0.548781,-4.818750,17.531250,19.356251,30.450,0.56772799,-0.00987117,-0.02892514,-0.82264867
'00:14:27.914,0.060547,0.029297,1.003418,0.365854,1.341463,-0.609756,-4.818750,17.531250,19.356251,30.465,0.56772978,-0.00987810,-0.02893319,-0.82264706
'00:14:27.924,0.060547,0.029297,1.003418,0.365854,1.402439,-0.548781,-4.881250,17.581251,19.356251,30.480,0.56773292,-0.00987750,-0.02893435,-0.82264486
'00:14:27.934,0.059570,0.029785,1.003418,0.304878,1.341463,-0.548781,-4.881250,17.581251,19.356251,30.435,0.56773578,-0.00987701,-0.02893313,-0.82264294
'00:14:27.944,0.060059,0.028809,1.003418,0.365854,1.280488,-0.548781,-4.881250,17.543751,19.343750,30.435,0.56773787,-0.00988382,-0.02893479,-0.82264136
'00:14:27.954,0.059570,0.029297,1.003906,0.365854,1.341463,-0.548781,-4.881250,17.543751,19.343750,30.450,0.56774001,-0.00988145,-0.02893407,-0.82263993
'00:14:27.964,0.059570,0.029785,1.004395,0.304878,1.280488,-0.609756,-5.143750,18.000000,19.637501,30.450,0.56772926,-0.00987592,-0.02892508,-0.82264773
'00:14:27.974,0.060547,0.029785,1.004395,0.365854,1.341463,-0.609756,-5.143750,18.000000,19.637501,30.435,0.56771875,-0.00986842,-0.02892131,-0.82265521
'00:14:27.984,0.060059,0.029785,1.003906,0.365854,1.280488,-0.609756,-4.918750,17.712500,19.443750,30.450,0.56771736,-0.00987169,-0.02892955,-0.82265584
'00:14:27.994,0.060059,0.030273,1.002930,0.304878,1.341463,-0.609756,-4.918750,17.712500,19.443750,30.450,0.56771595,-0.00987184,-0.02893340,-0.82265667
'00:14:28.004,0.061035,0.029785,1.002930,0.304878,1.341463,-0.548781,-4.812500,17.518751,19.387501,30.420,0.56772197,-0.00988317,-0.02894190,-0.82265209
'00:14:28.014,0.060059,0.028809,1.002441,0.304878,1.341463,-0.548781,-4.812500,17.518751,19.387501,30.405,0.56772817,-0.00989283,-0.02894107,-0.82264772
'00:14:28.024,0.061035,0.029297,1.002930,0.304878,1.341463,-0.609756,-4.781250,17.531250,19.418751,30.450,0.56773218,-0.00990780,-0.02894935,-0.82264448
'00:14:28.034,0.061035,0.029297,1.003906,0.304878,1.341463,-0.548781,-4.781250,17.531250,19.418751,30.450,0.56774051,-0.00992245,-0.02895701,-0.82263828
'00:14:28.044,0.059570,0.029785,1.004883,0.304878,1.341463,-0.548781,-4.793750,17.550001,19.350000,30.465,0.56774862,-0.00992582,-0.02896083,-0.82263252
'00:14:28.054,0.059570,0.029297,1.003906,0.365854,1.341463,-0.609756,-4.793750,17.550001,19.350000,30.420,0.56775245,-0.00992808,-0.02896659,-0.82262964
'00:14:28.064,0.059570,0.029785,1.002930,0.365854,1.341463,-0.548781,-5.131250,18.000000,19.687500,30.480,0.56774671,-0.00991567,-0.02895960,-0.82263399
'00:14:28.074,0.060059,0.029785,1.002930,0.365854,1.341463,-0.548781,-5.187500,18.000000,19.687500,30.405,0.56773730,-0.00990293,-0.02895048,-0.82264097
'00:14:28.084,0.059570,0.029785,1.003418,0.365854,1.341463,-0.548781,-5.187500,18.000000,19.687500,30.480,0.56772797,-0.00988766,-0.02893953,-0.82264797
'00:14:28.094,0.059570,0.029297,1.004883,0.365854,1.341463,-0.548781,-4.806250,17.550001,19.318750,30.450,0.56773562,-0.00988967,-0.02894443,-0.82264250
'00:14:28.104,0.060059,0.029297,1.003418,0.304878,1.341463,-0.548781,-4.806250,17.550001,19.318750,30.420,0.56774315,-0.00989765,-0.02894731,-0.82263711
'00:14:28.114,0.060547,0.029297,1.003906,0.365854,1.341463,-0.548781,-4.843750,17.550001,19.337500,30.450,0.56774797,-0.00990279,-0.02895319,-0.82263351
'00:14:28.124,0.061035,0.029297,1.003906,0.365854,1.341463,-0.548781,-4.843750,17.550001,19.337500,30.450,0.56775273,-0.00991051,-0.02896083,-0.82262986
'00:14:28.134,0.060547,0.030762,1.002930,0.304878,1.341463,-0.609756,-4.806250,17.593750,19.343750,30.420,0.56775636,-0.00991565,-0.02897478,-0.82262680
'00:14:28.144,0.060059,0.029785,1.002930,0.304878,1.341463,-0.548781,-4.806250,17.593750,19.343750,30.480,0.56776454,-0.00992198,-0.02898101,-0.82262086
'00:14:28.154,0.060547,0.029785,1.003418,0.304878,1.280488,-0.609756,-5.218750,18.175001,19.775000,30.420,0.56775211,-0.00991966,-0.02897351,-0.82262974
'00:14:28.164,0.059570,0.029785,1.004395,0.365854,1.341463,-0.548781,-5.218750,18.175001,19.775000,30.450,0.56774433,-0.00990472,-0.02896343,-0.82263564
'00:14:28.174,0.059082,0.030762,1.004883,0.365854,1.341463,-0.548781,-5.225000,18.150000,19.762501,30.465,0.56773550,-0.00988286,-0.02895589,-0.82264226
'00:14:28.184,0.059082,0.029297,1.003906,0.304878,1.341463,-0.609756,-5.225000,18.150000,19.762501,30.480,0.56772262,-0.00986999,-0.02893653,-0.82265199
'00:14:28.194,0.059082,0.028320,1.004395,0.365854,1.341463,-0.609756,-4.843750,17.525000,19.306250,30.405,0.56772300,-0.00987067,-0.02893086,-0.82265191
'00:14:28.204,0.059570,0.028809,1.003418,0.304878,1.341463,-0.548781,-4.843750,17.525000,19.306250,30.450,0.56772759,-0.00987551,-0.02892589,-0.82264887
'00:14:28.214,0.059082,0.029785,1.004883,0.365854,1.280488,-0.548781,-4.812500,17.568750,19.387501,30.435,0.56773477,-0.00987754,-0.02893474,-0.82264357
'00:14:28.224,0.060547,0.029785,1.003906,0.304878,1.280488,-0.548781,-4.812500,17.568750,19.387501,30.465,0.56774178,-0.00989085,-0.02894509,-0.82263821
'00:14:28.234,0.061523,0.030273,1.003906,0.365854,1.341463,-0.548781,-4.843750,17.543751,19.418751,30.480,0.56774588,-0.00989782,-0.02895998,-0.82263477
'00:14:28.244,0.060059,0.029297,1.004395,0.304878,1.341463,-0.548781,-4.843750,17.543751,19.418751,30.480,0.56775014,-0.00990331,-0.02895884,-0.82263180
'00:14:28.254,0.060547,0.029297,1.002930,0.243902,1.341463,-0.548781,-4.793750,17.543751,19.343750,30.435,0.56775811,-0.00991761,-0.02895989,-0.82262609
'00:14:28.264,0.059082,0.029297,1.003418,0.304878,1.341463,-0.548781,-4.793750,17.543751,19.343750,30.450,0.56776615,-0.00992042,-0.02895939,-0.82262053
'00:14:28.274,0.059082,0.029297,1.002930,0.304878,1.341463,-0.548781,-4.962500,17.731251,19.481251,30.465,0.56776635,-0.00991597,-0.02895022,-0.82262077
'00:14:28.284,0.058594,0.029785,1.003906,0.304878,1.280488,-0.548781,-4.962500,17.731251,19.481251,30.389,0.56776634,-0.00991119,-0.02894471,-0.82262103
'00:14:28.294,0.060547,0.029785,1.004395,0.304878,1.341463,-0.548781,-4.856250,17.643751,19.462500,30.450,0.56777175,-0.00991794,-0.02894972,-0.82261704
'00:14:28.304,0.060547,0.029785,1.004395,0.304878,1.341463,-0.548781,-4.856250,17.643751,19.462500,30.450,0.56777712,-0.00992457,-0.02895462,-0.82261308
'00:14:28.315,0.059570,0.030273,1.003418,0.365854,1.341463,-0.548781,-4.775000,17.493750,19.293751,30.450,0.56778607,-0.00992328,-0.02896751,-0.82260646
'00:14:28.324,0.059570,0.030273,1.003418,0.365854,1.341463,-0.548781,-4.775000,17.493750,19.293751,30.450,0.56779334,-0.00992220,-0.02897785,-0.82260109
'00:14:28.334,0.060059,0.029785,1.002441,0.365854,1.341463,-0.548781,-4.793750,17.543751,19.312500,30.465,0.56780126,-0.00992540,-0.02898831,-0.82259522
'00:14:28.344,0.060059,0.029297,1.001465,0.365854,1.341463,-0.548781,-4.756250,17.518751,19.312500,30.435,0.56781126,-0.00993266,-0.02899854,-0.82258787
'00:14:28.354,0.059570,0.030273,1.002930,0.365854,1.341463,-0.548781,-4.756250,17.518751,19.312500,30.435,0.56782103,-0.00993285,-0.02901165,-0.82258066
'00:14:28.364,0.059570,0.028809,1.003906,0.304878,1.341463,-0.548781,-5.068750,17.912500,19.637501,30.450,0.56781747,-0.00992897,-0.02899616,-0.82258371
'00:14:28.374,0.059570,0.029297,1.004883,0.365854,1.341463,-0.548781,-5.068750,17.912500,19.637501,30.435,0.56781391,-0.00992007,-0.02898766,-0.82258657
'00:14:28.384,0.059082,0.028809,1.004883,0.304878,1.341463,-0.548781,-5.137500,18.050001,19.625000,30.435,0.56780913,-0.00991146,-0.02896871,-0.82259064
'00:14:28.394,0.060547,0.029297,1.004395,0.304878,1.341463,-0.609756,-5.137500,18.050001,19.625000,30.420,0.56779991,-0.00990902,-0.02895855,-0.82259740
'00:14:28.404,0.059570,0.030273,1.003418,0.304878,1.402439,-0.609756,-4.818750,17.518751,19.356251,30.450,0.56780098,-0.00990431,-0.02895982,-0.82259667
'00:14:28.414,0.060059,0.030273,1.001953,0.426829,1.341463,-0.548781,-4.818750,17.518751,19.356251,30.495,0.56780635,-0.00990119,-0.02897527,-0.82259246
'00:14:28.424,0.059570,0.031250,1.000000,0.304878,1.341463,-0.609756,-4.825000,17.562500,19.350000,30.450,0.56780762,-0.00989800,-0.02898679,-0.82259121
'00:14:28.434,0.058594,0.029785,1.001465,0.304878,1.280488,-0.609756,-4.825000,17.562500,19.350000,30.435,0.56780909,-0.00989925,-0.02898843,-0.82259012
'00:14:28.446,0.059082,0.029785,1.004883,0.304878,1.341463,-0.548781,-4.850000,17.568750,19.418751,30.450,0.56781403,-0.00989653,-0.02898494,-0.82258687
'00:14:28.454,0.061035,0.028809,1.007812,0.304878,1.341463,-0.548781,-4.850000,17.568750,19.418751,30.465,0.56781744,-0.00990596,-0.02898333,-0.82258446
'00:14:28.464,0.061035,0.028320,1.006836,0.365854,1.402439,-0.609756,-5.356250,18.262501,19.868750,30.450,0.56779830,-0.00989312,-0.02895850,-0.82259870
'00:14:28.474,0.060547,0.029297,1.005371,0.365854,1.341463,-0.609756,-5.356250,18.262501,19.868750,30.465,0.56777893,-0.00987898,-0.02894120,-0.82261285
'00:14:28.484,0.060547,0.030762,1.003906,0.365854,1.341463,-0.609756,-5.181250,17.975000,19.700001,30.465,0.56776471,-0.00986530,-0.02893905,-0.82262290
'00:14:28.494,0.059082,0.030273,1.000977,0.365854,1.341463,-0.609756,-5.181250,17.975000,19.700001,30.465,0.56775068,-0.00984639,-0.02892992,-0.82263314
'00:14:28.504,0.058105,0.030273,1.000000,0.365854,1.341463,-0.609756,-4.781250,17.506250,19.325001,30.480,0.56775447,-0.00983878,-0.02893774,-0.82263033
'00:14:28.514,0.059570,0.030762,1.001953,0.304878,1.280488,-0.548781,-4.781250,17.506250,19.325001,30.420,0.56776226,-0.00984465,-0.02895173,-0.82262439
'00:14:28.524,0.058594,0.028320,1.004395,0.304878,1.280488,-0.609756,-4.793750,17.550001,19.337500,30.450,0.56776633,-0.00985379,-0.02894687,-0.82262165
'00:14:28.534,0.059570,0.028320,1.007812,0.304878,1.341463,-0.548781,-4.793750,17.550001,19.337500,30.435,0.56777488,-0.00986325,-0.02894144,-0.82261582
'00:14:28.544,0.059570,0.028809,1.005859,0.304878,1.402439,-0.609756,-4.781250,17.493750,19.268751,30.450,0.56777889,-0.00986632,-0.02893643,-0.82261320
'00:14:28.554,0.060059,0.028809,1.003418,0.304878,1.341463,-0.548781,-4.781250,17.493750,19.268751,30.420,0.56778706,-0.00987710,-0.02893729,-0.82260740
'00:14:28.564,0.058594,0.029785,1.001953,0.304878,1.341463,-0.548781,-5.125000,17.962500,19.625000,30.435,0.56778111,-0.00986300,-0.02892278,-0.82261218
'00:14:28.574,0.059082,0.030762,1.002441,0.304878,1.341463,-0.548781,-5.125000,17.962500,19.625000,30.450,0.56777502,-0.00984796,-0.02891563,-0.82261682
'00:14:28.584,0.059082,0.030762,1.000977,0.304878,1.341463,-0.548781,-4.956250,17.693750,19.462500,30.450,0.56777469,-0.00983914,-0.02891590,-0.82261714
'00:14:28.594,0.059082,0.029297,1.002930,0.365854,1.341463,-0.609756,-4.875000,17.600000,19.456251,30.435,0.56777378,-0.00983619,-0.02891555,-0.82261782
'00:14:28.604,0.059570,0.029297,1.005859,0.304878,1.280488,-0.548781,-4.875000,17.600000,19.456251,30.420,0.56777704,-0.00984292,-0.02891454,-0.82261552
'00:14:28.615,0.060547,0.028809,1.005859,0.365854,1.402439,-0.548781,-4.750000,17.537500,19.287500,30.405,0.56778984,-0.00985235,-0.02892224,-0.82260631
'00:14:28.624,0.059570,0.028809,1.004395,0.304878,1.341463,-0.548781,-4.750000,17.537500,19.287500,30.405,0.56780009,-0.00986197,-0.02892429,-0.82259904
'00:14:28.635,0.059082,0.029785,1.002930,0.365854,1.341463,-0.548781,-4.756250,17.537500,19.306250,30.435,0.56781183,-0.00986295,-0.02893559,-0.82259053
'00:14:28.644,0.058594,0.030273,1.001953,0.365854,1.280488,-0.548781,-4.756250,17.537500,19.306250,30.450,0.56782116,-0.00986362,-0.02894851,-0.82258363
'00:14:28.654,0.058594,0.029785,1.001953,0.365854,1.341463,-0.548781,-4.837500,17.525000,19.381250,30.465,0.56782540,-0.00985686,-0.02894992,-0.82258073
'00:14:28.664,0.060059,0.030762,1.002930,0.365854,1.341463,-0.548781,-4.837500,17.525000,19.381250,30.450,0.56782938,-0.00985429,-0.02896216,-0.82257758
'00:14:28.674,0.059570,0.029785,1.003906,0.304878,1.341463,-0.609756,-5.250000,18.200001,19.762501,30.450,0.56781566,-0.00984164,-0.02894636,-0.82258776
'00:14:28.684,0.060059,0.029297,1.003906,0.365854,1.341463,-0.548781,-5.250000,18.200001,19.762501,30.480,0.56780655,-0.00983086,-0.02893436,-0.82259460
'00:14:28.694,0.059570,0.028809,1.005371,0.365854,1.341463,-0.609756,-4.943750,17.718750,19.462500,30.465,0.56780368,-0.00982948,-0.02892939,-0.82259678
'00:14:28.704,0.060059,0.029297,1.004395,0.304878,1.341463,-0.609756,-4.943750,17.718750,19.462500,30.450,0.56780065,-0.00983214,-0.02892513,-0.82259899
'00:14:28.715,0.060547,0.028809,1.004395,0.304878,1.341463,-0.609756,-4.831250,17.587500,19.350000,30.420,0.56780306,-0.00984533,-0.02892593,-0.82259714
'00:14:28.724,0.060059,0.029785,1.002930,0.304878,1.341463,-0.548781,-4.831250,17.587500,19.350000,30.435,0.56780876,-0.00985049,-0.02893032,-0.82259299
'00:14:28.734,0.060059,0.029785,1.004395,0.243902,1.341463,-0.609756,-4.787500,17.518751,19.418751,30.435,0.56781177,-0.00986066,-0.02893181,-0.82259073
'00:14:28.744,0.060547,0.029297,1.003906,0.304878,1.341463,-0.548781,-4.787500,17.518751,19.418751,30.435,0.56781926,-0.00987255,-0.02893688,-0.82258524
'00:14:28.754,0.060547,0.030273,1.004395,0.304878,1.341463,-0.548781,-4.800000,17.575001,19.412500,30.480,0.56782697,-0.00988022,-0.02894756,-0.82257945
'00:14:28.764,0.059082,0.028809,1.003418,0.365854,1.341463,-0.548781,-4.800000,17.575001,19.412500,30.465,0.56783506,-0.00988257,-0.02894877,-0.82257380
'00:14:28.774,0.059082,0.029785,1.003906,0.365854,1.341463,-0.609756,-5.162500,18.062500,19.668751,30.435,0.56782428,-0.00986667,-0.02893896,-0.82258177
'00:14:28.784,0.059082,0.028320,1.005371,0.365854,1.280488,-0.548781,-5.162500,18.062500,19.668751,30.450,0.56781812,-0.00986086,-0.02892371,-0.82258663
'00:14:28.795,0.060059,0.029785,1.002930,0.365854,1.341463,-0.609756,-5.250000,18.143751,19.750000,30.450,0.56780179,-0.00984587,-0.02891283,-0.82259846
'00:14:28.804,0.058594,0.030273,1.003906,0.304878,1.341463,-0.609756,-5.250000,18.143751,19.750000,30.420,0.56778841,-0.00982761,-0.02889733,-0.82260846
'00:14:28.814,0.059570,0.029297,1.002441,0.365854,1.402439,-0.609756,-4.837500,17.543751,19.387501,30.495,0.56778919,-0.00982461,-0.02889806,-0.82260793
'00:14:28.824,0.059570,0.029297,1.004395,0.365854,1.341463,-0.609756,-4.837500,17.543751,19.387501,30.465,0.56778984,-0.00982560,-0.02890102,-0.82260737
'00:14:28.834,0.058105,0.028320,1.003418,0.365854,1.341463,-0.548781,-4.837500,17.450001,19.331251,30.450,0.56779309,-0.00982116,-0.02889084,-0.82260554
'00:14:28.844,0.058594,0.028809,1.003906,0.304878,1.341463,-0.609756,-4.837500,17.450001,19.331251,30.450,0.56779181,-0.00982035,-0.02888101,-0.82260678
'00:14:28.854,0.058594,0.029785,1.003906,0.365854,1.341463,-0.548781,-4.800000,17.575001,19.381250,30.540,0.56780019,-0.00981706,-0.02888710,-0.82260082
'00:14:28.864,0.059570,0.029785,1.004883,0.365854,1.402439,-0.609756,-5.006250,17.762501,19.500000,30.450,0.56779401,-0.00980491,-0.02888180,-0.82260541
'00:14:28.875,0.059570,0.028809,1.004395,0.365854,1.341463,-0.548781,-5.006250,17.762501,19.500000,30.450,0.56779213,-0.00980101,-0.02887358,-0.82260705
'00:14:28.884,0.060547,0.029297,1.004883,0.365854,1.402439,-0.548781,-4.937500,17.725000,19.468750,30.465,0.56779418,-0.00980014,-0.02887387,-0.82260563
'00:14:28.894,0.060059,0.028809,1.003418,0.426829,1.341463,-0.609756,-4.937500,17.725000,19.468750,30.450,0.56779208,-0.00979993,-0.02887760,-0.82260696
'00:14:28.904,0.060547,0.029785,1.004395,0.365854,1.402439,-0.609756,-4.750000,17.581251,19.400000,30.450,0.56779977,-0.00980646,-0.02889224,-0.82260105
'00:14:28.917,0.060059,0.029297,1.001953,0.365854,1.402439,-0.609756,-4.750000,17.581251,19.400000,30.450,0.56780984,-0.00981443,-0.02890609,-0.82259352
'00:14:28.924,0.060547,0.029785,1.002441,0.365854,1.341463,-0.548781,-4.787500,17.525000,19.337500,30.510,0.56781547,-0.00981992,-0.02891564,-0.82258923
'00:14:28.934,0.058105,0.030273,1.003418,0.304878,1.280488,-0.609756,-4.787500,17.525000,19.337500,30.450,0.56781892,-0.00981915,-0.02892074,-0.82258668
'00:14:28.944,0.060547,0.029785,1.003418,0.304878,1.341463,-0.548781,-4.831250,17.537500,19.362501,30.465,0.56782400,-0.00982719,-0.02892614,-0.82258289
'00:14:28.956,0.059082,0.029785,1.004883,0.365854,1.341463,-0.548781,-4.831250,17.537500,19.362501,30.450,0.56783019,-0.00982293,-0.02893024,-0.82257852
'00:14:28.964,0.058594,0.029297,1.003418,0.304878,1.341463,-0.548781,-4.881250,17.693750,19.481251,30.420,0.56783415,-0.00982169,-0.02892582,-0.82257596
'00:14:28.974,0.060059,0.029785,1.003418,0.365854,1.341463,-0.548781,-4.881250,17.693750,19.481251,30.420,0.56783898,-0.00982334,-0.02893316,-0.82257235
'00:14:28.984,0.060547,0.029297,1.003418,0.365854,1.341463,-0.548781,-4.993750,17.875000,19.575001,30.480,0.56784005,-0.00982545,-0.02893497,-0.82257152
'00:14:28.995,0.060059,0.029785,1.003906,0.304878,1.280488,-0.609756,-4.993750,17.875000,19.575001,30.435,0.56783609,-0.00983056,-0.02893623,-0.82257415
'00:14:29.004,0.059570,0.029297,1.003418,0.365854,1.341463,-0.609756,-4.981250,17.825001,19.550001,30.435,0.56783294,-0.00982741,-0.02893433,-0.82257643
'00:14:29.014,0.060059,0.030273,1.002930,0.304878,1.341463,-0.548781,-4.981250,17.825001,19.550001,30.420,0.56783355,-0.00982613,-0.02893539,-0.82257598
'00:14:29.024,0.060059,0.030273,1.002930,0.304878,1.341463,-0.548781,-4.793750,17.525000,19.412500,30.420,0.56784056,-0.00983178,-0.02894413,-0.82257077
'00:14:29.035,0.060547,0.029297,1.004883,0.304878,1.402439,-0.548781,-4.793750,17.525000,19.412500,30.450,0.56784862,-0.00983982,-0.02894531,-0.82256507
'00:14:29.044,0.060547,0.029297,1.004883,0.304878,1.402439,-0.548781,-4.812500,17.587500,19.381250,30.450,0.56785545,-0.00984588,-0.02894632,-0.82256024
'00:14:29.054,0.059082,0.029297,1.004883,0.365854,1.341463,-0.548781,-4.812500,17.587500,19.381250,30.480,0.56786297,-0.00984574,-0.02894912,-0.82255495
'00:14:29.064,0.058594,0.028809,1.002441,0.304878,1.280488,-0.609756,-4.806250,17.518751,19.356251,30.450,0.56786489,-0.00985190,-0.02894570,-0.82255368
'00:14:29.075,0.058594,0.029297,1.003418,0.365854,1.341463,-0.609756,-4.806250,17.518751,19.356251,30.450,0.56786711,-0.00984810,-0.02894613,-0.82255217
'00:14:29.084,0.058594,0.029297,1.003418,0.365854,1.341463,-0.609756,-5.025000,17.856251,19.481251,30.450,0.56786210,-0.00983772,-0.02893851,-0.82255603
'00:14:29.094,0.060059,0.030762,1.003418,0.365854,1.341463,-0.548781,-5.025000,17.856251,19.481251,30.450,0.56786060,-0.00982886,-0.02894386,-0.82255698
'00:14:29.104,0.060547,0.029785,1.002930,0.365854,1.341463,-0.548781,-5.062500,17.937500,19.668751,30.435,0.56785792,-0.00982606,-0.02894442,-0.82255885
'00:14:29.115,0.059570,0.030762,1.002930,0.304878,1.341463,-0.548781,-4.806250,17.481251,19.325001,30.480,0.56786373,-0.00982527,-0.02895271,-0.82255455
'00:14:29.124,0.060059,0.029297,1.004395,0.304878,1.341463,-0.548781,-4.806250,17.481251,19.325001,30.465,0.56786874,-0.00983196,-0.02895303,-0.82255100
'00:14:29.134,0.061035,0.029297,1.002930,0.304878,1.341463,-0.548781,-4.787500,17.531250,19.312500,30.480,0.56787677,-0.00984682,-0.02896042,-0.82254502
'00:14:29.144,0.059570,0.029785,1.004883,0.365854,1.341463,-0.609756,-4.787500,17.531250,19.312500,30.450,0.56788040,-0.00984778,-0.02896840,-0.82254222
'00:14:29.157,0.059570,0.029785,1.003906,0.365854,1.280488,-0.609756,-4.781250,17.593750,19.343750,30.465,0.56788721,-0.00985668,-0.02898550,-0.82253681
'00:14:29.164,0.058594,0.029785,1.003418,0.426829,1.402439,-0.548781,-4.781250,17.593750,19.343750,30.480,0.56789417,-0.00984949,-0.02899078,-0.82253190
'00:14:29.174,0.059082,0.029785,1.004395,0.365854,1.341463,-0.548781,-5.075000,17.850000,19.475000,30.420,0.56788921,-0.00983551,-0.02898179,-0.82253581
'00:14:29.184,0.059570,0.029785,1.004395,0.365854,1.341463,-0.609756,-5.075000,17.850000,19.475000,30.465,0.56787992,-0.00982427,-0.02897488,-0.82254261
'00:14:29.195,0.058594,0.030273,1.003906,0.304878,1.341463,-0.609756,-5.075000,17.887501,19.562500,30.480,0.56787020,-0.00980844,-0.02896249,-0.82254994
'00:14:29.205,0.059570,0.029297,1.003906,0.365854,1.341463,-0.548781,-5.075000,17.887501,19.562500,30.420,0.56786605,-0.00980055,-0.02895409,-0.82255320
'00:14:29.214,0.060547,0.030273,1.002930,0.243902,1.341463,-0.548781,-4.837500,17.550001,19.381250,30.480,0.56787012,-0.00980880,-0.02895687,-0.82255019
'00:14:29.224,0.060547,0.027832,1.004883,0.304878,1.341463,-0.548781,-4.837500,17.550001,19.381250,30.420,0.56787519,-0.00982398,-0.02894962,-0.82254676
'00:14:29.237,0.060059,0.029297,1.002441,0.304878,1.341463,-0.548781,-4.837500,17.631250,19.462500,30.435,0.56788342,-0.00983488,-0.02895221,-0.82254086
'00:14:29.244,0.060547,0.029785,1.003906,0.304878,1.341463,-0.609756,-4.837500,17.631250,19.462500,30.495,0.56788467,-0.00984083,-0.02895644,-0.82253977
'00:14:29.254,0.059570,0.030273,1.003906,0.365854,1.341463,-0.548781,-4.800000,17.556250,19.343750,30.465,0.56789214,-0.00983997,-0.02896712,-0.82253425
'00:14:29.264,0.059570,0.029785,1.003906,0.304878,1.341463,-0.548781,-4.800000,17.556250,19.343750,30.480,0.56789963,-0.00984402,-0.02897046,-0.82252892
'00:14:29.276,0.058594,0.029785,1.004395,0.365854,1.341463,-0.548781,-4.787500,17.550001,19.362501,30.480,0.56790945,-0.00983941,-0.02897578,-0.82252200
'00:14:29.284,0.058105,0.029785,1.003418,0.304878,1.341463,-0.548781,-4.787500,17.550001,19.362501,30.450,0.56791595,-0.00983675,-0.02897453,-0.82251759
'00:14:29.294,0.059570,0.029297,1.003418,0.365854,1.402439,-0.548781,-5.087500,17.981251,19.675001,30.435,0.56791263,-0.00982486,-0.02896391,-0.82252040
'00:14:29.304,0.059570,0.028809,1.003906,0.304878,1.341463,-0.548781,-5.087500,17.981251,19.675001,30.480,0.56790926,-0.00982235,-0.02894924,-0.82252327
'00:14:29.316,0.060547,0.028320,1.003906,0.365854,1.341463,-0.548781,-5.068750,17.918751,19.587500,30.465,0.56790560,-0.00982443,-0.02893854,-0.82252615
'00:14:29.324,0.060059,0.028809,1.003906,0.304878,1.280488,-0.548781,-5.068750,17.918751,19.587500,30.465,0.56790294,-0.00982811,-0.02893116,-0.82252820
'00:14:29.334,0.059570,0.029785,1.002930,0.426829,1.402439,-0.548781,-4.893750,17.637501,19.425001,30.435,0.56790580,-0.00981777,-0.02893564,-0.82252620
'00:14:29.344,0.060059,0.030273,1.003418,0.365854,1.341463,-0.548781,-4.893750,17.637501,19.425001,30.450,0.56790833,-0.00981564,-0.02894315,-0.82252421
'00:14:29.356,0.060059,0.028320,1.003906,0.304878,1.402439,-0.548781,-4.793750,17.487501,19.318750,30.450,0.56791656,-0.00982512,-0.02893492,-0.82251870
'00:14:29.364,0.061035,0.029297,1.004395,0.304878,1.341463,-0.609756,-4.793750,17.487501,19.318750,30.465,0.56791821,-0.00983585,-0.02893927,-0.82251728
'00:14:29.374,0.059570,0.029785,1.003418,0.304878,1.341463,-0.609756,-4.831250,17.518751,19.343750,30.465,0.56791821,-0.00983744,-0.02893988,-0.82251724
'00:14:29.384,0.059570,0.029785,1.003418,0.365854,1.341463,-0.609756,-5.231250,18.150000,19.793751,30.450,0.56790428,-0.00982234,-0.02892878,-0.82252743
'00:14:29.396,0.060059,0.030273,1.004395,0.365854,1.341463,-0.609756,-5.231250,18.150000,19.793751,30.435,0.56788754,-0.00980524,-0.02892075,-0.82253947
'00:14:29.404,0.060059,0.030273,1.003906,0.365854,1.341463,-0.609756,-5.250000,18.181250,19.781250,30.480,0.56787610,-0.00979366,-0.02891525,-0.82254771
'00:14:29.414,0.058594,0.029297,1.003418,0.304878,1.341463,-0.548781,-5.250000,18.181250,19.781250,30.450,0.56786640,-0.00977847,-0.02889341,-0.82255535
'00:14:29.424,0.059082,0.030273,1.003418,0.304878,1.341463,-0.548781,-4.756250,17.500000,19.393751,30.435,0.56787565,-0.00978121,-0.02890125,-0.82254866
'00:14:29.436,0.060059,0.029785,1.003418,0.365854,1.402439,-0.609756,-4.756250,17.500000,19.393751,30.495,0.56788175,-0.00978422,-0.02891334,-0.82254398
'00:14:29.444,0.060059,0.029785,1.003906,0.304878,1.341463,-0.609756,-4.843750,17.518751,19.375000,30.480,0.56788114,-0.00978778,-0.02891484,-0.82254431
'00:14:29.454,0.060059,0.028809,1.003418,0.304878,1.341463,-0.548781,-4.843750,17.518751,19.375000,30.465,0.56788495,-0.00979627,-0.02891128,-0.82254171
'00:14:29.464,0.059570,0.029785,1.003418,0.365854,1.341463,-0.548781,-4.825000,17.581251,19.325001,30.450,0.56789161,-0.00979694,-0.02891889,-0.82253683
'00:14:29.477,0.059082,0.029785,1.003906,0.365854,1.341463,-0.548781,-4.825000,17.581251,19.325001,30.480,0.56790025,-0.00979410,-0.02892588,-0.82253066
'00:14:29.484,0.059570,0.028320,1.004395,0.304878,1.341463,-0.548781,-5.018750,17.818750,19.631250,30.465,0.56789877,-0.00979519,-0.02891496,-0.82253205
'00:14:29.494,0.059082,0.029297,1.002930,0.304878,1.341463,-0.548781,-5.018750,17.818750,19.631250,30.465,0.56789648,-0.00979057,-0.02890372,-0.82253408
'00:14:29.505,0.060547,0.029297,1.003906,0.365854,1.341463,-0.548781,-5.143750,18.037500,19.712500,30.480,0.56789010,-0.00978634,-0.02889744,-0.82253875
'00:14:29.516,0.061523,0.028809,1.005371,0.304878,1.341463,-0.548781,-5.143750,18.037500,19.712500,30.405,0.56788380,-0.00979303,-0.02888696,-0.82254339
'00:14:29.524,0.059082,0.029297,1.003418,0.365854,1.341463,-0.548781,-4.875000,17.618750,19.375000,30.465,0.56788703,-0.00979109,-0.02888717,-0.82254118
'00:14:29.537,0.059570,0.030273,1.003418,0.365854,1.341463,-0.609756,-4.875000,17.618750,19.375000,30.450,0.56788629,-0.00978628,-0.02889719,-0.82254139
'00:14:29.544,0.059082,0.028809,1.004883,0.365854,1.341463,-0.609756,-4.793750,17.562500,19.412500,30.510,0.56788905,-0.00978870,-0.02889834,-0.82253942
'00:14:29.555,0.060547,0.029297,1.004395,0.365854,1.341463,-0.548781,-4.793750,17.562500,19.412500,30.450,0.56789798,-0.00979956,-0.02890960,-0.82253272
'00:14:29.564,0.059082,0.031250,1.002930,0.304878,1.341463,-0.548781,-4.768750,17.531250,19.356251,30.435,0.56790598,-0.00979782,-0.02892133,-0.82252681
'00:14:29.574,0.059570,0.029297,1.003906,0.304878,1.341463,-0.609756,-4.768750,17.531250,19.356251,30.480,0.56791086,-0.00980598,-0.02892455,-0.82252323
'00:14:29.584,0.060059,0.029785,1.003418,0.304878,1.341463,-0.548781,-4.775000,17.493750,19.312500,30.465,0.56791879,-0.00981399,-0.02893121,-0.82251743
'00:14:29.594,0.060059,0.029297,1.004395,0.304878,1.341463,-0.548781,-4.775000,17.493750,19.312500,30.389,0.56792678,-0.00982357,-0.02893454,-0.82251168
'00:14:29.604,0.060547,0.029297,1.003906,0.304878,1.341463,-0.548781,-5.068750,17.868750,19.600000,30.450,0.56792222,-0.00982388,-0.02892562,-0.82251514
'00:14:29.614,0.060547,0.028320,1.004883,0.365854,1.341463,-0.609756,-5.068750,17.868750,19.600000,30.480,0.56791358,-0.00982459,-0.02891545,-0.82252145
'00:14:29.624,0.059082,0.028809,1.003906,0.304878,1.341463,-0.548781,-4.900000,17.718750,19.431250,30.480,0.56791788,-0.00982639,-0.02890813,-0.82251872
'00:14:29.634,0.059570,0.030273,1.002441,0.304878,1.341463,-0.548781,-4.800000,17.587500,19.318750,30.450,0.56792615,-0.00982942,-0.02891654,-0.82251268
'00:14:29.644,0.059570,0.030273,1.003418,0.365854,1.280488,-0.548781,-4.800000,17.587500,19.318750,30.495,0.56793427,-0.00983351,-0.02893177,-0.82250649
'00:14:29.654,0.060059,0.029297,1.002930,0.304878,1.341463,-0.548781,-4.825000,17.556250,19.375000,30.465,0.56793989,-0.00984098,-0.02893302,-0.82250247
'00:14:29.664,0.059570,0.028809,1.003418,0.304878,1.341463,-0.548781,-4.825000,17.556250,19.375000,30.450,0.56794560,-0.00984744,-0.02892936,-0.82249858
'00:14:29.676,0.059082,0.029297,1.004883,0.304878,1.280488,-0.548781,-4.781250,17.568750,19.343750,30.450,0.56795635,-0.00985772,-0.02893357,-0.82249089
'00:14:29.684,0.060059,0.029297,1.004395,0.304878,1.341463,-0.548781,-4.781250,17.568750,19.343750,30.465,0.56796356,-0.00986533,-0.02893703,-0.82248570
'00:14:29.694,0.060059,0.029297,1.003418,0.365854,1.341463,-0.548781,-5.043750,17.856251,19.537500,30.480,0.56796050,-0.00986047,-0.02893232,-0.82248803
'00:14:29.704,0.060059,0.029785,1.003906,0.365854,1.341463,-0.609756,-5.043750,17.856251,19.537500,30.450,0.56795301,-0.00985355,-0.02893029,-0.82249336
'00:14:29.716,0.059082,0.029297,1.004395,0.365854,1.341463,-0.548781,-5.118750,17.993750,19.662500,30.540,0.56794670,-0.00983877,-0.02891681,-0.82249837
'00:14:29.724,0.059082,0.029297,1.002930,0.304878,1.341463,-0.548781,-5.118750,17.993750,19.662500,30.495,0.56794250,-0.00983178,-0.02890498,-0.82250177
'00:14:29.734,0.060059,0.029297,1.004883,0.365854,1.341463,-0.548781,-4.850000,17.568750,19.418751,30.480,0.56794659,-0.00983461,-0.02890849,-0.82249879
'00:14:29.744,0.060059,0.028320,1.003906,0.365854,1.280488,-0.548781,-4.850000,17.568750,19.418751,30.420,0.56795069,-0.00984581,-0.02890978,-0.82249577
'00:14:29.756,0.059570,0.030273,1.002930,0.304878,1.341463,-0.548781,-4.793750,17.550001,19.350000,30.480,0.56795973,-0.00984880,-0.02891886,-0.82248917
'00:14:29.764,0.058594,0.029297,1.003906,0.365854,1.341463,-0.548781,-4.793750,17.550001,19.350000,30.450,0.56796598,-0.00984689,-0.02892048,-0.82248483
'00:14:29.774,0.058594,0.029297,1.003906,0.365854,1.341463,-0.548781,-4.831250,17.487501,19.362501,30.450,0.56796958,-0.00984134,-0.02891795,-0.82248250
'00:14:29.784,0.059082,0.028809,1.002930,0.365854,1.341463,-0.548781,-4.831250,17.487501,19.362501,30.389,0.56797326,-0.00984072,-0.02891496,-0.82248007
'00:14:29.794,0.059570,0.029785,1.002441,0.365854,1.341463,-0.548781,-5.125000,18.006250,19.675001,30.450,0.56796769,-0.00982959,-0.02890905,-0.82248425
'00:14:29.804,0.059082,0.029297,1.003418,0.304878,1.280488,-0.548781,-5.125000,18.006250,19.675001,30.465,0.56796208,-0.00982505,-0.02889698,-0.82248861
'00:14:29.814,0.059082,0.029785,1.003906,0.243902,1.341463,-0.609756,-5.193750,18.125000,19.775000,30.465,0.56794997,-0.00981509,-0.02887784,-0.82249776
'00:14:29.825,0.059082,0.030273,1.003418,0.365854,1.280488,-0.609756,-5.193750,18.125000,19.775000,30.480,0.56793657,-0.00980060,-0.02887331,-0.82250734
'00:14:29.834,0.059082,0.029297,1.003418,0.304878,1.341463,-0.548781,-4.800000,17.606251,19.356251,30.480,0.56794453,-0.00980485,-0.02887466,-0.82250175
'00:14:29.844,0.061035,0.028809,1.004395,0.304878,1.280488,-0.548781,-4.800000,17.606251,19.356251,30.420,0.56795321,-0.00982636,-0.02888349,-0.82249519
'00:14:29.854,0.060059,0.030273,1.003906,0.304878,1.341463,-0.609756,-4.812500,17.550001,19.381250,30.450,0.56795499,-0.00983046,-0.02889152,-0.82249363
'00:14:29.864,0.059082,0.029297,1.001953,0.304878,1.341463,-0.548781,-4.812500,17.550001,19.381250,30.420,0.56796135,-0.00983349,-0.02889078,-0.82248923
'00:14:29.874,0.059082,0.029785,1.003906,0.304878,1.341463,-0.548781,-4.781250,17.493750,19.375000,30.435,0.56796848,-0.00983524,-0.02889316,-0.82248420
'00:14:29.884,0.058594,0.030273,1.003418,0.365854,1.341463,-0.609756,-4.781250,17.493750,19.375000,30.405,0.56797116,-0.00982920,-0.02890097,-0.82248215
'00:14:29.894,0.058594,0.029297,1.003418,0.304878,1.341463,-0.609756,-5.131250,17.968750,19.693750,30.450,0.56795998,-0.00981665,-0.02888276,-0.82249066
'00:14:29.904,0.058594,0.029297,1.003418,0.365854,1.341463,-0.548781,-5.118750,17.931250,19.631250,30.495,0.56795352,-0.00980154,-0.02886942,-0.82249577
'00:14:29.915,0.059082,0.028809,1.002930,0.304878,1.280488,-0.548781,-5.118750,17.931250,19.631250,30.435,0.56794636,-0.00979845,-0.02885281,-0.82250133
'00:14:29.924,0.058594,0.029297,1.003418,0.304878,1.341463,-0.609756,-4.887500,17.700001,19.425001,30.450,0.56794667,-0.00979667,-0.02884856,-0.82250129
'00:14:29.934,0.059082,0.030273,1.002441,0.304878,1.341463,-0.609756,-4.887500,17.700001,19.425001,30.525,0.56794679,-0.00979381,-0.02885168,-0.82250113
'00:14:29.944,0.060059,0.028809,1.002930,0.365854,1.341463,-0.609756,-4.762500,17.568750,19.312500,30.480,0.56795331,-0.00980462,-0.02886127,-0.82249616
'00:14:29.954,0.061523,0.029297,1.004883,0.304878,1.280488,-0.548781,-4.762500,17.568750,19.312500,30.465,0.56796379,-0.00982849,-0.02887690,-0.82248809
'00:14:29.965,0.061035,0.029297,1.002441,0.304878,1.280488,-0.548781,-4.812500,17.518751,19.356251,30.435,0.56796982,-0.00984790,-0.02888699,-0.82248334
'00:14:29.974,0.059570,0.029297,1.003906,0.304878,1.280488,-0.548781,-4.812500,17.518751,19.356251,30.420,0.56797477,-0.00985590,-0.02888942,-0.82247974
'00:14:29.984,0.059570,0.030273,1.004395,0.365854,1.341463,-0.548781,-4.818750,17.600000,19.350000,30.450,0.56798176,-0.00985403,-0.02890023,-0.82247456
'00:14:29.994,0.060059,0.029785,1.003906,0.365854,1.341463,-0.609756,-4.818750,17.600000,19.350000,30.465,0.56798441,-0.00985671,-0.02891021,-0.82247234
'00:14:30.004,0.059082,0.028809,1.003418,0.243902,1.280488,-0.548781,-5.187500,18.056250,19.737501,30.450,0.56797553,-0.00985388,-0.02888740,-0.82247931
'00:14:30.014,0.059082,0.029785,1.003906,0.304878,1.280488,-0.548781,-5.187500,18.056250,19.737501,30.480,0.56796657,-0.00984430,-0.02887457,-0.82248606
'00:14:30.024,0.059082,0.029297,1.003906,0.365854,1.341463,-0.548781,-5.131250,17.931250,19.600000,30.450,0.56795935,-0.00983055,-0.02886214,-0.82249165
'00:14:30.034,0.059082,0.028809,1.003906,0.365854,1.341463,-0.609756,-5.131250,17.931250,19.600000,30.480,0.56794792,-0.00981876,-0.02884731,-0.82250020
'00:14:30.044,0.059082,0.029785,1.002930,0.304878,1.341463,-0.609756,-4.775000,17.512501,19.381250,30.450,0.56795167,-0.00982157,-0.02885185,-0.82249742
'00:14:30.054,0.059082,0.029785,1.002930,0.304878,1.341463,-0.548781,-4.775000,17.512501,19.381250,30.465,0.56795978,-0.00982448,-0.02885624,-0.82249163
'00:14:30.064,0.060059,0.029297,1.003906,0.426829,1.341463,-0.548781,-4.818750,17.606251,19.343750,30.450,0.56796734,-0.00982687,-0.02886878,-0.82248594
'00:14:30.075,0.059570,0.029785,1.003418,0.365854,1.341463,-0.609756,-4.818750,17.606251,19.343750,30.465,0.56797064,-0.00982759,-0.02887876,-0.82248331
'00:14:30.084,0.060059,0.029785,1.002930,0.304878,1.280488,-0.548781,-4.812500,17.537500,19.337500,30.480,0.56797598,-0.00983695,-0.02888634,-0.82247924
'00:14:30.094,0.059570,0.029297,1.004395,0.304878,1.341463,-0.609756,-4.812500,17.537500,19.337500,30.510,0.56797779,-0.00984156,-0.02888639,-0.82247793
'00:14:30.104,0.060059,0.029785,1.002441,0.365854,1.341463,-0.548781,-4.950000,17.750000,19.531250,30.450,0.56797860,-0.00983951,-0.02889016,-0.82247727
'00:14:30.114,0.059570,0.029297,1.003418,0.365854,1.341463,-0.487805,-4.950000,17.750000,19.531250,30.420,0.56798390,-0.00983664,-0.02888881,-0.82247369
'00:14:30.124,0.060547,0.029785,1.003906,0.365854,1.341463,-0.609756,-5.162500,18.068750,19.693750,30.435,0.56797286,-0.00982917,-0.02888515,-0.82248153
'00:14:30.134,0.059570,0.030273,1.002441,0.304878,1.341463,-0.548781,-5.162500,18.068750,19.693750,30.435,0.56796611,-0.00981816,-0.02887676,-0.82248662
'00:14:30.144,0.059570,0.029785,1.003906,0.365854,1.341463,-0.548781,-4.831250,17.512501,19.318750,30.480,0.56797049,-0.00981686,-0.02888229,-0.82248341
'00:14:30.154,0.060059,0.028809,1.002441,0.365854,1.341463,-0.548781,-4.831250,17.512501,19.318750,30.465,0.56797502,-0.00982242,-0.02888464,-0.82248014
'00:14:30.164,0.059082,0.030273,1.004395,0.304878,1.341463,-0.609756,-4.812500,17.568750,19.293751,30.450,0.56797760,-0.00982102,-0.02888926,-0.82247821
'00:14:30.174,0.059570,0.029785,1.004395,0.304878,1.341463,-0.548781,-4.793750,17.606251,19.281250,30.480,0.56798689,-0.00982603,-0.02889525,-0.82247152
'00:14:30.184,0.059082,0.028809,1.001953,0.365854,1.341463,-0.548781,-4.793750,17.606251,19.281250,30.450,0.56799638,-0.00982956,-0.02889902,-0.82246479
'00:14:30.194,0.059082,0.029297,1.003906,0.304878,1.280488,-0.609756,-4.981250,17.843750,19.493750,30.465,0.56799293,-0.00983040,-0.02889417,-0.82246733
'00:14:30.204,0.059570,0.029297,1.004395,0.365854,1.341463,-0.548781,-4.981250,17.843750,19.493750,30.465,0.56799407,-0.00982657,-0.02889239,-0.82246666
'00:14:30.214,0.059570,0.030273,1.003906,0.365854,1.402439,-0.548781,-5.150000,18.043751,19.643751,30.450,0.56798790,-0.00980810,-0.02888505,-0.82247140
'00:14:30.224,0.061035,0.028320,1.002441,0.243902,1.280488,-0.609756,-5.150000,18.043751,19.643751,30.420,0.56797737,-0.00982023,-0.02887054,-0.82247903
'00:14:30.234,0.061035,0.029785,1.004883,0.365854,1.280488,-0.609756,-4.837500,17.606251,19.375000,30.420,0.56797871,-0.00983203,-0.02888608,-0.82247742
'00:14:30.244,0.060059,0.029297,1.002930,0.365854,1.341463,-0.548781,-4.837500,17.606251,19.375000,30.450,0.56798464,-0.00983636,-0.02889254,-0.82247305
'00:14:30.254,0.059570,0.029785,1.003906,0.365854,1.341463,-0.548781,-4.875000,17.587500,19.381250,30.420,0.56798738,-0.00983324,-0.02889597,-0.82247107
'00:14:30.264,0.058594,0.029785,1.002441,0.365854,1.280488,-0.548781,-4.875000,17.587500,19.381250,30.480,0.56798999,-0.00982942,-0.02889917,-0.82246921
'00:14:30.274,0.058594,0.029297,1.004395,0.304878,1.341463,-0.548781,-4.831250,17.587500,19.318750,30.495,0.56799611,-0.00982831,-0.02889496,-0.82246514
'00:14:30.284,0.059082,0.029785,1.003418,0.365854,1.341463,-0.548781,-4.831250,17.587500,19.318750,30.435,0.56800215,-0.00982518,-0.02890020,-0.82246082
'00:14:30.294,0.059082,0.028809,1.003906,0.426829,1.341463,-0.609756,-4.837500,17.625000,19.443750,30.510,0.56800399,-0.00982311,-0.02890412,-0.82245944
'00:14:30.304,0.059570,0.029785,1.003906,0.304878,1.341463,-0.548781,-4.837500,17.625000,19.443750,30.480,0.56800985,-0.00982612,-0.02890662,-0.82245526
'00:14:30.314,0.059570,0.028809,1.003418,0.304878,1.280488,-0.548781,-5.193750,18.050001,19.775000,30.435,0.56800029,-0.00982296,-0.02888933,-0.82246251
'00:14:30.325,0.060547,0.029785,1.003906,0.426829,1.341463,-0.548781,-5.193750,18.050001,19.775000,30.450,0.56798989,-0.00980974,-0.02888674,-0.82246995
'00:14:30.334,0.059082,0.028320,1.004395,0.304878,1.341463,-0.548781,-5.075000,17.950001,19.656250,30.465,0.56798706,-0.00980703,-0.02887035,-0.82247251
'00:14:30.344,0.059570,0.028809,1.004395,0.365854,1.341463,-0.548781,-5.075000,17.950001,19.656250,30.480,0.56798390,-0.00980186,-0.02886138,-0.82247507
'00:14:30.354,0.060547,0.029785,1.003906,0.304878,1.280488,-0.609756,-4.806250,17.562500,19.362501,30.420,0.56798641,-0.00981579,-0.02887267,-0.82247277
'00:14:30.364,0.059082,0.028809,1.003418,0.304878,1.341463,-0.548781,-4.806250,17.562500,19.362501,30.465,0.56799367,-0.00982109,-0.02886964,-0.82246780
'00:14:30.374,0.060547,0.030762,1.004395,0.304878,1.341463,-0.548781,-4.812500,17.525000,19.337500,30.435,0.56799920,-0.00982554,-0.02888166,-0.82246351
'00:14:30.384,0.059570,0.028320,1.003906,0.304878,1.280488,-0.609756,-4.812500,17.525000,19.337500,30.420,0.56800071,-0.00983841,-0.02887909,-0.82246240
'00:14:30.394,0.060547,0.029297,1.003418,0.304878,1.280488,-0.548781,-4.775000,17.512501,19.331251,30.465,0.56800868,-0.00985507,-0.02888866,-0.82245636
'00:14:30.404,0.059082,0.029785,1.003906,0.304878,1.341463,-0.609756,-4.775000,17.512501,19.331251,30.450,0.56801232,-0.00985673,-0.02889198,-0.82245371
'00:14:30.414,0.060059,0.030273,1.003906,0.304878,1.341463,-0.609756,-4.962500,17.793751,19.537500,30.420,0.56800862,-0.00985486,-0.02889344,-0.82245624
'00:14:30.424,0.059570,0.029785,1.003906,0.365854,1.341463,-0.609756,-4.981250,17.768751,19.512501,30.480,0.56800334,-0.00984770,-0.02889269,-0.82246000
'00:14:30.434,0.059082,0.028809,1.004883,0.304878,1.341463,-0.548781,-4.981250,17.768751,19.512501,30.510,0.56800264,-0.00984474,-0.02887983,-0.82246097
'00:14:30.444,0.058594,0.029785,1.002930,0.365854,1.341463,-0.548781,-4.825000,17.587500,19.381250,30.495,0.56800884,-0.00983931,-0.02888391,-0.82245661
'00:14:30.454,0.059570,0.029297,1.002930,0.304878,1.341463,-0.548781,-4.825000,17.587500,19.381250,30.480,0.56801503,-0.00984430,-0.02888453,-0.82245224
'00:14:30.464,0.059082,0.030273,1.001953,0.304878,1.341463,-0.609756,-4.781250,17.525000,19.337500,30.480,0.56801839,-0.00984439,-0.02889127,-0.82244969
'00:14:30.474,0.061035,0.030273,1.002930,0.365854,1.341463,-0.609756,-4.781250,17.525000,19.337500,30.495,0.56802170,-0.00985209,-0.02890941,-0.82244667
'00:14:30.484,0.060059,0.029297,1.003418,0.365854,1.341463,-0.548781,-4.850000,17.568750,19.375000,30.495,0.56802566,-0.00985456,-0.02891323,-0.82244377
'00:14:30.494,0.060547,0.030273,1.003906,0.304878,1.341463,-0.548781,-4.850000,17.568750,19.375000,30.450,0.56802932,-0.00985876,-0.02891982,-0.82244096
'00:14:30.504,0.060547,0.030273,1.003906,0.304878,1.341463,-0.548781,-4.868750,17.693750,19.450001,30.450,0.56803430,-0.00986364,-0.02892763,-0.82243719
'00:14:30.514,0.060059,0.029785,1.003906,0.304878,1.341463,-0.548781,-4.868750,17.693750,19.450001,30.435,0.56803937,-0.00986765,-0.02893066,-0.82243354
'00:14:30.524,0.059570,0.030762,1.002930,0.304878,1.280488,-0.548781,-5.131250,18.043751,19.675001,30.420,0.56803357,-0.00985960,-0.02892854,-0.82243771
'00:14:30.534,0.059082,0.029785,1.004395,0.365854,1.341463,-0.548781,-5.131250,18.043751,19.675001,30.480,0.56802823,-0.00984509,-0.02892001,-0.82244187
'00:14:30.544,0.059082,0.028809,1.003906,0.365854,1.341463,-0.548781,-4.881250,17.700001,19.443750,30.480,0.56803297,-0.00984413,-0.02891751,-0.82243870
'00:14:30.554,0.058105,0.029785,1.003906,0.365854,1.341463,-0.548781,-4.881250,17.700001,19.443750,30.420,0.56803754,-0.00983395,-0.02891679,-0.82243569
'00:14:30.564,0.057617,0.029785,1.003418,0.365854,1.280488,-0.609756,-4.818750,17.550001,19.350000,30.465,0.56803877,-0.00982697,-0.02891890,-0.82243485
'00:14:30.574,0.060059,0.028809,1.004395,0.365854,1.341463,-0.609756,-4.818750,17.550001,19.350000,30.450,0.56804028,-0.00983291,-0.02892149,-0.82243364
'00:14:30.584,0.059082,0.028320,1.002930,0.365854,1.341463,-0.609756,-4.793750,17.562500,19.318750,30.495,0.56804409,-0.00983722,-0.02892038,-0.82243100
'00:14:30.594,0.058594,0.029785,1.002441,0.304878,1.341463,-0.548781,-4.793750,17.562500,19.318750,30.450,0.56805190,-0.00983624,-0.02892148,-0.82242558
'00:14:30.604,0.059570,0.031250,1.004395,0.304878,1.341463,-0.548781,-4.812500,17.468750,19.343750,30.510,0.56805568,-0.00983208,-0.02893006,-0.82242272
'00:14:30.614,0.060059,0.029297,1.002930,0.365854,1.341463,-0.609756,-4.812500,17.468750,19.343750,30.450,0.56805551,-0.00983553,-0.02893428,-0.82242264
