Frame_Index,System_Time_s,Human_Readable
0,1775226152.7159908,16:22:32.715
1,1775226152.730618,16:22:32.730
2,1775226152.7346687,16:22:32.734
3,1775226152.7472944,16:22:32.747
4,1775226152.7512376,16:22:32.751
5,1775226152.7634864,16:22:32.763
6,1775226152.7660556,16:22:32.766
7,1775226152.7786515,16:22:32.778
8,1775226152.782689,16:22:32.782
9,1775226152.8095133,16:22:32.809
10,1775226152.8135076,16:22:32.813
11,1775226152.8272183,16:22:32.827
12,1775226152.8443081,16:22:32.844
13,1775226152.8473487,16:22:32.847
14,1775226152.8585827,16:22:32.858
15,1775226152.8890877,16:22:32.889
16,1775226152.9051187,16:22:32.905
17,1775226152.9141102,16:22:32.914
18,1775226152.9223444,16:22:32.922
19,1775226152.924333,16:22:32.924
20,1775226152.938717,16:22:32.938
21,1775226152.9407613,16:22:32.940
22,1775226152.9547307,16:22:32.954
23,1775226152.97035,16:22:32.970
24,1775226152.9723978,16:22:32.972
25,1775226152.9864783,16:22:32.986
26,1775226152.9895425,16:22:32.989
27,1775226153.0115414,16:22:33.011
28,1775226153.0174932,16:22:33.017
29,1775226153.021494,16:22:33.021
30,1775226153.0334933,16:22:33.033
31,1775226153.0369182,16:22:33.036
32,1775226153.0499191,16:22:33.049
33,1775226153.0529368,16:22:33.052
34,1775226153.066309,16:22:33.066
35,1775226153.0706108,16:22:33.070
36,1775226153.0825624,16:22:33.082
37,1775226153.0995758,16:22:33.099
38,1775226153.10356,16:22:33.103
39,1775226153.1225107,16:22:33.122
40,1775226153.1375134,16:22:33.137
41,1775226153.1473827,16:22:33.147
42,1775226153.1504266,16:22:33.150
43,1775226153.1629195,16:22:33.162
44,1775226153.166485,16:22:33.166
45,1775226153.1793585,16:22:33.179
46,1775226153.1833072,16:22:33.183
47,1775226153.1954427,16:22:33.195
48,1775226153.1994498,16:22:33.199
49,1775226153.2115064,16:22:33.211
50,1775226153.2175221,16:22:33.217
51,1775226153.238058,16:22:33.238
52,1775226153.2470753,16:22:33.247
53,1775226153.2601135,16:22:33.260
54,1775226153.2641494,16:22:33.264
55,1775226153.2747297,16:22:33.274
56,1775226153.2777805,16:22:33.277
57,1775226153.2913704,16:22:33.291
58,1775226153.2957883,16:22:33.295
59,1775226153.3062909,16:22:33.306
60,1775226153.3401663,16:22:33.340
61,1775226153.3582942,16:22:33.358
62,1775226153.370701,16:22:33.370
63,1775226153.3747423,16:22:33.374
64,1775226153.3877695,16:22:33.387
65,1775226153.3920326,16:22:33.392
66,1775226153.4036474,16:22:33.403
67,1775226153.4066622,16:22:33.406
68,1775226153.4186785,16:22:33.418
69,1775226153.4222589,16:22:33.422
70,1775226153.4366286,16:22:33.436
71,1775226153.4406555,16:22:33.440
72,1775226153.4647315,16:22:33.464
73,1775226153.4700875,16:22:33.470
74,1775226153.4821818,16:22:33.482
75,1775226153.4861894,16:22:33.486
76,1775226153.4983587,16:22:33.498
77,1775226153.515481,16:22:33.515
78,1775226153.519478,16:22:33.519
79,1775226153.5311356,16:22:33.531
80,1775226153.5341685,16:22:33.534
81,1775226153.5491781,16:22:33.549
82,1775226153.580519,16:22:33.580
83,1775226153.586511,16:22:33.586
84,1775226153.5959399,16:22:33.595
85,1775226153.598932,16:22:33.598
86,1775226153.6112766,16:22:33.611
87,1775226153.615269,16:22:33.615
88,1775226153.6266222,16:22:33.626
89,1775226153.6427221,16:22:33.642
90,1775226153.6467707,16:22:33.646
91,1775226153.6587405,16:22:33.658
92,1775226153.6808033,16:22:33.680
93,1775226153.6907852,16:22:33.690
94,1775226153.6937976,16:22:33.693
95,1775226153.7067723,16:22:33.706
96,1775226153.709773,16:22:33.709
97,1775226153.7225802,16:22:33.722
98,1775226153.7256372,16:22:33.725
99,1775226153.737481,16:22:33.737
100,1775226153.7415068,16:22:33.741
101,1775226153.7546852,16:22:33.754
102,1775226153.7719412,16:22:33.771
103,1775226153.7849052,16:22:33.784
104,1775226153.7876227,16:22:33.787
105,1775226153.790447,16:22:33.790
106,1775226153.8018413,16:22:33.801
107,1775226153.8047614,16:22:33.804
108,1775226153.8175166,16:22:33.817
109,1775226153.8190696,16:22:33.819
110,1775226153.8330846,16:22:33.833
111,1775226153.8361006,16:22:33.836
112,1775226153.850101,16:22:33.850
113,1775226153.8521006,16:22:33.852
114,1775226153.8654547,16:22:33.865
115,1775226153.868074,16:22:33.868
116,1775226153.8827095,16:22:33.882
117,1775226153.89471,16:22:33.894
118,1775226153.8987093,16:22:33.898
119,1775226153.914085,16:22:33.914
120,1775226153.916077,16:22:33.916
121,1775226153.9300802,16:22:33.930
122,1775226153.9320755,16:22:33.932
123,1775226153.9460306,16:22:33.946
124,1775226153.9500718,16:22:33.950
125,1775226153.963083,16:22:33.963
126,1775226153.9661329,16:22:33.966
127,1775226153.978171,16:22:33.978
128,1775226153.9831643,16:22:33.983
129,1775226153.9970253,16:22:33.997
130,1775226154.0140142,16:22:34.014
131,1775226154.0273314,16:22:34.027
132,1775226154.0453832,16:22:34.045
133,1775226154.0483966,16:22:34.048
134,1775226154.0594037,16:22:34.059
135,1775226154.0626402,16:22:34.062
136,1775226154.0753489,16:22:34.075
137,1775226154.0788944,16:22:34.078
138,1775226154.0909028,16:22:34.090
139,1775226154.0958412,16:22:34.095
140,1775226154.1090147,16:22:34.109
141,1775226154.126014,16:22:34.126
142,1775226154.1380212,16:22:34.138
143,1775226154.1420717,16:22:34.142
144,1775226154.1550364,16:22:34.155
145,1775226154.1570961,16:22:34.157
146,1775226154.171601,16:22:34.171
147,1775226154.187589,16:22:34.187
148,1775226154.1905956,16:22:34.190
149,1775226154.2030947,16:22:34.203
150,1775226154.2075021,16:22:34.207
151,1775226154.2225454,16:22:34.222
152,1775226154.2315483,16:22:34.231
153,1775226154.2346153,16:22:34.234
154,1775226154.2505946,16:22:34.250
155,1775226154.253708,16:22:34.253
156,1775226154.2662737,16:22:34.266
157,1775226154.2682745,16:22:34.268
158,1775226154.2848454,16:22:34.284
159,1775226154.2879136,16:22:34.287
160,1775226154.2974925,16:22:34.297
161,1775226154.315445,16:22:34.315
162,1775226154.3284886,16:22:34.328
163,1775226154.3454723,16:22:34.345
164,1775226154.350504,16:22:34.350
165,1775226154.3631735,16:22:34.363
166,1775226154.3662224,16:22:34.366
167,1775226154.378885,16:22:34.378
168,1775226154.3829029,16:22:34.382
169,1775226154.3956234,16:22:34.395
170,1775226154.3986616,16:22:34.398
171,1775226154.4114401,16:22:34.411
172,1775226154.414433,16:22:34.414
173,1775226154.4274585,16:22:34.427
174,1775226154.4540977,16:22:34.454
175,1775226154.4591532,16:22:34.459
176,1775226154.462147,16:22:34.462
177,1775226154.4752874,16:22:34.475
178,1775226154.4783118,16:22:34.478
179,1775226154.4903803,16:22:34.490
180,1775226154.4944177,16:22:34.494
181,1775226154.5070992,16:22:34.507
182,1775226154.5110936,16:22:34.511
183,1775226154.523477,16:22:34.523
184,1775226154.5264692,16:22:34.526
185,1775226154.5394244,16:22:34.539
186,1775226154.5563169,16:22:34.556
187,1775226154.5710626,16:22:34.571
188,1775226154.5750384,16:22:34.575
189,1775226154.6058211,16:22:34.605
190,1775226154.6192887,16:22:34.619
191,1775226154.622278,16:22:34.622
192,1775226154.6350236,16:22:34.635
193,1775226154.6380599,16:22:34.638
194,1775226154.6664653,16:22:34.666
195,1775226154.699444,16:22:34.699
196,1775226154.7024417,16:22:34.702
197,1775226154.7154667,16:22:34.715
198,1775226154.71842,16:22:34.718
199,1775226154.7314737,16:22:34.731
200,1775226154.7344615,16:22:34.734
201,1775226154.747051,16:22:34.747
202,1775226154.7500455,16:22:34.750
203,1775226154.768782,16:22:34.768
204,1775226154.786117,16:22:34.786
205,1775226154.7952895,16:22:34.795
206,1775226154.7973258,16:22:34.797
207,1775226154.8114603,16:22:34.811
208,1775226154.8144524,16:22:34.814
209,1775226154.8268526,16:22:34.826
210,1775226154.829868,16:22:34.829
211,1775226154.845461,16:22:34.845
212,1775226154.8606129,16:22:34.860
213,1775226154.8646293,16:22:34.864
214,1775226154.8917553,16:22:34.891
215,1775226154.8967154,16:22:34.896
216,1775226154.9057229,16:22:34.905
217,1775226154.9087205,16:22:34.908
218,1775226154.9224274,16:22:34.922
219,1775226154.9254713,16:22:34.925
220,1775226154.9380627,16:22:34.938
221,1775226154.9411037,16:22:34.941
222,1775226154.9542956,16:22:34.954
223,1775226154.957398,16:22:34.957
224,1775226154.9723518,16:22:34.972
225,1775226155.0035386,16:22:35.003
226,1775226155.0075154,16:22:35.007
227,1775226155.018645,16:22:35.018
228,1775226155.0216298,16:22:35.021
229,1775226155.034635,16:22:35.034
230,1775226155.0386307,16:22:35.038
231,1775226155.0505645,16:22:35.050
232,1775226155.0545578,16:22:35.054
233,1775226155.06657,16:22:35.066
234,1775226155.0695722,16:22:35.069
235,1775226155.0835786,16:22:35.083
236,1775226155.0948877,16:22:35.094
237,1775226155.107946,16:22:35.107
238,1775226155.1140542,16:22:35.114
239,1775226155.1160712,16:22:35.116
240,1775226155.1307008,16:22:35.130
241,1775226155.1337357,16:22:35.133
242,1775226155.1465092,16:22:35.146
243,1775226155.1495023,16:22:35.149
244,1775226155.1630862,16:22:35.163
245,1775226155.1660335,16:22:35.166
246,1775226155.1793087,16:22:35.179
247,1775226155.1822991,16:22:35.182
248,1775226155.2036984,16:22:35.203
249,1775226155.2206879,16:22:35.220
250,1775226155.2266538,16:22:35.226
251,1775226155.229642,16:22:35.229
252,1775226155.2422907,16:22:35.242
253,1775226155.25936,16:22:35.259
254,1775226155.2632964,16:22:35.263
255,1775226155.2748897,16:22:35.274
256,1775226155.2788336,16:22:35.278
257,1775226155.2908418,16:22:35.290
258,1775226155.2938411,16:22:35.293
259,1775226155.3152306,16:22:35.315
260,1775226155.3326986,16:22:35.332
261,1775226155.3387008,16:22:35.338
262,1775226155.3407414,16:22:35.340
263,1775226155.355052,16:22:35.355
264,1775226155.358177,16:22:35.358
265,1775226155.371656,16:22:35.371
266,1775226155.3877945,16:22:35.387
267,1775226155.3907785,16:22:35.390
268,1775226155.4038267,16:22:35.403
269,1775226155.4097853,16:22:35.409
270,1775226155.4328063,16:22:35.432
271,1775226155.4447894,16:22:35.444
272,1775226155.4497828,16:22:35.449
273,1775226155.452799,16:22:35.452
274,1775226155.4668849,16:22:35.466
275,1775226155.4698896,16:22:35.469
276,1775226155.4822843,16:22:35.482
277,1775226155.4852853,16:22:35.485
278,1775226155.4981987,16:22:35.498
279,1775226155.515423,16:22:35.515
280,1775226155.5214212,16:22:35.521
281,1775226155.5414736,16:22:35.541
282,1775226155.550528,16:22:35.550
283,1775226155.5628247,16:22:35.562
284,1775226155.566864,16:22:35.566
285,1775226155.5796702,16:22:35.579
286,1775226155.5829675,16:22:35.582
287,1775226155.5963812,16:22:35.596
288,1775226155.600395,16:22:35.600
289,1775226155.6104424,16:22:35.610
290,1775226155.6149092,16:22:35.614
291,1775226155.628275,16:22:35.628
292,1775226155.6327603,16:22:35.632
293,1775226155.6615827,16:22:35.661
294,1775226155.6665788,16:22:35.666
295,1775226155.67504,16:22:35.675
296,1775226155.678105,16:22:35.678
297,1775226155.6913395,16:22:35.691
298,1775226155.6942892,16:22:35.694
299,1775226155.706305,16:22:35.706
300,1775226155.7093697,16:22:35.709
301,1775226155.723659,16:22:35.723
302,1775226155.7277157,16:22:35.727
303,1775226155.7398515,16:22:35.739
304,1775226155.7428327,16:22:35.742
305,1775226155.7619386,16:22:35.761
306,1775226155.7710907,16:22:35.771
307,1775226155.7872627,16:22:35.787
308,1775226155.7903044,16:22:35.790
309,1775226155.803009,16:22:35.803
310,1775226155.8060467,16:22:35.806
311,1775226155.8194263,16:22:35.819
312,1775226155.8224163,16:22:35.822
313,1775226155.8344226,16:22:35.834
314,1775226155.8384676,16:22:35.838
315,1775226155.8520992,16:22:35.852
316,1775226155.8701022,16:22:35.870
317,1775226155.8807158,16:22:35.880
318,1775226155.8837094,16:22:35.883
319,1775226155.8987172,16:22:35.898
320,1775226155.901709,16:22:35.901
321,1775226155.9139836,16:22:35.913
322,1775226155.930969,16:22:35.930
323,1775226155.9359782,16:22:35.935
324,1775226155.9466207,16:22:35.946
325,1775226155.9496179,16:22:35.949
326,1775226155.9621422,16:22:35.962
327,1775226155.9882293,16:22:35.988
328,1775226155.9951794,16:22:35.995
329,1775226155.9991715,16:22:35.999
330,1775226156.011319,16:22:36.011
331,1775226156.0143192,16:22:36.014
332,1775226156.0266578,16:22:36.026
333,1775226156.0296948,16:22:36.029
334,1775226156.043134,16:22:36.043
335,1775226156.0616028,16:22:36.061
336,1775226156.0758705,16:22:36.075
337,1775226156.1010716,16:22:36.101
338,1775226156.1060324,16:22:36.106
339,1775226156.1100338,16:22:36.110
340,1775226156.1234996,16:22:36.123
341,1775226156.1264586,16:22:36.126
342,1775226156.1389587,16:22:36.138
343,1775226156.142991,16:22:36.142
344,1775226156.1548219,16:22:36.154
345,1775226156.157814,16:22:36.157
346,1775226156.171366,16:22:36.171
347,1775226156.1996748,16:22:36.199
348,1775226156.2108798,16:22:36.210
349,1775226156.2198691,16:22:36.219
350,1775226156.2350116,16:22:36.235
351,1775226156.2389975,16:22:36.238
352,1775226156.2528846,16:22:36.252
353,1775226156.2561536,16:22:36.256
354,1775226156.2669876,16:22:36.266
355,1775226156.2714322,16:22:36.271
356,1775226156.2820718,16:22:36.282
357,1775226156.2840862,16:22:36.284
358,1775226156.298469,16:22:36.298
359,1775226156.3119915,16:22:36.311
360,1775226156.3160064,16:22:36.316
361,1775226156.3305366,16:22:36.330
362,1775226156.3325293,16:22:36.332
363,1775226156.346376,16:22:36.346
364,1775226156.348508,16:22:36.348
365,1775226156.3627546,16:22:36.362
366,1775226156.3668065,16:22:36.366
367,1775226156.3792841,16:22:36.379
368,1775226156.382419,16:22:36.382
369,1775226156.3963554,16:22:36.396
370,1775226156.4147022,16:22:36.414
371,1775226156.4226496,16:22:36.422
372,1775226156.4286592,16:22:36.428
373,1775226156.4316509,16:22:36.431
374,1775226156.4427013,16:22:36.442
375,1775226156.4587784,16:22:36.458
376,1775226156.4618037,16:22:36.461
377,1775226156.474876,16:22:36.474
378,1775226156.4782648,16:22:36.478
379,1775226156.4904487,16:22:36.490
380,1775226156.496747,16:22:36.496
381,1775226156.5213704,16:22:36.521
382,1775226156.524381,16:22:36.524
383,1775226156.5284278,16:22:36.528
384,1775226156.5389016,16:22:36.538
385,1775226156.5423856,16:22:36.542
386,1775226156.5543478,16:22:36.554
387,1775226156.5579326,16:22:36.557
388,1775226156.5703564,16:22:36.570
389,1775226156.573306,16:22:36.573
390,1775226156.587434,16:22:36.587
391,1775226156.6023185,16:22:36.602
392,1775226156.6053627,16:22:36.605
393,1775226156.619335,16:22:36.619
394,1775226156.6475966,16:22:36.647
395,1775226156.6526098,16:22:36.652
396,1775226156.6556406,16:22:36.655
397,1775226156.666872,16:22:36.666
398,1775226156.6709054,16:22:36.670
399,1775226156.682574,16:22:36.682
400,1775226156.6865253,16:22:36.686
401,1775226156.6982312,16:22:36.698
402,1775226156.702246,16:22:36.702
403,1775226156.7152724,16:22:36.715
404,1775226156.737678,16:22:36.737
405,1775226156.7466948,16:22:36.746
406,1775226156.7496936,16:22:36.749
407,1775226156.7638469,16:22:36.763
408,1775226156.7657895,16:22:36.765
409,1775226156.78029,16:22:36.780
410,1775226156.7822816,16:22:36.782
411,1775226156.795576,16:22:36.795
412,1775226156.79864,16:22:36.798
413,1775226156.812659,16:22:36.812
414,1775226156.8165982,16:22:36.816
415,1775226156.8273902,16:22:36.827
416,1775226156.833426,16:22:36.833
417,1775226156.8633773,16:22:36.863
418,1775226156.8683891,16:22:36.868
419,1775226156.8749053,16:22:36.874
420,1775226156.8779294,16:22:36.877
421,1775226156.891429,16:22:36.891
422,1775226156.8954198,16:22:36.895
423,1775226156.9094825,16:22:36.909
424,1775226156.9124274,16:22:36.912
425,1775226156.9223475,16:22:36.922
426,1775226156.9263978,16:22:36.926
427,1775226156.9407797,16:22:36.940
428,1775226156.9608283,16:22:36.960
429,1775226156.9697866,16:22:36.969
430,1775226156.9727876,16:22:36.972
431,1775226156.9884262,16:22:36.988
432,1775226157.0043626,16:22:37.004
433,1775226157.0064886,16:22:37.006
434,1775226157.018518,16:22:37.018
435,1775226157.0218,16:22:37.021
436,1775226157.0345402,16:22:37.034
437,1775226157.0375412,16:22:37.037
438,1775226157.0551424,16:22:37.055
439,1775226157.0681524,16:22:37.068
440,1775226157.0823102,16:22:37.082
441,1775226157.0862796,16:22:37.086
442,1775226157.09834,16:22:37.098
443,1775226157.1023872,16:22:37.102
444,1775226157.1162934,16:22:37.116
445,1775226157.1308982,16:22:37.130
446,1775226157.1339092,16:22:37.133
447,1775226157.1471925,16:22:37.147
448,1775226157.1511743,16:22:37.151
449,1775226157.1683018,16:22:37.168
450,1775226157.1848655,16:22:37.184
451,1775226157.1958702,16:22:37.195
452,1775226157.1978827,16:22:37.197
453,1775226157.2105129,16:22:37.210
454,1775226157.213539,16:22:37.213
455,1775226157.2271569,16:22:37.227
456,1775226157.2301874,16:22:37.230
457,1775226157.2426083,16:22:37.242
458,1775226157.246986,16:22:37.246
459,1775226157.2586455,16:22:37.258
460,1775226157.274289,16:22:37.274
461,1775226157.3032377,16:22:37.303
462,1775226157.3099096,16:22:37.309
463,1775226157.3360074,16:22:37.336
464,1775226157.3400235,16:22:37.340
465,1775226157.3420584,16:22:37.342
466,1775226157.3547564,16:22:37.354
467,1775226157.3577476,16:22:37.357
468,1775226157.3712196,16:22:37.371
469,1775226157.3742204,16:22:37.374
470,1775226157.3927608,16:22:37.392
471,1775226157.4107141,16:22:37.410
472,1775226157.4243004,16:22:37.424
473,1775226157.4372613,16:22:37.437
474,1775226157.4504573,16:22:37.450
475,1775226157.4534085,16:22:37.453
476,1775226157.4674702,16:22:37.467
477,1775226157.4704192,16:22:37.470
478,1775226157.4827156,16:22:37.482
479,1775226157.4857597,16:22:37.485
480,1775226157.5030866,16:22:37.503
481,1775226157.5197802,16:22:37.519
482,1775226157.5307953,16:22:37.530
483,1775226157.535806,16:22:37.535
484,1775226157.547804,16:22:37.547
485,1775226157.550838,16:22:37.550
486,1775226157.5630636,16:22:37.563
487,1775226157.5660572,16:22:37.566
488,1775226157.5791655,16:22:37.579
489,1775226157.583122,16:22:37.583
490,1775226157.5957098,16:22:37.595
491,1775226157.6012797,16:22:37.601
492,1775226157.6291952,16:22:37.629
493,1775226157.6331964,16:22:37.633
494,1775226157.6430988,16:22:37.643
495,1775226157.6460938,16:22:37.646
496,1775226157.658373,16:22:37.658
497,1775226157.6748142,16:22:37.674
498,1775226157.6784468,16:22:37.678
499,1775226157.6911416,16:22:37.691
500,1775226157.6942103,16:22:37.694
501,1775226157.706703,16:22:37.706
502,1775226157.7107177,16:22:37.710
503,1775226157.7407017,16:22:37.740
504,1775226157.7555008,16:22:37.755
505,1775226157.7585428,16:22:37.758
506,1775226157.7711504,16:22:37.771
507,1775226157.774138,16:22:37.774
508,1775226157.787464,16:22:37.787
509,1775226157.8025506,16:22:37.802
510,1775226157.8055637,16:22:37.805
511,1775226157.8190186,16:22:37.819
512,1775226157.8384864,16:22:37.838
513,1775226157.8464897,16:22:37.846
514,1775226157.8524456,16:22:37.852
515,1775226157.867356,16:22:37.867
516,1775226157.870785,16:22:37.870
517,1775226157.8823392,16:22:37.882
518,1775226157.8863697,16:22:37.886
519,1775226157.898824,16:22:37.898
520,1775226157.9018195,16:22:37.901
521,1775226157.914392,16:22:37.914
522,1775226157.9183965,16:22:37.918
523,1775226157.938391,16:22:37.938
524,1775226157.9543955,16:22:37.954
525,1775226157.9625647,16:22:37.962
526,1775226157.9656036,16:22:37.965
527,1775226157.979773,16:22:37.979
528,1775226157.9832256,16:22:37.983
529,1775226157.996312,16:22:37.996
530,1775226157.9992807,16:22:37.999
531,1775226158.0114284,16:22:38.011
532,1775226158.0144737,16:22:38.014
533,1775226158.0284462,16:22:38.028
534,1775226158.031473,16:22:38.031
535,1775226158.043473,16:22:38.043
536,1775226158.051802,16:22:38.051
537,1775226158.0671804,16:22:38.067
538,1775226158.0744524,16:22:38.074
539,1775226158.0764573,16:22:38.076
540,1775226158.0900521,16:22:38.090
541,1775226158.0920503,16:22:38.092
542,1775226158.10654,16:22:38.106
543,1775226158.1095777,16:22:38.109
544,1775226158.1229134,16:22:38.122
545,1775226158.1259103,16:22:38.125
546,1775226158.1381836,16:22:38.138
547,1775226158.143183,16:22:38.143
548,1775226158.1577346,16:22:38.157
549,1775226158.1646924,16:22:38.164
550,1775226158.169756,16:22:38.169
551,1775226158.172772,16:22:38.172
552,1775226158.1865387,16:22:38.186
