# FW/GUI: v9.6.1-multi17-dual (PyQt5)
# StartTime: 2026-04-03 16:23:27
# Slot: 13
# DeviceID: 13
# Label: EMG13
# IP: 192.168.137.206
# TCP: 3333
# DeviceFW: EMG_FW_v9.6_MULTI17_DUALCH_RUNTIMECFG_CHEN
# IMU1_RefTime = format(imu_ms) = relative since power-on Time (IMU acquisition time)
IMU1_RefTime,ax_g,ay_g,az_g,gx_dps,gy_dps,gz_dps,mx_uT,my_uT,mz_uT,temp_C,qw,qx,qy,qz
'00:15:20.964,0.059082,0.029297,1.003906,0.304878,1.341463,-0.609756,-4.887500,17.443750,19.312500,30.707,0.56803904,-0.00965818,-0.02869584,-0.82244447
'00:15:20.974,0.059082,0.030273,1.003418,0.304878,1.341463,-0.548781,-4.843750,17.581251,19.387501,30.691,0.56804416,-0.00965827,-0.02870160,-0.82244074
'00:15:20.984,0.058594,0.029785,1.003906,0.365854,1.341463,-0.548781,-4.843750,17.581251,19.387501,30.661,0.56804942,-0.00965444,-0.02870676,-0.82243697
'00:15:20.994,0.059570,0.029785,1.004395,0.304878,1.341463,-0.609756,-5.256250,18.137501,19.775000,30.707,0.56803393,-0.00964325,-0.02869245,-0.82244830
'00:15:21.004,0.059570,0.029785,1.004395,0.304878,1.341463,-0.548781,-5.256250,18.137501,19.775000,30.722,0.56802291,-0.00963245,-0.02867838,-0.82245653
'00:15:21.014,0.060059,0.029785,1.003418,0.304878,1.280488,-0.548781,-5.231250,18.018751,19.750000,30.646,0.56801078,-0.00962878,-0.02866884,-0.82246528
'00:15:21.024,0.059570,0.029297,1.003906,0.304878,1.341463,-0.548781,-5.231250,18.018751,19.750000,30.646,0.56799896,-0.00961997,-0.02865175,-0.82247414
'00:15:21.034,0.060059,0.028809,1.004395,0.365854,1.341463,-0.548781,-4.800000,17.537500,19.318750,30.646,0.56800699,-0.00963069,-0.02866041,-0.82246817
'00:15:21.044,0.061035,0.029785,1.003418,0.304878,1.280488,-0.548781,-4.800000,17.537500,19.318750,30.661,0.56801448,-0.00965034,-0.02867720,-0.82246218
'00:15:21.054,0.059570,0.029297,1.003418,0.304878,1.341463,-0.548781,-4.906250,17.656250,19.481251,30.691,0.56801697,-0.00965468,-0.02867643,-0.82246044
'00:15:21.064,0.059082,0.029297,1.004395,0.365854,1.341463,-0.548781,-4.906250,17.656250,19.481251,30.676,0.56801952,-0.00965302,-0.02867777,-0.82245865
'00:15:21.074,0.058594,0.028809,1.004395,0.365854,1.341463,-0.548781,-4.837500,17.475000,19.331251,30.722,0.56802326,-0.00965187,-0.02867571,-0.82245615
'00:15:21.084,0.058594,0.029785,1.003906,0.304878,1.280488,-0.548781,-4.837500,17.475000,19.331251,30.661,0.56802658,-0.00965438,-0.02867807,-0.82245375
'00:15:21.094,0.058594,0.030762,1.004395,0.365854,1.280488,-0.548781,-5.050000,17.893751,19.537500,30.691,0.56802423,-0.00964360,-0.02868333,-0.82245531
'00:15:21.104,0.059082,0.029297,1.003418,0.365854,1.341463,-0.548781,-5.187500,18.087500,19.731251,30.676,0.56801692,-0.00963232,-0.02867358,-0.82246084
'00:15:21.114,0.059570,0.029297,1.002930,0.426829,1.341463,-0.548781,-5.187500,18.087500,19.731251,30.661,0.56800971,-0.00962097,-0.02867042,-0.82246606
'00:15:21.124,0.059570,0.029785,1.003418,0.365854,1.341463,-0.609756,-4.912500,17.662500,19.393751,30.661,0.56800793,-0.00962014,-0.02867688,-0.82246707
'00:15:21.134,0.059082,0.029785,1.003418,0.304878,1.341463,-0.609756,-4.912500,17.662500,19.393751,30.661,0.56800612,-0.00961966,-0.02867699,-0.82246832
'00:15:21.144,0.060059,0.029785,1.003418,0.365854,1.341463,-0.609756,-4.850000,17.506250,19.312500,30.691,0.56800527,-0.00962298,-0.02868652,-0.82246853
'00:15:21.154,0.060059,0.030273,1.004395,0.304878,1.341463,-0.548781,-4.850000,17.506250,19.312500,30.631,0.56800864,-0.00962729,-0.02869383,-0.82246591
'00:15:21.165,0.061035,0.029297,1.004395,0.365854,1.280488,-0.548781,-4.856250,17.481251,19.312500,30.601,0.56801124,-0.00964274,-0.02870670,-0.82246348
'00:15:21.174,0.059570,0.029297,1.003906,0.304878,1.341463,-0.548781,-4.856250,17.481251,19.312500,30.661,0.56801345,-0.00964676,-0.02870547,-0.82246195
'00:15:21.184,0.061035,0.029785,1.003906,0.365854,1.341463,-0.548781,-4.856250,17.550001,19.306250,30.676,0.56801745,-0.00965520,-0.02871852,-0.82245863
'00:15:21.194,0.059082,0.029297,1.003906,0.304878,1.341463,-0.548781,-4.856250,17.550001,19.306250,30.661,0.56802153,-0.00965767,-0.02871672,-0.82245585
'00:15:21.204,0.058594,0.029785,1.002930,0.304878,1.280488,-0.548781,-5.100000,17.875000,19.593750,30.631,0.56801524,-0.00965085,-0.02870780,-0.82246059
'00:15:21.214,0.060059,0.030762,1.002441,0.304878,1.280488,-0.609756,-5.100000,17.875000,19.593750,30.661,0.56800438,-0.00964833,-0.02871028,-0.82246802
'00:15:21.224,0.058594,0.029785,1.005371,0.365854,1.341463,-0.609756,-5.212500,18.112501,19.731251,30.676,0.56799157,-0.00963087,-0.02869909,-0.82247747
'00:15:21.234,0.059570,0.029297,1.004395,0.365854,1.280488,-0.548781,-5.212500,18.112501,19.731251,30.676,0.56798313,-0.00962558,-0.02869248,-0.82248359
'00:15:21.244,0.060059,0.029297,1.004395,0.304878,1.341463,-0.548781,-4.787500,17.525000,19.337500,30.691,0.56799147,-0.00963797,-0.02869956,-0.82247744
'00:15:21.254,0.058594,0.029785,1.003906,0.304878,1.341463,-0.548781,-4.787500,17.525000,19.337500,30.661,0.56799970,-0.00964018,-0.02870377,-0.82247158
'00:15:21.264,0.059570,0.029297,1.002930,0.304878,1.280488,-0.548781,-4.800000,17.568750,19.325001,30.676,0.56800800,-0.00965402,-0.02871239,-0.82246538
'00:15:21.274,0.058594,0.029785,1.002930,0.426829,1.341463,-0.548781,-4.800000,17.568750,19.325001,30.646,0.56801644,-0.00964987,-0.02872553,-0.82245915
'00:15:21.285,0.060059,0.029297,1.004395,0.365854,1.341463,-0.548781,-4.768750,17.537500,19.287500,30.691,0.56802744,-0.00966089,-0.02873943,-0.82245094
'00:15:21.294,0.060059,0.029297,1.004395,0.365854,1.341463,-0.487805,-4.768750,17.537500,19.287500,30.676,0.56804030,-0.00966985,-0.02875050,-0.82244156
'00:15:21.304,0.060059,0.029785,1.003906,0.304878,1.341463,-0.609756,-5.037500,17.893751,19.525000,30.691,0.56803453,-0.00966971,-0.02874846,-0.82244562
'00:15:21.314,0.060059,0.030273,1.002930,0.365854,1.341463,-0.609756,-5.037500,17.893751,19.525000,30.676,0.56802872,-0.00966489,-0.02875395,-0.82244950
'00:15:21.324,0.060059,0.029785,1.004395,0.304878,1.341463,-0.548781,-5.212500,18.168751,19.756250,30.676,0.56802120,-0.00965914,-0.02874469,-0.82245508
'00:15:21.334,0.059082,0.029785,1.002441,0.365854,1.341463,-0.548781,-5.212500,18.168751,19.756250,30.691,0.56801380,-0.00964564,-0.02873706,-0.82246062
'00:15:21.344,0.059082,0.029785,1.003418,0.365854,1.341463,-0.548781,-4.825000,17.481251,19.312500,30.691,0.56801833,-0.00964439,-0.02874307,-0.82245729
'00:15:21.354,0.058594,0.030273,1.003906,0.304878,1.341463,-0.609756,-4.825000,17.481251,19.312500,30.722,0.56801833,-0.00964126,-0.02874534,-0.82245725
'00:15:21.364,0.059082,0.029297,1.004883,0.365854,1.341463,-0.487805,-4.775000,17.531250,19.268751,30.661,0.56803222,-0.00964549,-0.02875305,-0.82244734
'00:15:21.374,0.059570,0.030273,1.003418,0.304878,1.341463,-0.548781,-4.793750,17.518751,19.312500,30.616,0.56803957,-0.00965042,-0.02876239,-0.82244188
'00:15:21.384,0.059082,0.030273,1.003906,0.304878,1.341463,-0.609756,-4.793750,17.518751,19.312500,30.676,0.56804253,-0.00965228,-0.02876952,-0.82243956
'00:15:21.394,0.060059,0.028809,1.004883,0.304878,1.341463,-0.609756,-5.050000,17.806250,19.525000,30.707,0.56803406,-0.00965399,-0.02875835,-0.82244579
'00:15:21.404,0.061035,0.028809,1.004395,0.304878,1.280488,-0.609756,-5.050000,17.806250,19.525000,30.661,0.56802545,-0.00966550,-0.02875430,-0.82245174
'00:15:21.414,0.059082,0.028809,1.002930,0.365854,1.341463,-0.548781,-5.193750,18.118750,19.737501,30.676,0.56801835,-0.00965584,-0.02874114,-0.82245721
'00:15:21.425,0.059570,0.030273,1.003906,0.365854,1.402439,-0.548781,-5.193750,18.118750,19.737501,30.661,0.56801045,-0.00963712,-0.02873411,-0.82246313
'00:15:21.434,0.059570,0.029297,1.003906,0.304878,1.280488,-0.548781,-4.906250,17.737501,19.456251,30.646,0.56801432,-0.00964590,-0.02873697,-0.82246026
'00:15:21.444,0.060059,0.029297,1.004395,0.365854,1.341463,-0.548781,-4.906250,17.737501,19.456251,30.661,0.56801877,-0.00965068,-0.02874310,-0.82245692
'00:15:21.454,0.059082,0.029785,1.004395,0.365854,1.341463,-0.548781,-4.868750,17.593750,19.356251,30.691,0.56802272,-0.00964812,-0.02874780,-0.82245405
'00:15:21.464,0.059570,0.030273,1.003906,0.365854,1.341463,-0.548781,-4.868750,17.593750,19.356251,30.676,0.56802654,-0.00964647,-0.02875725,-0.82245110
'00:15:21.474,0.059082,0.029785,1.004883,0.365854,1.280488,-0.548781,-4.825000,17.593750,19.343750,30.631,0.56803340,-0.00965085,-0.02876797,-0.82244594
'00:15:21.484,0.060547,0.029785,1.003418,0.304878,1.341463,-0.609756,-4.825000,17.593750,19.343750,30.691,0.56803587,-0.00966200,-0.02877735,-0.82244377
'00:15:21.494,0.059570,0.029297,1.003906,0.304878,1.341463,-0.609756,-4.837500,17.562500,19.381250,30.646,0.56803667,-0.00966832,-0.02877802,-0.82244312
'00:15:21.504,0.059570,0.029785,1.003418,0.365854,1.341463,-0.609756,-4.837500,17.562500,19.381250,30.661,0.56803740,-0.00966969,-0.02878601,-0.82244233
'00:15:21.514,0.060059,0.029297,1.003418,0.365854,1.341463,-0.548781,-5.068750,17.831251,19.537500,30.707,0.56803247,-0.00966597,-0.02878134,-0.82244593
'00:15:21.524,0.060059,0.028809,1.003906,0.365854,1.341463,-0.548781,-5.068750,17.831251,19.537500,30.676,0.56802768,-0.00966411,-0.02877386,-0.82244953
'00:15:21.534,0.059570,0.030273,1.003906,0.365854,1.402439,-0.609756,-5.062500,17.912500,19.606251,30.631,0.56802046,-0.00965112,-0.02877209,-0.82245473
'00:15:21.544,0.058594,0.029785,1.003418,0.304878,1.341463,-0.548781,-5.062500,17.912500,19.606251,30.676,0.56801758,-0.00964256,-0.02876274,-0.82245714
'00:15:21.554,0.059570,0.029297,1.003418,0.304878,1.341463,-0.548781,-4.793750,17.575001,19.362501,30.722,0.56802630,-0.00965233,-0.02876767,-0.82245083
'00:15:21.564,0.059570,0.029297,1.003418,0.304878,1.341463,-0.548781,-4.793750,17.575001,19.362501,30.722,0.56803497,-0.00966193,-0.02877246,-0.82244457
'00:15:21.574,0.060059,0.029785,1.003906,0.304878,1.280488,-0.609756,-4.781250,17.487501,19.393751,30.631,0.56803760,-0.00967593,-0.02878351,-0.82244220
'00:15:21.584,0.060059,0.028809,1.004395,0.304878,1.280488,-0.548781,-4.781250,17.487501,19.393751,30.691,0.56804476,-0.00969361,-0.02878851,-0.82243687
'00:15:21.594,0.060547,0.028809,1.003906,0.304878,1.341463,-0.609756,-4.800000,17.506250,19.250000,30.661,0.56804734,-0.00970785,-0.02879180,-0.82243481
'00:15:21.604,0.059082,0.029297,1.003418,0.365854,1.341463,-0.548781,-4.800000,17.506250,19.250000,30.691,0.56805427,-0.00970910,-0.02879664,-0.82242984
'00:15:21.614,0.058105,0.030762,1.004883,0.365854,1.341463,-0.609756,-5.031250,17.856251,19.493750,30.691,0.56804788,-0.00969040,-0.02879541,-0.82243451
'00:15:21.624,0.060059,0.029785,1.003418,0.365854,1.341463,-0.548781,-5.081250,18.000000,19.668751,30.691,0.56804534,-0.00968636,-0.02879601,-0.82243629
'00:15:21.634,0.058594,0.029785,1.002930,0.365854,1.341463,-0.609756,-5.081250,18.000000,19.668751,30.707,0.56803849,-0.00967436,-0.02879129,-0.82244133
'00:15:21.644,0.059570,0.030273,1.003906,0.243902,1.341463,-0.548781,-4.825000,17.525000,19.350000,30.707,0.56804345,-0.00967994,-0.02879297,-0.82243778
'00:15:21.654,0.058594,0.029297,1.004883,0.365854,1.341463,-0.548781,-4.825000,17.525000,19.350000,30.691,0.56804875,-0.00967761,-0.02879363,-0.82243413
'00:15:21.664,0.060547,0.030273,1.003418,0.365854,1.341463,-0.548781,-4.812500,17.537500,19.337500,30.707,0.56805495,-0.00968348,-0.02880925,-0.82242923
'00:15:21.674,0.059570,0.029297,1.002930,0.304878,1.280488,-0.548781,-4.812500,17.537500,19.337500,30.661,0.56806114,-0.00969517,-0.02881411,-0.82242465
'00:15:21.684,0.059082,0.030273,1.003906,0.304878,1.341463,-0.548781,-4.806250,17.581251,19.400000,30.691,0.56806846,-0.00969668,-0.02882050,-0.82241934
'00:15:21.694,0.059570,0.029785,1.003418,0.304878,1.280488,-0.548781,-4.806250,17.581251,19.400000,30.631,0.56807568,-0.00970725,-0.02882909,-0.82241393
'00:15:21.704,0.059082,0.029785,1.003906,0.365854,1.341463,-0.548781,-4.968750,17.825001,19.531250,30.601,0.56807705,-0.00970126,-0.02882975,-0.82241303
'00:15:21.714,0.059570,0.030273,1.004883,0.365854,1.341463,-0.609756,-4.968750,17.825001,19.531250,30.676,0.56807396,-0.00969578,-0.02883467,-0.82241506
'00:15:21.724,0.059570,0.029297,1.004883,0.365854,1.341463,-0.609756,-5.062500,17.937500,19.531250,30.676,0.56806737,-0.00969016,-0.02882972,-0.82241985
'00:15:21.734,0.060547,0.029785,1.003418,0.365854,1.341463,-0.548781,-5.062500,17.937500,19.531250,30.676,0.56806505,-0.00968854,-0.02883180,-0.82242140
'00:15:21.744,0.059082,0.029785,1.002441,0.365854,1.341463,-0.548781,-4.850000,17.631250,19.375000,30.722,0.56807073,-0.00968724,-0.02883792,-0.82241728
'00:15:21.754,0.060059,0.030273,1.002441,0.365854,1.402439,-0.548781,-4.850000,17.631250,19.375000,30.676,0.56807639,-0.00968505,-0.02884742,-0.82241306
'00:15:21.765,0.060547,0.029785,1.003418,0.365854,1.341463,-0.548781,-4.800000,17.543751,19.293751,30.646,0.56808443,-0.00969410,-0.02886181,-0.82240689
'00:15:21.774,0.061035,0.029785,1.003906,0.304878,1.341463,-0.548781,-4.800000,17.543751,19.293751,30.691,0.56809089,-0.00970639,-0.02887091,-0.82240197
'00:15:21.784,0.060059,0.029785,1.004883,0.365854,1.341463,-0.548781,-4.762500,17.525000,19.350000,30.646,0.56810006,-0.00971348,-0.02888345,-0.82239511
'00:15:21.794,0.059570,0.028809,1.004395,0.304878,1.341463,-0.609756,-4.762500,17.525000,19.350000,30.661,0.56810497,-0.00972453,-0.02888415,-0.82239156
'00:15:21.804,0.060059,0.028809,1.003418,0.365854,1.341463,-0.548781,-4.800000,17.500000,19.306250,30.691,0.56811119,-0.00973262,-0.02888796,-0.82238704
'00:15:21.814,0.059570,0.028809,1.004395,0.365854,1.341463,-0.548781,-4.800000,17.500000,19.306250,30.631,0.56811739,-0.00973764,-0.02888939,-0.82238264
'00:15:21.824,0.059082,0.029297,1.003906,0.304878,1.402439,-0.548781,-5.137500,17.987501,19.637501,30.646,0.56811071,-0.00972417,-0.02886981,-0.82238811
'00:15:21.834,0.059570,0.029785,1.003418,0.365854,1.341463,-0.548781,-5.137500,17.987501,19.637501,30.691,0.56810389,-0.00971318,-0.02886271,-0.82239320
'00:15:21.844,0.057129,0.029297,1.003906,0.304878,1.280488,-0.609756,-5.062500,17.868750,19.618750,30.691,0.56809501,-0.00970067,-0.02884495,-0.82240010
'00:15:21.854,0.059082,0.029297,1.003906,0.365854,1.280488,-0.548781,-5.062500,17.868750,19.618750,30.676,0.56809058,-0.00969626,-0.02883934,-0.82240341
'00:15:21.864,0.059082,0.029785,1.003418,0.365854,1.341463,-0.548781,-4.850000,17.575001,19.337500,30.631,0.56809498,-0.00969368,-0.02884358,-0.82240025
'00:15:21.874,0.060547,0.028809,1.003906,0.365854,1.341463,-0.609756,-4.850000,17.575001,19.337500,30.661,0.56809514,-0.00970276,-0.02884772,-0.82239989
'00:15:21.884,0.060059,0.029785,1.002930,0.365854,1.341463,-0.548781,-4.818750,17.462500,19.306250,30.707,0.56809907,-0.00970584,-0.02885556,-0.82239686
'00:15:21.894,0.059570,0.030273,1.003418,0.365854,1.341463,-0.548781,-4.856250,17.575001,19.350000,30.661,0.56810279,-0.00970350,-0.02886362,-0.82239404
'00:15:21.904,0.059570,0.029297,1.002930,0.304878,1.341463,-0.548781,-4.856250,17.575001,19.350000,30.616,0.56810663,-0.00970812,-0.02886183,-0.82239139
'00:15:21.914,0.060059,0.029297,1.002930,0.365854,1.280488,-0.609756,-5.068750,17.868750,19.568750,30.646,0.56809751,-0.00970842,-0.02885972,-0.82239777
'00:15:21.924,0.059082,0.029297,1.004883,0.304878,1.341463,-0.548781,-5.068750,17.868750,19.568750,30.691,0.56809293,-0.00970182,-0.02884576,-0.82240150
'00:15:21.934,0.058594,0.030273,1.004395,0.304878,1.402439,-0.548781,-5.268750,18.168751,19.768751,30.691,0.56808135,-0.00967798,-0.02882483,-0.82241051
'00:15:21.944,0.059082,0.030273,1.005371,0.304878,1.341463,-0.609756,-5.268750,18.168751,19.768751,30.691,0.56806536,-0.00966120,-0.02880883,-0.82242231
'00:15:21.954,0.058594,0.029785,1.003906,0.243902,1.341463,-0.609756,-4.775000,17.500000,19.350000,30.676,0.56806892,-0.00966598,-0.02880698,-0.82241986
'00:15:21.965,0.059082,0.030762,1.002930,0.304878,1.341463,-0.548781,-4.775000,17.500000,19.350000,30.661,0.56807741,-0.00966695,-0.02881837,-0.82241359
'00:15:21.974,0.060059,0.029297,1.003906,0.304878,1.341463,-0.548781,-4.837500,17.593750,19.325001,30.661,0.56808273,-0.00967518,-0.02882068,-0.82240973
'00:15:21.984,0.060547,0.028809,1.004395,0.304878,1.341463,-0.548781,-4.837500,17.593750,19.325001,30.707,0.56808870,-0.00968866,-0.02882210,-0.82240540
'00:15:21.994,0.059570,0.029297,1.005371,0.304878,1.341463,-0.548781,-4.843750,17.550001,19.412500,30.691,0.56809272,-0.00969372,-0.02882031,-0.82240263
'00:15:22.004,0.060547,0.028809,1.004883,0.365854,1.341463,-0.548781,-4.843750,17.550001,19.412500,30.676,0.56809683,-0.00970309,-0.02882410,-0.82239955
'00:15:22.014,0.060059,0.029297,1.004395,0.365854,1.341463,-0.548781,-5.018750,17.906250,19.525000,30.691,0.56809677,-0.00970235,-0.02882376,-0.82239961
'00:15:22.024,0.060547,0.028809,1.002930,0.365854,1.341463,-0.548781,-5.018750,17.906250,19.525000,30.691,0.56809679,-0.00970647,-0.02882313,-0.82239957
'00:15:22.035,0.058594,0.029785,1.003906,0.426829,1.341463,-0.548781,-5.112500,17.975000,19.625000,30.676,0.56809111,-0.00968688,-0.02881849,-0.82240389
'00:15:22.044,0.058594,0.029297,1.004395,0.365854,1.341463,-0.609756,-5.112500,17.975000,19.625000,30.646,0.56808263,-0.00967532,-0.02880832,-0.82241024
'00:15:22.054,0.060059,0.029785,1.003906,0.365854,1.341463,-0.548781,-4.862500,17.568750,19.356251,30.631,0.56808601,-0.00967762,-0.02881553,-0.82240762
'00:15:22.064,0.059082,0.029297,1.003418,0.304878,1.341463,-0.548781,-4.862500,17.568750,19.356251,30.707,0.56808946,-0.00967951,-0.02881190,-0.82240535
'00:15:22.075,0.059082,0.030762,1.004395,0.304878,1.341463,-0.609756,-4.812500,17.518751,19.268751,30.691,0.56809102,-0.00967718,-0.02881991,-0.82240401
'00:15:22.084,0.060059,0.028809,1.003418,0.365854,1.341463,-0.609756,-4.812500,17.518751,19.268751,30.631,0.56809266,-0.00968451,-0.02882406,-0.82240264
'00:15:22.094,0.060059,0.029785,1.003418,0.365854,1.341463,-0.548781,-4.818750,17.481251,19.343750,30.676,0.56809698,-0.00968819,-0.02883250,-0.82239932
'00:15:22.104,0.060547,0.028809,1.002441,0.365854,1.341463,-0.548781,-4.818750,17.481251,19.343750,30.691,0.56810144,-0.00969855,-0.02883750,-0.82239595
'00:15:22.114,0.059570,0.028809,1.003906,0.304878,1.280488,-0.609756,-4.793750,17.531250,19.268751,30.646,0.56810459,-0.00971224,-0.02884009,-0.82239352
'00:15:22.124,0.060059,0.030273,1.003906,0.365854,1.402439,-0.548781,-4.793750,17.531250,19.268751,30.631,0.56811210,-0.00971104,-0.02885107,-0.82238796
'00:15:22.134,0.058594,0.029785,1.002930,0.304878,1.280488,-0.609756,-5.100000,17.937500,19.625000,30.661,0.56810215,-0.00970373,-0.02884107,-0.82239527
'00:15:22.144,0.059082,0.029297,1.003418,0.304878,1.341463,-0.609756,-5.100000,17.937500,19.625000,30.722,0.56809251,-0.00969664,-0.02882721,-0.82240250
'00:15:22.154,0.059570,0.028809,1.003906,0.365854,1.341463,-0.609756,-4.893750,17.643751,19.387501,30.707,0.56809113,-0.00969874,-0.02882602,-0.82240347
'00:15:22.165,0.059082,0.029785,1.003906,0.304878,1.341463,-0.548781,-4.775000,17.568750,19.268751,30.676,0.56810187,-0.00970387,-0.02883236,-0.82239577
'00:15:22.174,0.059082,0.029297,1.004395,0.365854,1.341463,-0.548781,-4.775000,17.568750,19.268751,30.691,0.56811074,-0.00970687,-0.02883869,-0.82238938
'00:15:22.184,0.058594,0.028809,1.005371,0.304878,1.341463,-0.548781,-4.793750,17.518751,19.293751,30.661,0.56811802,-0.00971038,-0.02883342,-0.82238449
'00:15:22.194,0.060059,0.030273,1.004395,0.304878,1.341463,-0.548781,-4.793750,17.518751,19.293751,30.752,0.56812490,-0.00971638,-0.02884257,-0.82237935
'00:15:22.204,0.059082,0.031250,1.003418,0.365854,1.341463,-0.609756,-4.787500,17.556250,19.387501,30.691,0.56812817,-0.00971116,-0.02885934,-0.82237656
'00:15:22.214,0.059570,0.029297,1.003418,0.304878,1.341463,-0.609756,-4.787500,17.556250,19.387501,30.646,0.56813175,-0.00971947,-0.02886222,-0.82237389
'00:15:22.224,0.060059,0.028809,1.004395,0.304878,1.341463,-0.609756,-5.231250,18.168751,19.737501,30.752,0.56811831,-0.00971490,-0.02884420,-0.82238387
'00:15:22.234,0.059570,0.029297,1.002441,0.365854,1.280488,-0.609756,-5.231250,18.168751,19.737501,30.691,0.56810473,-0.00970775,-0.02883550,-0.82239363
'00:15:22.244,0.058594,0.029785,1.002930,0.304878,1.341463,-0.548781,-5.093750,18.000000,19.625000,30.661,0.56810124,-0.00969754,-0.02882468,-0.82239654
'00:15:22.254,0.060547,0.029785,1.003906,0.304878,1.341463,-0.548781,-5.093750,18.000000,19.625000,30.707,0.56809776,-0.00969792,-0.02882108,-0.82239907
'00:15:22.264,0.059570,0.030273,1.004395,0.365854,1.341463,-0.548781,-4.812500,17.525000,19.306250,30.691,0.56810360,-0.00969742,-0.02883165,-0.82239467
'00:15:22.274,0.059082,0.030273,1.004395,0.304878,1.341463,-0.609756,-4.812500,17.525000,19.306250,30.661,0.56810501,-0.00969706,-0.02883584,-0.82239356
'00:15:22.284,0.059082,0.028809,1.005859,0.365854,1.341463,-0.548781,-4.831250,17.568750,19.325001,30.676,0.56811080,-0.00969878,-0.02883494,-0.82238957
'00:15:22.295,0.058105,0.030273,1.004395,0.304878,1.341463,-0.548781,-4.831250,17.568750,19.325001,30.691,0.56811678,-0.00969201,-0.02883475,-0.82238552
'00:15:22.305,0.059082,0.029297,1.002930,0.304878,1.341463,-0.609756,-4.893750,17.687500,19.425001,30.676,0.56811606,-0.00969343,-0.02883121,-0.82238613
'00:15:22.314,0.059082,0.029297,1.002930,0.304878,1.341463,-0.609756,-4.893750,17.687500,19.425001,30.676,0.56811541,-0.00969470,-0.02882807,-0.82238667
'00:15:22.324,0.059570,0.029785,1.002441,0.365854,1.341463,-0.548781,-4.868750,17.712500,19.468750,30.691,0.56812114,-0.00969610,-0.02883622,-0.82238241
'00:15:22.334,0.058594,0.029297,1.004883,0.365854,1.341463,-0.609756,-4.868750,17.712500,19.468750,30.631,0.56812261,-0.00969331,-0.02883677,-0.82238140
'00:15:22.345,0.059570,0.030273,1.004395,0.304878,1.341463,-0.609756,-5.037500,17.912500,19.518751,30.691,0.56811618,-0.00968751,-0.02883391,-0.82238602
'00:15:22.354,0.059082,0.028809,1.003418,0.365854,1.341463,-0.548781,-5.037500,17.912500,19.518751,30.661,0.56811521,-0.00968316,-0.02882687,-0.82238699
'00:15:22.365,0.060547,0.029785,1.004395,0.365854,1.341463,-0.548781,-4.868750,17.587500,19.393751,30.646,0.56811859,-0.00968825,-0.02883604,-0.82238427
'00:15:22.374,0.060547,0.029785,1.004395,0.365854,1.341463,-0.548781,-4.868750,17.587500,19.393751,30.646,0.56812133,-0.00969232,-0.02884340,-0.82238207
'00:15:22.384,0.058594,0.029297,1.002441,0.365854,1.341463,-0.609756,-4.950000,17.737501,19.381250,30.722,0.56811814,-0.00968529,-0.02883942,-0.82238450
'00:15:22.394,0.059082,0.030762,1.004395,0.365854,1.402439,-0.548781,-4.950000,17.737501,19.381250,30.707,0.56811919,-0.00967076,-0.02884176,-0.82238386
'00:15:22.405,0.059082,0.030273,1.002930,0.365854,1.402439,-0.548781,-4.837500,17.550001,19.306250,30.691,0.56812447,-0.00966180,-0.02884674,-0.82238014
'00:15:22.414,0.059570,0.028809,1.002441,0.304878,1.341463,-0.548781,-4.825000,17.543751,19.312500,30.722,0.56812948,-0.00966957,-0.02884466,-0.82237666
'00:15:22.424,0.059570,0.029785,1.004883,0.365854,1.341463,-0.548781,-4.825000,17.543751,19.312500,30.691,0.56813489,-0.00967070,-0.02885128,-0.82237268
'00:15:22.434,0.060547,0.029297,1.004395,0.304878,1.341463,-0.548781,-5.243750,18.118750,19.693750,30.691,0.56812400,-0.00966628,-0.02883599,-0.82238079
'00:15:22.447,0.059082,0.029297,1.004395,0.304878,1.280488,-0.609756,-5.243750,18.118750,19.693750,30.691,0.56810410,-0.00965598,-0.02881334,-0.82239546
'00:15:22.454,0.059082,0.029297,1.004395,0.304878,1.280488,-0.609756,-4.925000,17.812500,19.550001,30.691,0.56810379,-0.00966037,-0.02881309,-0.82239563
'00:15:22.464,0.059570,0.030273,1.003418,0.365854,1.341463,-0.609756,-4.925000,17.812500,19.550001,30.691,0.56810332,-0.00965826,-0.02882185,-0.82239567
'00:15:22.474,0.060059,0.028809,1.003906,0.365854,1.341463,-0.548781,-4.818750,17.487501,19.318750,30.661,0.56810812,-0.00966605,-0.02882480,-0.82239216
'00:15:22.484,0.059570,0.029785,1.004395,0.365854,1.341463,-0.609756,-4.818750,17.487501,19.318750,30.646,0.56810832,-0.00966691,-0.02883119,-0.82239178
'00:15:22.494,0.058105,0.030762,1.003906,0.365854,1.341463,-0.609756,-4.818750,17.575001,19.350000,30.707,0.56811032,-0.00965716,-0.02883960,-0.82239022
'00:15:22.504,0.059570,0.029785,1.003906,0.365854,1.341463,-0.548781,-4.818750,17.575001,19.350000,30.691,0.56811684,-0.00965967,-0.02884793,-0.82238540
'00:15:22.514,0.060059,0.030273,1.004395,0.365854,1.341463,-0.609756,-4.893750,17.612501,19.306250,30.707,0.56811469,-0.00965842,-0.02885575,-0.82238662
'00:15:22.525,0.059082,0.028809,1.004883,0.365854,1.341463,-0.548781,-4.893750,17.612501,19.306250,30.707,0.56811751,-0.00965749,-0.02885080,-0.82238486
'00:15:22.534,0.058105,0.028809,1.004395,0.304878,1.341463,-0.548781,-5.106250,17.906250,19.618750,30.691,0.56811189,-0.00964780,-0.02883094,-0.82238956
'00:15:22.544,0.059570,0.028809,1.005859,0.304878,1.341463,-0.609756,-5.106250,17.906250,19.618750,30.691,0.56810132,-0.00964475,-0.02881430,-0.82239748
'00:15:22.554,0.058594,0.030762,1.003418,0.365854,1.280488,-0.548781,-5.187500,18.037500,19.656250,30.661,0.56809222,-0.00962829,-0.02881046,-0.82240409
'00:15:22.565,0.059570,0.030273,1.003906,0.304878,1.341463,-0.548781,-5.187500,18.037500,19.656250,30.691,0.56808249,-0.00961676,-0.02879911,-0.82241134
'00:15:22.574,0.060059,0.030273,1.003418,0.426829,1.341463,-0.609756,-4.806250,17.612501,19.381250,30.691,0.56808603,-0.00961888,-0.02881733,-0.82240823
'00:15:22.584,0.058594,0.030273,1.003418,0.304878,1.341463,-0.609756,-4.806250,17.612501,19.381250,30.752,0.56808988,-0.00961909,-0.02882286,-0.82240538
'00:15:22.594,0.059082,0.029785,1.002930,0.365854,1.341463,-0.548781,-4.818750,17.543751,19.312500,30.691,0.56809599,-0.00961923,-0.02882945,-0.82240093
'00:15:22.605,0.059570,0.029297,1.002930,0.304878,1.280488,-0.609756,-4.818750,17.543751,19.312500,30.707,0.56809772,-0.00963240,-0.02883415,-0.82239941
'00:15:22.614,0.060059,0.029785,1.004883,0.365854,1.341463,-0.548781,-4.862500,17.543751,19.293751,30.767,0.56810046,-0.00963431,-0.02883951,-0.82239730
'00:15:22.624,0.060547,0.030273,1.004883,0.365854,1.341463,-0.548781,-4.862500,17.543751,19.293751,30.691,0.56810336,-0.00963715,-0.02884999,-0.82239490
'00:15:22.634,0.059570,0.029297,1.004395,0.365854,1.341463,-0.609756,-5.081250,17.800001,19.575001,30.691,0.56809210,-0.00962954,-0.02884013,-0.82240312
'00:15:22.644,0.060059,0.029297,1.003906,0.365854,1.402439,-0.548781,-5.081250,17.800001,19.575001,30.676,0.56808541,-0.00962064,-0.02882945,-0.82240822
'00:15:22.654,0.060059,0.029785,1.003906,0.365854,1.341463,-0.548781,-5.118750,17.981251,19.618750,30.631,0.56808009,-0.00961481,-0.02882619,-0.82241207
'00:15:22.664,0.059082,0.030273,1.004395,0.365854,1.341463,-0.548781,-5.118750,17.981251,19.618750,30.631,0.56807473,-0.00960181,-0.02882183,-0.82241608
'00:15:22.674,0.060059,0.030273,1.002930,0.365854,1.341463,-0.548781,-4.868750,17.600000,19.393751,30.691,0.56807830,-0.00960367,-0.02883230,-0.82241323
'00:15:22.686,0.059570,0.029785,1.003906,0.365854,1.341463,-0.487805,-4.900000,17.606251,19.375000,30.676,0.56808561,-0.00960259,-0.02883587,-0.82240806
'00:15:22.694,0.060059,0.029297,1.002441,0.304878,1.341463,-0.609756,-4.900000,17.606251,19.375000,30.661,0.56808349,-0.00960795,-0.02883453,-0.82240951
'00:15:22.704,0.060059,0.029297,1.003418,0.304878,1.341463,-0.548781,-4.843750,17.518751,19.343750,30.691,0.56808716,-0.00961670,-0.02883477,-0.82240687
'00:15:22.714,0.060059,0.029785,1.005371,0.304878,1.341463,-0.548781,-4.843750,17.518751,19.343750,30.661,0.56809071,-0.00962298,-0.02883696,-0.82240426
'00:15:22.725,0.059570,0.028320,1.003418,0.365854,1.341463,-0.609756,-4.775000,17.518751,19.293751,30.646,0.56809571,-0.00963464,-0.02883986,-0.82240057
'00:15:22.734,0.060547,0.029785,1.003906,0.304878,1.341463,-0.548781,-4.775000,17.518751,19.293751,30.646,0.56810333,-0.00964643,-0.02884889,-0.82239485
'00:15:22.744,0.060547,0.029297,1.004395,0.304878,1.341463,-0.548781,-5.168750,17.975000,19.668751,30.691,0.56809426,-0.00964472,-0.02883583,-0.82240159
'00:15:22.754,0.059570,0.029297,1.004395,0.304878,1.341463,-0.548781,-5.168750,17.975000,19.668751,30.707,0.56808527,-0.00963781,-0.02881932,-0.82240847
'00:15:22.766,0.058594,0.030762,1.003418,0.365854,1.341463,-0.548781,-5.037500,17.906250,19.537500,30.646,0.56808349,-0.00962075,-0.02882102,-0.82240983
'00:15:22.774,0.059570,0.030273,1.002930,0.304878,1.341463,-0.609756,-5.037500,17.906250,19.537500,30.631,0.56807885,-0.00961772,-0.02881965,-0.82241312
'00:15:22.784,0.060547,0.029297,1.003906,0.304878,1.341463,-0.548781,-4.843750,17.543751,19.343750,30.661,0.56808312,-0.00962929,-0.02882241,-0.82240994
'00:15:22.794,0.058594,0.028809,1.003418,0.365854,1.341463,-0.609756,-4.843750,17.543751,19.343750,30.676,0.56808321,-0.00962872,-0.02881941,-0.82240999
'00:15:22.806,0.060547,0.030273,1.004883,0.365854,1.341463,-0.548781,-4.825000,17.475000,19.306250,30.676,0.56808791,-0.00963404,-0.02883398,-0.82240617
'00:15:22.814,0.060547,0.029297,1.002930,0.304878,1.280488,-0.548781,-4.825000,17.475000,19.306250,30.707,0.56809099,-0.00964682,-0.02883861,-0.82240373
'00:15:22.824,0.059570,0.029785,1.003906,0.304878,1.341463,-0.609756,-4.843750,17.568750,19.375000,30.722,0.56809117,-0.00965086,-0.02884056,-0.82240349
'00:15:22.834,0.058105,0.029297,1.003906,0.365854,1.341463,-0.609756,-4.843750,17.568750,19.375000,30.722,0.56809154,-0.00964561,-0.02883841,-0.82240337
'00:15:22.846,0.060059,0.029785,1.003418,0.304878,1.341463,-0.609756,-5.087500,18.012501,19.550001,30.661,0.56808346,-0.00964414,-0.02883317,-0.82240916
'00:15:22.854,0.059082,0.029785,1.003906,0.304878,1.341463,-0.548781,-5.087500,18.012501,19.550001,30.691,0.56808162,-0.00963902,-0.02882664,-0.82241072
'00:15:22.864,0.058594,0.029785,1.003418,0.365854,1.341463,-0.548781,-5.056250,17.918751,19.631250,30.661,0.56807898,-0.00962785,-0.02882114,-0.82241286
'00:15:22.874,0.059082,0.030273,1.003418,0.365854,1.341463,-0.548781,-5.056250,17.918751,19.631250,30.691,0.56807627,-0.00961766,-0.02882036,-0.82241488
'00:15:22.886,0.060059,0.029785,1.003906,0.365854,1.341463,-0.548781,-4.787500,17.500000,19.362501,30.691,0.56808474,-0.00962595,-0.02883399,-0.82240846
'00:15:22.894,0.059570,0.029297,1.003906,0.365854,1.341463,-0.609756,-4.787500,17.500000,19.362501,30.676,0.56808694,-0.00963060,-0.02883916,-0.82240670
'00:15:22.904,0.060059,0.029785,1.003418,0.426829,1.341463,-0.548781,-4.825000,17.543751,19.312500,30.722,0.56809258,-0.00963243,-0.02885292,-0.82240230
'00:15:22.914,0.059570,0.029297,1.002441,0.365854,1.341463,-0.548781,-4.825000,17.543751,19.312500,30.661,0.56809824,-0.00963665,-0.02885780,-0.82239817
'00:15:22.927,0.060547,0.030762,1.001953,0.304878,1.280488,-0.548781,-4.812500,17.518751,19.312500,30.707,0.56810518,-0.00965184,-0.02887870,-0.82239247
'00:15:22.934,0.058105,0.030273,1.003906,0.304878,1.341463,-0.609756,-4.943750,17.743750,19.481251,30.691,0.56810293,-0.00964519,-0.02887491,-0.82239423
'00:15:22.944,0.059570,0.029297,1.003906,0.243902,1.280488,-0.548781,-4.943750,17.743750,19.481251,30.722,0.56810409,-0.00965522,-0.02886832,-0.82239355
'00:15:22.954,0.059082,0.029297,1.004883,0.365854,1.341463,-0.548781,-5.050000,17.925001,19.606251,30.691,0.56810204,-0.00964832,-0.02886131,-0.82239528
'00:15:22.967,0.059082,0.029785,1.004883,0.365854,1.280488,-0.548781,-5.050000,17.925001,19.606251,30.691,0.56809910,-0.00964275,-0.02885983,-0.82239744
'00:15:22.974,0.059082,0.028809,1.005371,0.304878,1.280488,-0.609756,-4.825000,17.562500,19.306250,30.676,0.56810026,-0.00964982,-0.02885850,-0.82239660
'00:15:22.984,0.060547,0.028320,1.004395,0.365854,1.341463,-0.609756,-4.825000,17.562500,19.306250,30.691,0.56810213,-0.00966261,-0.02886122,-0.82239506
'00:15:22.994,0.058594,0.029785,1.002930,0.365854,1.341463,-0.609756,-4.850000,17.543751,19.312500,30.691,0.56810151,-0.00965721,-0.02886278,-0.82239550
'00:15:23.007,0.059570,0.031738,1.000977,0.426829,1.341463,-0.609756,-4.850000,17.543751,19.312500,30.737,0.56810017,-0.00964393,-0.02889076,-0.82239559
'00:15:23.014,0.059082,0.029297,1.002930,0.304878,1.341463,-0.548781,-4.793750,17.575001,19.318750,30.722,0.56810607,-0.00964852,-0.02889142,-0.82239144
'00:15:23.024,0.060059,0.029785,1.004395,0.304878,1.280488,-0.609756,-4.793750,17.575001,19.318750,30.676,0.56810981,-0.00966237,-0.02890136,-0.82238835
'00:15:23.034,0.058594,0.029297,1.004395,0.304878,1.280488,-0.548781,-4.868750,17.687500,19.500000,30.691,0.56811470,-0.00966740,-0.02889903,-0.82238499
'00:15:23.046,0.058594,0.029297,1.004395,0.304878,1.280488,-0.548781,-4.868750,17.687500,19.500000,30.691,0.56812055,-0.00967333,-0.02889626,-0.82238097
'00:15:23.054,0.058105,0.029297,1.007324,0.365854,1.341463,-0.548781,-5.050000,17.918751,19.662500,30.691,0.56811855,-0.00966288,-0.02888623,-0.82238284
'00:15:23.064,0.059082,0.028320,1.005859,0.426829,1.402439,-0.609756,-5.050000,17.918751,19.662500,30.676,0.56811208,-0.00965188,-0.02887412,-0.82238786
'00:15:23.074,0.060059,0.028320,1.002930,0.426829,1.341463,-0.609756,-4.975000,17.700001,19.500000,30.691,0.56810606,-0.00965246,-0.02887091,-0.82239212
'00:15:23.086,0.060059,0.030273,1.003906,0.304878,1.280488,-0.548781,-4.975000,17.700001,19.500000,30.661,0.56810333,-0.00965648,-0.02887292,-0.82239389
'00:15:23.094,0.059082,0.030762,1.002441,0.426829,1.341463,-0.548781,-4.806250,17.606251,19.356251,30.691,0.56810967,-0.00965203,-0.02888744,-0.82238906
'00:15:23.104,0.058105,0.031250,1.001465,0.304878,1.402439,-0.609756,-4.806250,17.606251,19.356251,30.646,0.56811315,-0.00964084,-0.02889302,-0.82238658
'00:15:23.114,0.060059,0.030273,1.003906,0.243902,1.219512,-0.609756,-4.818750,17.550001,19.306250,30.722,0.56811427,-0.00965843,-0.02890199,-0.82238529
'00:15:23.124,0.058594,0.031738,1.004395,0.243902,1.280488,-0.548781,-4.818750,17.550001,19.306250,30.676,0.56811962,-0.00965754,-0.02891017,-0.82238132
'00:15:23.134,0.059082,0.029785,1.003906,0.304878,1.402439,-0.548781,-4.762500,17.481251,19.343750,30.691,0.56812783,-0.00965803,-0.02891022,-0.82237564
'00:15:23.144,0.061035,0.027832,1.003418,0.304878,1.341463,-0.548781,-4.762500,17.481251,19.343750,30.691,0.56813619,-0.00968155,-0.02890988,-0.82236960
'00:15:23.154,0.061035,0.028809,1.003906,0.243902,1.219512,-0.548781,-5.125000,17.987501,19.681250,30.722,0.56812970,-0.00969825,-0.02890017,-0.82237423
'00:15:23.167,0.061035,0.029785,1.004883,0.426829,1.219512,-0.609756,-5.162500,18.012501,19.625000,30.676,0.56811338,-0.00969998,-0.02890875,-0.82238518
'00:15:23.174,0.061035,0.029785,1.004883,0.365854,1.341463,-0.609756,-5.162500,18.012501,19.625000,30.691,0.56810479,-0.00969691,-0.02890602,-0.82239124
'00:15:23.184,0.061035,0.029297,1.002441,0.365854,1.341463,-0.548781,-5.162500,18.012501,19.625000,30.646,0.56809701,-0.00969514,-0.02890042,-0.82239683
'00:15:23.194,0.060547,0.031250,1.001465,0.365854,1.341463,-0.548781,-4.775000,17.543751,19.356251,30.691,0.56810530,-0.00969946,-0.02892353,-0.82239025
'00:15:23.206,0.059570,0.030273,1.003906,0.426829,1.341463,-0.609756,-4.781250,17.468750,19.293751,30.722,0.56810795,-0.00969627,-0.02894108,-0.82238784
'00:15:23.214,0.057129,0.028809,1.004395,0.365854,1.402439,-0.609756,-4.781250,17.468750,19.293751,30.661,0.56811010,-0.00968673,-0.02893220,-0.82238678
'00:15:23.224,0.058594,0.030273,1.003418,0.365854,1.341463,-0.548781,-4.818750,17.568750,19.312500,30.661,0.56811633,-0.00968121,-0.02893810,-0.82238233
'00:15:23.234,0.057617,0.029785,1.004395,0.304878,1.280488,-0.548781,-4.818750,17.568750,19.312500,30.646,0.56812248,-0.00967944,-0.02893561,-0.82237819
'00:15:23.244,0.057129,0.030273,1.005859,0.304878,1.341463,-0.609756,-5.012500,17.881250,19.512501,30.691,0.56811754,-0.00966159,-0.02892272,-0.82238226
'00:15:23.254,0.059082,0.029297,1.003418,0.426829,1.341463,-0.548781,-5.012500,17.881250,19.512501,30.676,0.56811728,-0.00965311,-0.02892173,-0.82238258
'00:15:23.265,0.060547,0.027832,1.001953,0.304878,1.341463,-0.609756,-5.156250,18.018751,19.631250,30.631,0.56810479,-0.00965884,-0.02890052,-0.82239189
'00:15:23.274,0.062012,0.029785,1.003418,0.243902,1.280488,-0.548781,-5.156250,18.018751,19.631250,30.676,0.56809800,-0.00967040,-0.02889637,-0.82239659
'00:15:23.284,0.061523,0.028809,1.004395,0.304878,1.341463,-0.548781,-4.812500,17.525000,19.318750,30.646,0.56810388,-0.00968977,-0.02890058,-0.82239215
'00:15:23.294,0.062012,0.029785,1.004395,0.365854,1.341463,-0.609756,-4.812500,17.525000,19.318750,30.707,0.56810514,-0.00970451,-0.02891649,-0.82239054
'00:15:23.304,0.061035,0.031250,1.004883,0.304878,1.280488,-0.548781,-4.843750,17.656250,19.375000,30.646,0.56811096,-0.00971533,-0.02893557,-0.82238573
'00:15:23.314,0.059570,0.029785,1.004883,0.243902,1.341463,-0.548781,-4.843750,17.656250,19.375000,30.661,0.56811718,-0.00972226,-0.02893304,-0.82238144
'00:15:23.325,0.057617,0.029297,1.002930,0.365854,1.402439,-0.609756,-4.806250,17.531250,19.343750,30.631,0.56811939,-0.00970932,-0.02892607,-0.82238031
'00:15:23.334,0.058594,0.028320,1.003418,0.304878,1.341463,-0.609756,-4.806250,17.531250,19.343750,30.691,0.56812120,-0.00971384,-0.02891751,-0.82237930
'00:15:23.344,0.057129,0.028320,1.003418,0.304878,1.280488,-0.548781,-4.850000,17.625000,19.412500,30.676,0.56812638,-0.00971397,-0.02890411,-0.82237620
'00:15:23.354,0.057129,0.029785,1.003418,0.365854,1.280488,-0.487805,-4.850000,17.625000,19.412500,30.691,0.56813567,-0.00970547,-0.02890356,-0.82236990
'00:15:23.364,0.056641,0.030273,1.004883,0.426829,1.341463,-0.548781,-5.162500,18.056250,19.750000,30.691,0.56812826,-0.00967324,-0.02889075,-0.82237585
'00:15:23.374,0.058594,0.030273,1.005371,0.365854,1.341463,-0.548781,-5.162500,18.056250,19.750000,30.691,0.56812087,-0.00965512,-0.02888108,-0.82238150
'00:15:23.384,0.060059,0.028809,1.004395,0.304878,1.341463,-0.548781,-4.918750,17.675001,19.412500,30.691,0.56812260,-0.00966240,-0.02887502,-0.82238044
'00:15:23.394,0.059570,0.029297,1.003418,0.304878,1.341463,-0.548781,-4.918750,17.675001,19.412500,30.676,0.56812423,-0.00966519,-0.02887030,-0.82237944
'00:15:23.404,0.060059,0.030273,1.001953,0.304878,1.341463,-0.609756,-4.775000,17.531250,19.325001,30.691,0.56812820,-0.00967360,-0.02888166,-0.82237621
'00:15:23.414,0.061035,0.029297,1.001465,0.304878,1.341463,-0.548781,-4.775000,17.531250,19.325001,30.691,0.56813664,-0.00969137,-0.02889115,-0.82236983
'00:15:23.424,0.061035,0.030273,1.002930,0.304878,1.280488,-0.609756,-4.837500,17.518751,19.356251,30.722,0.56813549,-0.00970491,-0.02890316,-0.82237004
'00:15:23.434,0.060059,0.029297,1.003906,0.243902,1.341463,-0.548781,-4.837500,17.518751,19.356251,30.691,0.56813903,-0.00971526,-0.02889782,-0.82236767
'00:15:23.444,0.059570,0.030273,1.004395,0.243902,1.219512,-0.609756,-4.781250,17.537500,19.393751,30.691,0.56814190,-0.00973124,-0.02890689,-0.82236517
'00:15:23.454,0.058594,0.029297,1.004395,0.304878,1.341463,-0.609756,-5.131250,18.031250,19.643751,30.707,0.56813202,-0.00972021,-0.02888948,-0.82237274
'00:15:23.464,0.060547,0.028809,1.004395,0.243902,1.219512,-0.609756,-5.131250,18.031250,19.643751,30.737,0.56812191,-0.00973359,-0.02887877,-0.82237994
'00:15:23.474,0.057617,0.029785,1.003418,0.365854,1.402439,-0.609756,-4.937500,17.787500,19.500000,30.691,0.56812021,-0.00971575,-0.02887156,-0.82238158
'00:15:23.484,0.058105,0.029785,1.003418,0.304878,1.280488,-0.609756,-4.937500,17.787500,19.500000,30.691,0.56811819,-0.00971266,-0.02886806,-0.82238313
'00:15:23.494,0.059082,0.029785,1.001465,0.365854,1.341463,-0.548781,-4.831250,17.543751,19.375000,30.676,0.56812281,-0.00971093,-0.02887310,-0.82237979
'00:15:23.504,0.059082,0.030273,1.003906,0.243902,1.280488,-0.609756,-4.831250,17.543751,19.375000,30.707,0.56812269,-0.00971703,-0.02887417,-0.82237976
'00:15:23.514,0.060059,0.029297,1.002930,0.182927,1.219512,-0.548781,-4.793750,17.525000,19.337500,30.691,0.56812921,-0.00974201,-0.02887502,-0.82237493
'00:15:23.524,0.060547,0.028809,1.002930,0.304878,1.341463,-0.548781,-4.793750,17.525000,19.337500,30.676,0.56813616,-0.00975643,-0.02887759,-0.82236987
'00:15:23.534,0.060059,0.028809,1.005859,0.426829,1.463415,-0.548781,-4.775000,17.575001,19.337500,30.661,0.56814602,-0.00975434,-0.02888241,-0.82236291
'00:15:23.544,0.060059,0.030762,1.005371,0.365854,1.341463,-0.609756,-4.775000,17.575001,19.337500,30.707,0.56815069,-0.00975626,-0.02890012,-0.82235904
'00:15:23.554,0.060547,0.029785,1.003906,0.243902,1.219512,-0.548781,-5.250000,18.137501,19.837500,30.691,0.56813852,-0.00976075,-0.02888797,-0.82236782
'00:15:23.564,0.061035,0.029785,1.003906,0.243902,1.280488,-0.548781,-5.250000,18.137501,19.837500,30.646,0.56812654,-0.00976348,-0.02887486,-0.82237652
'00:15:23.574,0.060547,0.028809,1.002441,0.304878,1.280488,-0.548781,-5.137500,18.075001,19.731251,30.676,0.56812121,-0.00976992,-0.02886672,-0.82238041
'00:15:23.584,0.061035,0.028809,1.002930,0.548781,1.524390,-0.609756,-5.137500,18.075001,19.731251,30.676,0.56811235,-0.00974911,-0.02886583,-0.82238682
'00:15:23.594,0.057129,0.030762,1.006348,0.548781,1.463415,-0.609756,-4.806250,17.562500,19.393751,30.661,0.56811503,-0.00971498,-0.02887641,-0.82238500
'00:15:23.604,0.060547,0.027832,1.003418,0.365854,1.341463,-0.609756,-4.806250,17.562500,19.393751,30.676,0.56811774,-0.00973034,-0.02887751,-0.82238290
'00:15:23.614,0.057129,0.030762,1.006836,0.304878,1.280488,-0.548781,-4.800000,17.525000,19.362501,30.722,0.56812381,-0.00972149,-0.02887890,-0.82237877
'00:15:23.624,0.060059,0.028320,1.004395,0.548781,1.524390,-0.609756,-4.800000,17.525000,19.362501,30.722,0.56812669,-0.00970948,-0.02888414,-0.82237673
'00:15:23.634,0.059570,0.029297,1.002441,0.243902,1.219512,-0.548781,-4.806250,17.562500,19.350000,30.661,0.56813324,-0.00972869,-0.02888738,-0.82237187
'00:15:23.644,0.058594,0.031250,1.004395,0.304878,1.280488,-0.548781,-4.806250,17.562500,19.350000,30.691,0.56813956,-0.00972666,-0.02889842,-0.82236714
'00:15:23.654,0.062012,0.030273,1.003418,0.426829,1.402439,-0.548781,-4.787500,17.468750,19.250000,30.691,0.56814581,-0.00973237,-0.02891941,-0.82236201
'00:15:23.664,0.061523,0.029785,1.002930,0.304878,1.219512,-0.548781,-4.787500,17.468750,19.250000,30.661,0.56815156,-0.00975644,-0.02893590,-0.82235718
'00:15:23.674,0.061035,0.030273,1.002930,0.243902,1.280488,-0.548781,-5.012500,17.837500,19.575001,30.676,0.56814913,-0.00976642,-0.02893621,-0.82235873
'00:15:23.684,0.061523,0.030273,1.003906,0.365854,1.463415,-0.609756,-5.012500,17.837500,19.575001,30.737,0.56814288,-0.00975940,-0.02893770,-0.82236308
'00:15:23.695,0.061035,0.028320,1.003418,0.243902,1.280488,-0.548781,-4.837500,17.562500,19.393751,30.676,0.56814755,-0.00978565,-0.02893372,-0.82235968
'00:15:23.704,0.059570,0.028809,1.005371,0.304878,1.402439,-0.548781,-4.837500,17.562500,19.393751,30.752,0.56815162,-0.00978678,-0.02892567,-0.82235714
'00:15:23.714,0.058594,0.029297,1.002441,0.365854,1.341463,-0.609756,-4.837500,17.575001,19.318750,30.691,0.56815219,-0.00978248,-0.02892494,-0.82235682
'00:15:23.725,0.059082,0.029785,1.002441,0.243902,1.280488,-0.609756,-4.768750,17.468750,19.356251,30.707,0.56815474,-0.00979330,-0.02892599,-0.82235490
'00:15:23.734,0.058105,0.031738,1.004395,0.365854,1.341463,-0.609756,-4.768750,17.468750,19.356251,30.707,0.56815670,-0.00978035,-0.02893789,-0.82235328
'00:15:23.744,0.059082,0.029785,1.003906,0.304878,1.280488,-0.609756,-4.793750,17.606251,19.325001,30.722,0.56816070,-0.00978712,-0.02894383,-0.82235022
'00:15:23.754,0.059082,0.028320,1.004883,0.243902,1.280488,-0.548781,-4.793750,17.606251,19.325001,30.691,0.56816931,-0.00980249,-0.02893653,-0.82234435
'00:15:23.764,0.058594,0.029297,1.004395,0.304878,1.402439,-0.548781,-5.187500,18.137501,19.731251,30.707,0.56816209,-0.00978453,-0.02891357,-0.82235036
'00:15:23.774,0.060059,0.029785,1.003418,0.243902,1.341463,-0.609756,-5.187500,18.137501,19.731251,30.722,0.56815024,-0.00978038,-0.02889833,-0.82235913
'00:15:23.784,0.060059,0.029785,1.003418,0.243902,1.341463,-0.609756,-5.062500,17.887501,19.606251,30.722,0.56814145,-0.00977983,-0.02888695,-0.82236561
'00:15:23.794,0.060547,0.030273,1.004395,0.304878,1.280488,-0.548781,-5.062500,17.887501,19.606251,30.646,0.56813686,-0.00978140,-0.02888732,-0.82236875
'00:15:23.804,0.061523,0.029297,1.003418,0.304878,1.341463,-0.609756,-4.812500,17.493750,19.356251,30.722,0.56813704,-0.00979686,-0.02889373,-0.82236821
'00:15:23.814,0.060547,0.029297,1.003418,0.304878,1.280488,-0.609756,-4.812500,17.493750,19.356251,30.631,0.56813707,-0.00981104,-0.02889926,-0.82236783
'00:15:23.824,0.060059,0.030273,1.004395,0.243902,1.219512,-0.609756,-4.881250,17.656250,19.431250,30.737,0.56813546,-0.00982386,-0.02890495,-0.82236859
'00:15:23.834,0.060059,0.029297,1.003906,0.243902,1.219512,-0.548781,-4.881250,17.656250,19.431250,30.691,0.56813839,-0.00984056,-0.02890516,-0.82236636
'00:15:23.844,0.060059,0.028809,1.003906,0.365854,1.341463,-0.548781,-4.781250,17.537500,19.362501,30.676,0.56814623,-0.00984850,-0.02891036,-0.82236066
'00:15:23.854,0.059082,0.030273,1.003906,0.426829,1.463415,-0.609756,-4.781250,17.537500,19.362501,30.691,0.56814973,-0.00983315,-0.02891837,-0.82235814
'00:15:23.864,0.059082,0.029297,1.003418,0.487805,1.524390,-0.609756,-5.075000,18.000000,19.606251,30.661,0.56814340,-0.00980396,-0.02891036,-0.82236315
'00:15:23.874,0.057617,0.031250,1.004883,0.243902,1.280488,-0.548781,-5.075000,18.000000,19.606251,30.737,0.56814034,-0.00978915,-0.02890180,-0.82236574
'00:15:23.884,0.059570,0.028809,1.003418,0.365854,1.402439,-0.609756,-5.212500,18.062500,19.731251,30.661,0.56812566,-0.00977326,-0.02888169,-0.82237678
'00:15:23.894,0.058105,0.029785,1.004395,0.243902,1.280488,-0.548781,-5.212500,18.062500,19.731251,30.661,0.56811490,-0.00976075,-0.02885869,-0.82238517
'00:15:23.904,0.059082,0.029297,1.002441,0.304878,1.341463,-0.548781,-4.787500,17.537500,19.362501,30.631,0.56812248,-0.00976565,-0.02885958,-0.82237985
'00:15:23.914,0.057617,0.028809,1.004395,0.365854,1.402439,-0.548781,-4.787500,17.537500,19.362501,30.646,0.56813041,-0.00975641,-0.02885252,-0.82237472
'00:15:23.924,0.060547,0.028809,1.003418,0.304878,1.341463,-0.487805,-4.818750,17.481251,19.268751,30.722,0.56813924,-0.00976830,-0.02885233,-0.82236848
'00:15:23.934,0.060059,0.029785,1.005371,0.365854,1.341463,-0.548781,-4.818750,17.481251,19.268751,30.676,0.56814354,-0.00976988,-0.02885940,-0.82236525
'00:15:23.944,0.061523,0.028320,1.004883,0.365854,1.341463,-0.609756,-4.837500,17.506250,19.343750,30.661,0.56814265,-0.00978458,-0.02886289,-0.82236556
'00:15:23.954,0.062012,0.029297,1.004883,0.365854,1.341463,-0.548781,-4.837500,17.506250,19.343750,30.631,0.56814588,-0.00979806,-0.02887365,-0.82236280
'00:15:23.964,0.061035,0.029297,1.003418,0.365854,1.402439,-0.548781,-5.012500,17.762501,19.518751,30.722,0.56814260,-0.00979526,-0.02887029,-0.82236521
'00:15:23.974,0.061523,0.028809,1.002930,0.365854,1.341463,-0.609756,-5.012500,17.762501,19.518751,30.691,0.56813490,-0.00980139,-0.02886940,-0.82237049
'00:15:23.984,0.058105,0.029297,1.003906,0.304878,1.219512,-0.548781,-5.206250,18.081251,19.725000,30.691,0.56812494,-0.00979237,-0.02885234,-0.82237808
'00:15:23.994,0.057129,0.030762,1.003418,0.426829,1.402439,-0.548781,-4.843750,17.525000,19.287500,30.707,0.56812854,-0.00976569,-0.02885482,-0.82237582
'00:15:24.004,0.058594,0.029297,1.004395,0.365854,1.341463,-0.548781,-4.843750,17.525000,19.287500,30.691,0.56813225,-0.00976048,-0.02885293,-0.82237339
'00:15:24.014,0.058594,0.029297,1.005859,0.304878,1.280488,-0.548781,-4.918750,17.600000,19.393751,30.722,0.56813191,-0.00975920,-0.02884490,-0.82237392
'00:15:24.024,0.057129,0.030273,1.005859,0.304878,1.341463,-0.548781,-4.918750,17.600000,19.393751,30.722,0.56813157,-0.00974167,-0.02883384,-0.82237475
'00:15:24.034,0.060059,0.029297,1.003906,0.365854,1.402439,-0.609756,-4.806250,17.518751,19.343750,30.691,0.56813330,-0.00974293,-0.02883785,-0.82237340
'00:15:24.044,0.060059,0.030273,1.002441,0.304878,1.341463,-0.609756,-4.806250,17.518751,19.343750,30.691,0.56813459,-0.00974802,-0.02884656,-0.82237214
'00:15:24.054,0.061035,0.030273,1.001953,0.304878,1.341463,-0.548781,-4.806250,17.500000,19.331251,30.707,0.56813978,-0.00975838,-0.02885861,-0.82236801
'00:15:24.064,0.061035,0.030762,1.000977,0.304878,1.280488,-0.548781,-4.806250,17.500000,19.331251,30.676,0.56814464,-0.00977120,-0.02887662,-0.82236387
'00:15:24.074,0.062012,0.028320,1.002441,0.365854,1.280488,-0.548781,-5.087500,17.993750,19.618750,30.616,0.56814123,-0.00978573,-0.02887764,-0.82236601
'00:15:24.085,0.061035,0.028809,1.005859,0.304878,1.341463,-0.548781,-5.087500,17.993750,19.618750,30.676,0.56813753,-0.00979133,-0.02886805,-0.82236884
'00:15:24.096,0.060059,0.029297,1.004395,0.426829,1.402439,-0.609756,-4.937500,17.718750,19.450001,30.616,0.56813405,-0.00978287,-0.02887015,-0.82237127
'00:15:24.104,0.059570,0.029297,1.003906,0.304878,1.280488,-0.548781,-4.937500,17.718750,19.450001,30.722,0.56813471,-0.00978671,-0.02886813,-0.82237084
'00:15:24.114,0.060059,0.029785,1.004395,0.304878,1.341463,-0.548781,-4.793750,17.575001,19.306250,30.661,0.56814273,-0.00979416,-0.02887507,-0.82236497
'00:15:24.124,0.059082,0.030273,1.003418,0.304878,1.402439,-0.609756,-4.793750,17.575001,19.306250,30.737,0.56814640,-0.00978982,-0.02887828,-0.82236237
'00:15:24.135,0.060059,0.028809,1.001465,0.365854,1.341463,-0.548781,-4.806250,17.550001,19.318750,30.722,0.56815373,-0.00979833,-0.02888391,-0.82235701
'00:15:24.144,0.060059,0.028320,1.002930,0.304878,1.280488,-0.548781,-4.806250,17.550001,19.318750,30.722,0.56815960,-0.00981324,-0.02888416,-0.82235277
'00:15:24.154,0.059082,0.028320,1.004883,0.304878,1.341463,-0.548781,-4.812500,17.550001,19.350000,30.661,0.56816572,-0.00981907,-0.02887626,-0.82234875
'00:15:24.164,0.059570,0.029297,1.003906,0.365854,1.280488,-0.609756,-4.812500,17.550001,19.350000,30.691,0.56816712,-0.00982508,-0.02888372,-0.82234745
'00:15:24.174,0.057617,0.029785,1.003906,0.304878,1.341463,-0.548781,-4.956250,17.812500,19.456251,30.691,0.56816876,-0.00981232,-0.02887384,-0.82234681
'00:15:24.184,0.058594,0.030273,1.004883,0.304878,1.341463,-0.548781,-4.956250,17.812500,19.456251,30.722,0.56817031,-0.00980304,-0.02887024,-0.82234598
'00:15:24.194,0.060547,0.029785,1.004883,0.365854,1.402439,-0.548781,-5.231250,18.175001,19.793751,30.707,0.56816088,-0.00978893,-0.02886011,-0.82235302
'00:15:24.204,0.060547,0.029785,1.003418,0.304878,1.280488,-0.548781,-5.231250,18.175001,19.793751,30.691,0.56815114,-0.00978714,-0.02885243,-0.82236004
'00:15:24.214,0.060059,0.029297,1.003906,0.304878,1.280488,-0.609756,-4.756250,17.518751,19.325001,30.691,0.56815592,-0.00980246,-0.02886164,-0.82235623
'00:15:24.224,0.059570,0.030273,1.003418,0.304878,1.341463,-0.609756,-4.756250,17.518751,19.325001,30.691,0.56816061,-0.00980666,-0.02887151,-0.82235259
'00:15:24.234,0.060059,0.029785,1.002441,0.365854,1.341463,-0.609756,-4.837500,17.550001,19.275000,30.722,0.56816064,-0.00980784,-0.02887952,-0.82235228
'00:15:24.244,0.060059,0.029297,1.003418,0.365854,1.341463,-0.609756,-4.787500,17.550001,19.275000,30.661,0.56816426,-0.00981378,-0.02888815,-0.82234940
'00:15:24.254,0.059570,0.029297,1.003906,0.365854,1.341463,-0.609756,-4.787500,17.550001,19.275000,30.707,0.56816788,-0.00981681,-0.02889455,-0.82234664
'00:15:24.264,0.059570,0.028809,1.005371,0.304878,1.341463,-0.609756,-5.025000,17.856251,19.512501,30.737,0.56816142,-0.00981486,-0.02888175,-0.82235158
'00:15:24.274,0.060059,0.029785,1.005371,0.304878,1.341463,-0.609756,-5.025000,17.856251,19.512501,30.691,0.56815480,-0.00981188,-0.02887646,-0.82235637
'00:15:24.284,0.059570,0.029785,1.004883,0.304878,1.341463,-0.548781,-5.106250,17.956251,19.643751,30.691,0.56814895,-0.00980355,-0.02886555,-0.82236089
'00:15:24.295,0.059570,0.030273,1.004395,0.365854,1.341463,-0.609756,-5.106250,17.956251,19.643751,30.676,0.56813771,-0.00978911,-0.02886184,-0.82236896
'00:15:24.304,0.058594,0.029785,1.002441,0.365854,1.341463,-0.548781,-4.856250,17.612501,19.393751,30.691,0.56814155,-0.00978337,-0.02886395,-0.82236630
'00:15:24.314,0.058594,0.028809,1.002441,0.365854,1.341463,-0.609756,-4.856250,17.612501,19.393751,30.722,0.56814165,-0.00978075,-0.02886075,-0.82236638
'00:15:24.324,0.058594,0.029785,1.002441,0.304878,1.341463,-0.548781,-4.793750,17.518751,19.325001,30.676,0.56814829,-0.00977985,-0.02886152,-0.82236177
'00:15:24.334,0.060059,0.029297,1.002930,0.304878,1.280488,-0.548781,-4.793750,17.518751,19.325001,30.691,0.56815481,-0.00979329,-0.02886798,-0.82235688
'00:15:24.345,0.061523,0.029297,1.003418,0.304878,1.341463,-0.609756,-4.818750,17.543751,19.375000,30.691,0.56815570,-0.00981045,-0.02887603,-0.82235578
'00:15:24.354,0.060059,0.030762,1.005371,0.304878,1.341463,-0.548781,-4.818750,17.543751,19.375000,30.676,0.56816012,-0.00981152,-0.02888411,-0.82235243
'00:15:24.364,0.060059,0.030273,1.005371,0.304878,1.341463,-0.548781,-4.806250,17.575001,19.362501,30.661,0.56816677,-0.00981576,-0.02889194,-0.82234751
'00:15:24.374,0.061035,0.029785,1.004395,0.365854,1.341463,-0.609756,-4.806250,17.575001,19.362501,30.661,0.56816911,-0.00982425,-0.02890541,-0.82234532
'00:15:24.384,0.060547,0.030273,1.003906,0.304878,1.341463,-0.609756,-5.143750,18.037500,19.656250,30.601,0.56815800,-0.00981811,-0.02889994,-0.82235326
'00:15:24.394,0.058594,0.029297,1.001465,0.304878,1.341463,-0.609756,-5.143750,18.037500,19.656250,30.707,0.56814717,-0.00980576,-0.02888277,-0.82236150
'00:15:24.404,0.058594,0.029785,1.002441,0.243902,1.280488,-0.609756,-5.000000,17.781250,19.568750,30.691,0.56814011,-0.00980350,-0.02887164,-0.82236679
'00:15:24.414,0.057129,0.028320,1.003906,0.243902,1.280488,-0.548781,-5.000000,17.781250,19.568750,30.661,0.56813783,-0.00979879,-0.02884622,-0.82236931
'00:15:24.424,0.059082,0.029297,1.005371,0.426829,1.402439,-0.548781,-4.837500,17.537500,19.412500,30.646,0.56814186,-0.00978907,-0.02884769,-0.82236659
'00:15:24.434,0.058594,0.028320,1.004395,0.365854,1.280488,-0.548781,-4.837500,17.537500,19.412500,30.737,0.56814575,-0.00979258,-0.02884373,-0.82236400
'00:15:24.444,0.060059,0.028809,1.004395,0.426829,1.402439,-0.548781,-4.806250,17.475000,19.306250,30.691,0.56815097,-0.00979125,-0.02884782,-0.82236027
'00:15:24.454,0.060059,0.030762,1.003906,0.304878,1.219512,-0.548781,-4.806250,17.475000,19.306250,30.722,0.56815518,-0.00980147,-0.02886342,-0.82235669
'00:15:24.464,0.061035,0.030273,1.003418,0.426829,1.402439,-0.548781,-4.793750,17.550001,19.425001,30.722,0.56816211,-0.00980196,-0.02888217,-0.82235124
'00:15:24.474,0.060547,0.030273,1.001953,0.304878,1.280488,-0.548781,-4.793750,17.550001,19.425001,30.691,0.56816858,-0.00981478,-0.02889659,-0.82234611
'00:15:24.484,0.061035,0.029297,1.002441,0.426829,1.402439,-0.548781,-5.000000,17.900000,19.550001,30.661,0.56816914,-0.00981149,-0.02890168,-0.82234558
'00:15:24.495,0.061035,0.028320,1.005371,0.304878,1.280488,-0.487805,-5.218750,18.125000,19.743750,30.676,0.56816327,-0.00981767,-0.02888456,-0.82235017
'00:15:24.504,0.059570,0.029297,1.006348,0.426829,1.402439,-0.548781,-5.218750,18.125000,19.743750,30.691,0.56815478,-0.00979863,-0.02887282,-0.82235667
'00:15:24.514,0.059570,0.028320,1.005859,0.426829,1.341463,-0.548781,-4.850000,17.525000,19.337500,30.676,0.56815790,-0.00979846,-0.02887191,-0.82235455
'00:15:24.524,0.059570,0.028320,1.005859,0.426829,1.341463,-0.548781,-4.850000,17.525000,19.337500,30.676,0.56816100,-0.00979828,-0.02887100,-0.82235244
'00:15:24.534,0.058594,0.029785,1.003906,0.365854,1.280488,-0.548781,-4.787500,17.525000,19.306250,30.661,0.56816811,-0.00979851,-0.02887901,-0.82234724
'00:15:24.544,0.059082,0.030762,1.004395,0.365854,1.341463,-0.548781,-4.787500,17.525000,19.306250,30.676,0.56817511,-0.00979309,-0.02889108,-0.82234205
'00:15:24.554,0.058594,0.030273,1.002441,0.365854,1.402439,-0.609756,-4.806250,17.543751,19.343750,30.707,0.56817694,-0.00978201,-0.02889498,-0.82234078
'00:15:24.564,0.057617,0.029785,1.002930,0.304878,1.341463,-0.548781,-4.806250,17.543751,19.343750,30.722,0.56818309,-0.00977501,-0.02889065,-0.82233677
'00:15:24.575,0.060059,0.029297,1.005859,0.426829,1.402439,-0.609756,-5.012500,17.850000,19.531250,30.722,0.56817687,-0.00976358,-0.02888857,-0.82234127
'00:15:24.584,0.060059,0.029297,1.005859,0.426829,1.402439,-0.609756,-5.012500,17.850000,19.531250,30.722,0.56817182,-0.00975439,-0.02888694,-0.82234493
'00:15:24.594,0.061523,0.028320,1.004883,0.426829,1.341463,-0.609756,-5.137500,18.012501,19.700001,30.661,0.56816100,-0.00975594,-0.02888288,-0.82235253
'00:15:24.604,0.060059,0.029297,1.003906,0.304878,1.341463,-0.609756,-5.137500,18.012501,19.700001,30.676,0.56814994,-0.00975210,-0.02887041,-0.82236065
'00:15:24.615,0.061035,0.030273,1.003418,0.365854,1.402439,-0.548781,-4.831250,17.600000,19.412500,30.707,0.56815610,-0.00975491,-0.02888427,-0.82235587
'00:15:24.624,0.061523,0.029297,1.001465,0.365854,1.402439,-0.548781,-4.831250,17.600000,19.412500,30.722,0.56816125,-0.00976342,-0.02889281,-0.82235192
'00:15:24.634,0.060059,0.029297,1.001953,0.304878,1.280488,-0.548781,-4.793750,17.537500,19.337500,30.676,0.56816808,-0.00977751,-0.02889955,-0.82234679
'00:15:24.644,0.060059,0.030273,1.002930,0.304878,1.341463,-0.609756,-4.793750,17.537500,19.337500,30.691,0.56817043,-0.00978277,-0.02890832,-0.82234480
'00:15:24.654,0.059082,0.028809,1.004883,0.304878,1.341463,-0.548781,-4.806250,17.543751,19.293751,30.691,0.56817695,-0.00978721,-0.02890330,-0.82234042
'00:15:24.664,0.059082,0.029297,1.005859,0.365854,1.341463,-0.548781,-4.806250,17.543751,19.293751,30.631,0.56818341,-0.00978642,-0.02890508,-0.82233590
'00:15:24.674,0.059082,0.030273,1.005371,0.304878,1.280488,-0.609756,-4.800000,17.518751,19.375000,30.661,0.56818455,-0.00978938,-0.02891094,-0.82233487
'00:15:24.684,0.058105,0.030273,1.003418,0.365854,1.402439,-0.548781,-4.800000,17.518751,19.375000,30.691,0.56819043,-0.00977563,-0.02891195,-0.82233094
'00:15:24.694,0.059570,0.029785,1.001953,0.365854,1.341463,-0.609756,-5.062500,17.887501,19.575001,30.707,0.56818172,-0.00976653,-0.02890777,-0.82233721
'00:15:24.704,0.059570,0.030273,1.000977,0.304878,1.341463,-0.548781,-5.062500,17.887501,19.575001,30.691,0.56817728,-0.00975909,-0.02890238,-0.82234056
'00:15:24.714,0.059082,0.030273,1.002930,0.304878,1.341463,-0.548781,-4.968750,17.856251,19.537500,30.676,0.56817865,-0.00975367,-0.02890090,-0.82233972
'00:15:24.724,0.061035,0.029785,1.004883,0.304878,1.341463,-0.548781,-4.968750,17.856251,19.537500,30.691,0.56818009,-0.00976050,-0.02890338,-0.82233856
'00:15:24.735,0.060547,0.027832,1.005371,0.365854,1.280488,-0.548781,-4.750000,17.481251,19.343750,30.691,0.56818980,-0.00978340,-0.02890903,-0.82233138
'00:15:24.744,0.060059,0.028809,1.005371,0.365854,1.280488,-0.609756,-4.750000,17.481251,19.343750,30.676,0.56819358,-0.00979574,-0.02891686,-0.82232835
'00:15:24.754,0.059570,0.028809,1.004395,0.365854,1.341463,-0.548781,-4.806250,17.531250,19.356251,30.691,0.56819945,-0.00979970,-0.02891757,-0.82232422
'00:15:24.764,0.059570,0.030273,1.002930,0.365854,1.341463,-0.548781,-4.756250,17.468750,19.312500,30.691,0.56820718,-0.00980023,-0.02892971,-0.82231845
'00:15:24.774,0.060547,0.030762,1.001953,0.304878,1.280488,-0.548781,-4.756250,17.468750,19.312500,30.707,0.56821449,-0.00981181,-0.02894725,-0.82231264
'00:15:24.784,0.059570,0.029297,1.002930,0.365854,1.402439,-0.548781,-5.300000,18.306250,19.812500,30.661,0.56820335,-0.00979234,-0.02892832,-0.82232124
'00:15:24.794,0.058594,0.029785,1.004883,0.304878,1.341463,-0.609756,-5.300000,18.306250,19.812500,30.691,0.56818767,-0.00977297,-0.02890673,-0.82233306
'00:15:24.805,0.059570,0.028809,1.005859,0.365854,1.280488,-0.548781,-5.206250,18.012501,19.656250,30.676,0.56817538,-0.00976426,-0.02888936,-0.82234226
'00:15:24.816,0.059082,0.029297,1.005859,0.304878,1.341463,-0.609756,-5.206250,18.012501,19.656250,30.691,0.56815839,-0.00974916,-0.02886521,-0.82235503
'00:15:24.824,0.060059,0.028809,1.003906,0.304878,1.341463,-0.609756,-4.843750,17.612501,19.337500,30.646,0.56815928,-0.00975656,-0.02886411,-0.82235437
'00:15:24.834,0.059082,0.029297,1.002930,0.304878,1.341463,-0.609756,-4.843750,17.612501,19.337500,30.707,0.56816031,-0.00975860,-0.02886211,-0.82235370
'00:15:24.844,0.059570,0.029785,1.003418,0.365854,1.341463,-0.548781,-4.831250,17.587500,19.350000,30.722,0.56816586,-0.00975889,-0.02886925,-0.82234961
'00:15:24.857,0.060547,0.030273,1.001953,0.365854,1.280488,-0.548781,-4.831250,17.587500,19.350000,30.722,0.56817263,-0.00976982,-0.02889152,-0.82234403
'00:15:24.864,0.059570,0.030273,1.004883,0.304878,1.280488,-0.609756,-4.812500,17.568750,19.343750,30.722,0.56817379,-0.00977397,-0.02889749,-0.82234296
'00:15:24.874,0.061523,0.028809,1.004395,0.365854,1.341463,-0.548781,-4.812500,17.568750,19.343750,30.707,0.56818022,-0.00978920,-0.02890661,-0.82233802
'00:15:24.884,0.060547,0.029297,1.004883,0.304878,1.280488,-0.548781,-4.843750,17.575001,19.381250,30.722,0.56818414,-0.00980243,-0.02891062,-0.82233501
'00:15:24.895,0.059570,0.029297,1.004395,0.304878,1.341463,-0.548781,-4.843750,17.575001,19.381250,30.752,0.56818862,-0.00980611,-0.02890766,-0.82233198
'00:15:24.905,0.058594,0.029785,1.004395,0.365854,1.341463,-0.548781,-5.068750,17.912500,19.550001,30.691,0.56818455,-0.00979082,-0.02889900,-0.82233527
'00:15:24.914,0.060059,0.030762,1.002930,0.304878,1.341463,-0.609756,-5.068750,17.912500,19.550001,30.737,0.56817674,-0.00978393,-0.02889787,-0.82234079
'00:15:24.924,0.060059,0.030762,1.002441,0.304878,1.280488,-0.548781,-4.806250,17.568750,19.387501,30.722,0.56818282,-0.00979157,-0.02891223,-0.82233600
'00:15:24.937,0.058105,0.031250,1.004395,0.182927,1.219512,-0.609756,-4.806250,17.568750,19.387501,30.691,0.56818462,-0.00979745,-0.02891595,-0.82233455
'00:15:24.944,0.060059,0.028809,1.004395,0.182927,1.219512,-0.609756,-4.837500,17.568750,19.343750,30.691,0.56818449,-0.00981345,-0.02891184,-0.82233460
'00:15:24.954,0.061035,0.028320,1.003906,0.426829,1.341463,-0.548781,-4.837500,17.568750,19.343750,30.691,0.56818922,-0.00982278,-0.02891860,-0.82233098
'00:15:24.964,0.060059,0.028320,1.005859,0.487805,1.524390,-0.548781,-4.775000,17.581251,19.375000,30.722,0.56819902,-0.00981419,-0.02892108,-0.82232423
'00:15:24.975,0.059082,0.029297,1.003906,0.182927,1.219512,-0.548781,-4.775000,17.581251,19.375000,30.691,0.56820844,-0.00983576,-0.02891911,-0.82231753
'00:15:24.984,0.059570,0.029785,1.002930,0.365854,1.341463,-0.548781,-4.787500,17.543751,19.387501,30.722,0.56821474,-0.00983684,-0.02892667,-0.82231289
'00:15:24.994,0.059082,0.029297,1.002930,0.304878,1.341463,-0.609756,-4.787500,17.543751,19.387501,30.691,0.56821742,-0.00984006,-0.02892591,-0.82231103
'00:15:25.004,0.058105,0.030273,1.002441,0.060976,1.097561,-0.548781,-5.081250,17.968750,19.631250,30.691,0.56821234,-0.00985282,-0.02890884,-0.82231499
'00:15:25.017,0.060059,0.028809,1.003418,0.182927,1.097561,-0.609756,-4.868750,17.631250,19.325001,30.707,0.56821066,-0.00989150,-0.02890836,-0.82231570
'00:15:25.024,0.061523,0.029297,1.004395,0.548781,1.585366,-0.609756,-4.868750,17.631250,19.325001,30.691,0.56821069,-0.00987889,-0.02891509,-0.82231559
'00:15:25.035,0.060059,0.029297,1.006836,0.609756,1.646341,-0.609756,-4.768750,17.525000,19.318750,30.661,0.56821598,-0.00984693,-0.02892561,-0.82231195
'00:15:25.044,0.061523,0.027344,1.003906,0.121951,1.036585,-0.548781,-4.768750,17.525000,19.318750,30.691,0.56822279,-0.00989721,-0.02892591,-0.82230663
'00:15:25.056,0.061035,0.028320,1.002441,0.670732,1.646341,-0.609756,-4.787500,17.525000,19.287500,30.601,0.56822725,-0.00986903,-0.02894061,-0.82230337
'00:15:25.064,0.059082,0.031250,1.003906,0.060976,1.036585,-0.487805,-4.787500,17.525000,19.287500,30.676,0.56823516,-0.00989181,-0.02894616,-0.82229744
'00:15:25.074,0.059570,0.030273,1.000977,0.670732,1.707317,-0.609756,-4.831250,17.550001,19.337500,30.722,0.56823592,-0.00984626,-0.02895810,-0.82229704
'00:15:25.084,0.060059,0.028320,1.000977,0.121951,1.036585,-0.487805,-4.831250,17.550001,19.337500,30.676,0.56824372,-0.00988737,-0.02895449,-0.82229128
'00:15:25.096,0.057617,0.030273,1.006348,0.609756,1.585366,-0.548781,-5.143750,18.043751,19.693750,30.691,0.56823625,-0.00982014,-0.02894386,-0.82229762
'00:15:25.104,0.062012,0.027344,1.003418,0.487805,1.402439,-0.548781,-5.143750,18.043751,19.693750,30.676,0.56823133,-0.00981996,-0.02893852,-0.82230121
'00:15:25.114,0.059570,0.029297,1.004883,0.182927,1.158537,-0.487805,-4.975000,17.818750,19.525000,30.676,0.56823512,-0.00983787,-0.02893072,-0.82229866
'00:15:25.124,0.058594,0.031250,1.007324,0.426829,1.402439,-0.609756,-4.975000,17.818750,19.525000,30.722,0.56823060,-0.00981220,-0.02893475,-0.82230195
'00:15:25.134,0.061523,0.028320,1.001953,0.487805,1.524390,-0.609756,-4.793750,17.606251,19.356251,30.661,0.56823513,-0.00981150,-0.02894327,-0.82229852
'00:15:25.144,0.062988,0.029785,1.000488,0.304878,1.219512,-0.548781,-4.793750,17.606251,19.356251,30.646,0.56824268,-0.00984446,-0.02896811,-0.82229203
'00:15:25.154,0.059570,0.031250,1.004395,0.243902,1.219512,-0.487805,-4.837500,17.593750,19.400000,30.676,0.56825078,-0.00985183,-0.02897779,-0.82228601
'00:15:25.164,0.059570,0.029785,1.004395,0.365854,1.402439,-0.548781,-4.837500,17.593750,19.400000,30.691,0.56825532,-0.00984550,-0.02897870,-0.82228291
'00:15:25.174,0.061035,0.027832,1.004395,0.365854,1.280488,-0.548781,-4.831250,17.550001,19.350000,30.691,0.56825951,-0.00986338,-0.02897977,-0.82227976
'00:15:25.185,0.058594,0.029297,1.004395,0.243902,1.280488,-0.609756,-4.831250,17.550001,19.350000,30.661,0.56825892,-0.00986805,-0.02897008,-0.82228046
'00:15:25.194,0.057617,0.029297,1.004883,0.426829,1.341463,-0.609756,-5.262500,18.168751,19.768751,30.707,0.56824415,-0.00984097,-0.02895146,-0.82229165
'00:15:25.204,0.058105,0.030273,1.001465,0.365854,1.402439,-0.609756,-5.262500,18.168751,19.768751,30.691,0.56822774,-0.00980960,-0.02893227,-0.82230404
'00:15:25.216,0.059570,0.029785,1.002930,0.304878,1.341463,-0.548781,-5.212500,18.137501,19.775000,30.691,0.56821633,-0.00979588,-0.02891419,-0.82231272
'00:15:25.224,0.059082,0.030273,1.002441,0.304878,1.341463,-0.548781,-5.212500,18.137501,19.775000,30.707,0.56820872,-0.00978341,-0.02890324,-0.82231851
'00:15:25.234,0.060059,0.028809,1.005371,0.365854,1.341463,-0.548781,-4.775000,17.556250,19.375000,30.661,0.56821729,-0.00979239,-0.02890866,-0.82231229
'00:15:25.244,0.060059,0.027832,1.004395,0.304878,1.341463,-0.548781,-4.775000,17.556250,19.375000,30.722,0.56822595,-0.00980828,-0.02890439,-0.82230627
'00:15:25.255,0.061035,0.029785,1.004395,0.304878,1.280488,-0.548781,-4.787500,17.543751,19.312500,30.661,0.56823374,-0.00982647,-0.02891816,-0.82230019
'00:15:25.264,0.061035,0.029785,1.004395,0.304878,1.280488,-0.548781,-4.787500,17.543751,19.312500,30.661,0.56824005,-0.00984107,-0.02892916,-0.82229527
'00:15:25.274,0.061035,0.029785,1.004395,0.304878,1.402439,-0.548781,-4.812500,17.562500,19.243750,30.676,0.56824628,-0.00984676,-0.02893375,-0.82229073
'00:15:25.284,0.060059,0.028809,1.003906,0.365854,1.341463,-0.548781,-4.812500,17.562500,19.243750,30.661,0.56825262,-0.00985225,-0.02893656,-0.82228618
'00:15:25.296,0.060059,0.030273,1.002930,0.365854,1.341463,-0.548781,-4.793750,17.475000,19.350000,30.631,0.56825833,-0.00985239,-0.02894920,-0.82228179
'00:15:25.304,0.060059,0.030273,1.002930,0.365854,1.341463,-0.548781,-5.068750,17.975000,19.581251,30.631,0.56825572,-0.00984525,-0.02894969,-0.82228366
'00:15:25.314,0.059082,0.030762,1.003418,0.304878,1.280488,-0.609756,-5.068750,17.975000,19.581251,30.691,0.56824783,-0.00983639,-0.02894784,-0.82228928
'00:15:25.324,0.058594,0.030273,1.003906,0.304878,1.341463,-0.609756,-4.856250,17.637501,19.393751,30.676,0.56824759,-0.00982982,-0.02894678,-0.82228957
'00:15:25.336,0.059082,0.028809,1.005859,0.365854,1.402439,-0.609756,-4.856250,17.637501,19.393751,30.676,0.56824793,-0.00982283,-0.02893857,-0.82228971
'00:15:25.344,0.059082,0.028809,1.005859,0.365854,1.402439,-0.609756,-4.800000,17.581251,19.387501,30.676,0.56825027,-0.00982041,-0.02893562,-0.82228823
'00:15:25.354,0.058594,0.030273,1.004883,0.365854,1.341463,-0.548781,-4.800000,17.581251,19.387501,30.691,0.56825711,-0.00981365,-0.02894176,-0.82228336
'00:15:25.364,0.060059,0.030273,1.003906,0.365854,1.402439,-0.548781,-4.818750,17.512501,19.350000,30.691,0.56826122,-0.00980872,-0.02894778,-0.82228036
'00:15:25.377,0.059570,0.030762,1.002441,0.304878,1.341463,-0.548781,-4.818750,17.512501,19.350000,30.691,0.56826616,-0.00980637,-0.02895564,-0.82227671
'00:15:25.384,0.059082,0.030273,1.001465,0.365854,1.341463,-0.548781,-4.812500,17.568750,19.312500,30.616,0.56827027,-0.00980333,-0.02896119,-0.82227370
'00:15:25.394,0.060059,0.028320,1.003418,0.304878,1.280488,-0.548781,-4.812500,17.568750,19.312500,30.661,0.56827631,-0.00981908,-0.02895960,-0.82226940
'00:15:25.404,0.061035,0.029297,1.003906,0.243902,1.341463,-0.548781,-5.137500,18.031250,19.600000,30.691,0.56826978,-0.00982228,-0.02894541,-0.82227437
'00:15:25.418,0.060059,0.029785,1.003906,0.365854,1.341463,-0.609756,-5.137500,18.031250,19.600000,30.691,0.56825461,-0.00980811,-0.02893683,-0.82228532
'00:15:25.424,0.060059,0.029785,1.003906,0.365854,1.341463,-0.609756,-5.087500,18.000000,19.625000,30.691,0.56824966,-0.00980370,-0.02893499,-0.82228887
'00:15:25.434,0.061523,0.028809,1.003906,0.426829,1.341463,-0.609756,-5.087500,18.000000,19.625000,30.691,0.56824164,-0.00980509,-0.02893649,-0.82229434
'00:15:25.444,0.059082,0.028320,1.003906,0.426829,1.341463,-0.548781,-4.781250,17.537500,19.350000,30.722,0.56824941,-0.00980666,-0.02893871,-0.82228887
'00:15:25.454,0.060059,0.028809,1.003906,0.426829,1.341463,-0.609756,-4.781250,17.537500,19.350000,30.722,0.56825263,-0.00981152,-0.02894749,-0.82228628
'00:15:25.464,0.059082,0.029297,1.003906,0.365854,1.341463,-0.609756,-4.806250,17.512501,19.381250,30.722,0.56825321,-0.00981014,-0.02894807,-0.82228587
'00:15:25.474,0.057617,0.030273,1.005371,0.426829,1.341463,-0.548781,-4.806250,17.512501,19.381250,30.722,0.56825808,-0.00979356,-0.02895225,-0.82228256
'00:15:25.484,0.057129,0.029785,1.003418,0.426829,1.402439,-0.609756,-4.768750,17.500000,19.256250,30.676,0.56826172,-0.00977414,-0.02895246,-0.82228027
'00:15:25.496,0.058105,0.031250,1.002441,0.304878,1.280488,-0.548781,-4.768750,17.500000,19.256250,30.676,0.56827043,-0.00976891,-0.02896447,-0.82227389
'00:15:25.504,0.058594,0.030273,1.002930,0.304878,1.341463,-0.548781,-5.100000,17.993750,19.618750,30.691,0.56826643,-0.00975760,-0.02895533,-0.82227711
'00:15:25.514,0.060547,0.030762,1.001465,0.304878,1.402439,-0.548781,-5.100000,17.993750,19.618750,30.676,0.56826148,-0.00974832,-0.02895174,-0.82228076
'00:15:25.524,0.061523,0.028320,1.002441,0.304878,1.341463,-0.548781,-5.118750,17.962500,19.668751,30.676,0.56825473,-0.00975667,-0.02893876,-0.82228579
'00:15:25.534,0.062988,0.029297,1.003906,0.304878,1.341463,-0.548781,-5.118750,17.962500,19.668751,30.722,0.56824778,-0.00976877,-0.02893637,-0.82229053
'00:15:25.544,0.062500,0.029297,1.005371,0.426829,1.341463,-0.548781,-4.762500,17.556250,19.356251,30.676,0.56825697,-0.00978704,-0.02895873,-0.82228317
'00:15:25.554,0.061523,0.028809,1.003906,0.365854,1.280488,-0.609756,-4.812500,17.512501,19.381250,30.676,0.56825698,-0.00980544,-0.02896837,-0.82228261
'00:15:25.564,0.059570,0.029785,1.002930,0.365854,1.280488,-0.548781,-4.812500,17.512501,19.381250,30.691,0.56826118,-0.00980924,-0.02897615,-0.82227939
'00:15:25.574,0.056641,0.029785,1.004395,0.304878,1.341463,-0.609756,-4.837500,17.512501,19.287500,30.691,0.56825983,-0.00979307,-0.02896279,-0.82228098
'00:15:25.584,0.056152,0.029785,1.004395,0.426829,1.402439,-0.609756,-4.837500,17.512501,19.287500,30.691,0.56825882,-0.00976404,-0.02895352,-0.82228236
'00:15:25.594,0.057129,0.030273,1.001465,0.365854,1.341463,-0.548781,-5.043750,17.856251,19.525000,30.691,0.56825490,-0.00974037,-0.02894278,-0.82228572
'00:15:25.604,0.057617,0.030273,1.003906,0.243902,1.219512,-0.609756,-5.043750,17.856251,19.525000,30.661,0.56824628,-0.00973391,-0.02893054,-0.82229219
'00:15:25.614,0.059082,0.031738,1.005371,0.365854,1.341463,-0.548781,-5.093750,17.881250,19.675001,30.722,0.56823880,-0.00971280,-0.02893080,-0.82229760
'00:15:25.624,0.061035,0.027832,1.004395,0.365854,1.341463,-0.548781,-5.093750,17.881250,19.675001,30.691,0.56823214,-0.00971796,-0.02891718,-0.82230262
'00:15:25.634,0.061523,0.028320,1.004883,0.304878,1.280488,-0.609756,-4.975000,17.731251,19.506250,30.661,0.56822597,-0.00973556,-0.02891263,-0.82230683
'00:15:25.644,0.062500,0.029785,1.005371,0.365854,1.280488,-0.548781,-4.975000,17.731251,19.506250,30.691,0.56822389,-0.00974958,-0.02892418,-0.82230770
'00:15:25.654,0.061523,0.029297,1.004883,0.365854,1.341463,-0.609756,-4.793750,17.568750,19.293751,30.691,0.56822721,-0.00976380,-0.02893693,-0.82230478
'00:15:25.664,0.060547,0.029297,1.001465,0.304878,1.341463,-0.548781,-4.793750,17.568750,19.293751,30.676,0.56823481,-0.00977634,-0.02894262,-0.82229919
'00:15:25.674,0.058594,0.031250,1.001465,0.243902,1.280488,-0.548781,-4.825000,17.631250,19.387501,30.661,0.56824071,-0.00977671,-0.02894921,-0.82229487
'00:15:25.684,0.057129,0.030762,1.003906,0.304878,1.280488,-0.548781,-4.825000,17.631250,19.387501,30.722,0.56824681,-0.00976731,-0.02895062,-0.82229072
'00:15:25.694,0.059082,0.029785,1.004883,0.304878,1.341463,-0.609756,-4.787500,17.531250,19.343750,30.722,0.56824927,-0.00976882,-0.02895130,-0.82228898
'00:15:25.704,0.058105,0.028809,1.004883,0.304878,1.280488,-0.548781,-4.787500,17.531250,19.343750,30.676,0.56825617,-0.00977324,-0.02894557,-0.82228436
'00:15:25.714,0.057129,0.030762,1.003906,0.365854,1.341463,-0.548781,-5.043750,17.925001,19.581251,30.707,0.56825356,-0.00974816,-0.02893823,-0.82228672
'00:15:25.724,0.059082,0.030762,1.002441,0.304878,1.341463,-0.548781,-5.043750,17.925001,19.581251,30.707,0.56825090,-0.00973750,-0.02893472,-0.82228880
'00:15:25.734,0.060059,0.029297,1.004395,0.304878,1.341463,-0.548781,-4.987500,17.868750,19.537500,30.707,0.56825123,-0.00974003,-0.02892907,-0.82228875
'00:15:25.744,0.061523,0.029785,1.003906,0.304878,1.341463,-0.548781,-4.987500,17.868750,19.537500,30.661,0.56825141,-0.00974871,-0.02893199,-0.82228842
'00:15:25.754,0.061523,0.029785,1.002930,0.365854,1.341463,-0.548781,-4.787500,17.537500,19.350000,30.661,0.56825833,-0.00976170,-0.02894766,-0.82228293
'00:15:25.764,0.060547,0.029785,1.003418,0.304878,1.280488,-0.548781,-4.787500,17.537500,19.350000,30.722,0.56826503,-0.00977634,-0.02895771,-0.82227777
'00:15:25.774,0.061035,0.028809,1.005371,0.304878,1.280488,-0.548781,-4.756250,17.500000,19.256250,30.691,0.56827356,-0.00979797,-0.02896489,-0.82227137
'00:15:25.784,0.059082,0.030273,1.002930,0.365854,1.341463,-0.609756,-4.756250,17.500000,19.256250,30.691,0.56827760,-0.00979563,-0.02897503,-0.82226824
'00:15:25.794,0.058594,0.030273,1.003906,0.304878,1.341463,-0.487805,-4.800000,17.575001,19.318750,30.691,0.56828878,-0.00979222,-0.02897646,-0.82226051
'00:15:25.804,0.058594,0.029785,1.002930,0.304878,1.402439,-0.548781,-4.800000,17.575001,19.318750,30.722,0.56829581,-0.00978643,-0.02897247,-0.82225586
'00:15:25.814,0.059082,0.029785,1.003906,0.243902,1.280488,-0.548781,-5.000000,17.831251,19.600000,30.646,0.56829357,-0.00978719,-0.02896179,-0.82225777
'00:15:25.824,0.059570,0.028320,1.004883,0.365854,1.341463,-0.548781,-5.243750,18.106251,19.725000,30.722,0.56828165,-0.00977569,-0.02893880,-0.82226696
'00:15:25.834,0.060059,0.028320,1.005371,0.304878,1.280488,-0.548781,-5.243750,18.106251,19.725000,30.661,0.56826961,-0.00977435,-0.02891653,-0.82227607
'00:15:25.844,0.060059,0.028809,1.004395,0.304878,1.341463,-0.548781,-4.837500,17.500000,19.350000,30.691,0.56827231,-0.00978174,-0.02891136,-0.82227430
'00:15:25.854,0.060547,0.029297,1.003906,0.365854,1.402439,-0.548781,-4.837500,17.500000,19.350000,30.646,0.56827508,-0.00978252,-0.02891245,-0.82227234
'00:15:25.864,0.059570,0.028809,1.001465,0.426829,1.341463,-0.609756,-4.843750,17.562500,19.362501,30.707,0.56827448,-0.00978204,-0.02891638,-0.82227262
'00:15:25.874,0.060059,0.030273,1.001953,0.304878,1.341463,-0.548781,-4.843750,17.562500,19.362501,30.722,0.56827782,-0.00978458,-0.02892146,-0.82227011
'00:15:25.884,0.059570,0.030273,1.004395,0.304878,1.341463,-0.548781,-4.787500,17.556250,19.343750,30.707,0.56828504,-0.00978717,-0.02892789,-0.82226486
'00:15:25.894,0.058594,0.029297,1.004395,0.304878,1.341463,-0.609756,-4.787500,17.556250,19.343750,30.691,0.56828809,-0.00978796,-0.02892490,-0.82226285
'00:15:25.904,0.060059,0.028809,1.004883,0.365854,1.341463,-0.548781,-4.831250,17.637501,19.425001,30.676,0.56829414,-0.00979445,-0.02892732,-0.82225851
'00:15:25.914,0.060547,0.028809,1.004883,0.365854,1.341463,-0.548781,-4.831250,17.637501,19.425001,30.707,0.56830013,-0.00980351,-0.02893155,-0.82225411
'00:15:25.924,0.061035,0.027832,1.005371,0.365854,1.341463,-0.548781,-5.043750,17.881250,19.568750,30.691,0.56829689,-0.00980956,-0.02892123,-0.82225664
'00:15:25.934,0.058594,0.029785,1.004395,0.426829,1.402439,-0.548781,-5.043750,17.881250,19.568750,30.707,0.56829353,-0.00978754,-0.02891438,-0.82225946
'00:15:25.944,0.059570,0.029297,1.002441,0.365854,1.402439,-0.609756,-4.881250,17.612501,19.393751,30.752,0.56829133,-0.00978192,-0.02891143,-0.82226115
'00:15:25.954,0.058594,0.031250,1.000977,0.304878,1.341463,-0.548781,-4.881250,17.612501,19.393751,30.691,0.56829292,-0.00977116,-0.02891501,-0.82226006
'00:15:25.964,0.059082,0.032227,1.001953,0.304878,1.280488,-0.548781,-4.825000,17.543751,19.312500,30.676,0.56829676,-0.00976582,-0.02893152,-0.82225689
'00:15:25.974,0.060547,0.029785,1.003418,0.304878,1.341463,-0.548781,-4.825000,17.543751,19.312500,30.661,0.56830120,-0.00977356,-0.02893597,-0.82225357
'00:15:25.984,0.061035,0.030273,1.004395,0.365854,1.341463,-0.609756,-4.787500,17.500000,19.287500,30.691,0.56830285,-0.00978022,-0.02895094,-0.82225182
'00:15:25.994,0.061523,0.029297,1.006348,0.304878,1.341463,-0.548781,-4.787500,17.500000,19.287500,30.722,0.56830898,-0.00979602,-0.02895680,-0.82224719
'00:15:26.004,0.061035,0.029297,1.003906,0.304878,1.341463,-0.548781,-4.787500,17.506250,19.343750,30.691,0.56831495,-0.00980967,-0.02896162,-0.82224273
'00:15:26.014,0.061035,0.029297,1.003906,0.304878,1.341463,-0.548781,-4.787500,17.506250,19.343750,30.691,0.56832088,-0.00982309,-0.02896633,-0.82223831
'00:15:26.024,0.060059,0.029785,1.003418,0.365854,1.341463,-0.548781,-5.168750,18.068750,19.643751,30.691,0.56831284,-0.00981188,-0.02895832,-0.82224428
'00:15:26.034,0.060059,0.029297,1.002441,0.304878,1.341463,-0.548781,-5.168750,18.068750,19.643751,30.631,0.56830491,-0.00980595,-0.02894380,-0.82225034
'00:15:26.044,0.059570,0.031738,1.002930,0.304878,1.341463,-0.609756,-4.931250,17.706251,19.450001,30.691,0.56830042,-0.00979613,-0.02895077,-0.82225332
'00:15:26.054,0.059082,0.030273,1.002930,0.304878,1.341463,-0.609756,-4.931250,17.706251,19.450001,30.691,0.56829627,-0.00978950,-0.02894756,-0.82225638
'00:15:26.064,0.059570,0.029297,1.002930,0.243902,1.280488,-0.548781,-4.743750,17.500000,19.243750,30.661,0.56830552,-0.00980514,-0.02894950,-0.82224973
'00:15:26.074,0.058105,0.028320,1.002930,0.304878,1.341463,-0.609756,-4.812500,17.587500,19.393751,30.722,0.56830743,-0.00980603,-0.02893783,-0.82224881
'00:15:26.084,0.058105,0.028320,1.004395,0.304878,1.341463,-0.548781,-4.812500,17.587500,19.393751,30.661,0.56831374,-0.00980677,-0.02892573,-0.82224487
'00:15:26.094,0.060059,0.029785,1.003906,0.304878,1.280488,-0.548781,-4.825000,17.518751,19.312500,30.691,0.56831733,-0.00981509,-0.02893049,-0.82224212
'00:15:26.104,0.060059,0.030273,1.004395,0.304878,1.280488,-0.548781,-4.825000,17.518751,19.312500,30.661,0.56832079,-0.00982124,-0.02893770,-0.82223940
'00:15:26.114,0.060059,0.029785,1.002930,0.365854,1.341463,-0.548781,-5.150000,18.087500,19.668751,30.691,0.56831438,-0.00981158,-0.02893209,-0.82224414
'00:15:26.124,0.061035,0.029297,1.002441,0.365854,1.280488,-0.548781,-5.150000,18.087500,19.668751,30.691,0.56830793,-0.00981369,-0.02893080,-0.82224862
'00:15:26.135,0.060547,0.030762,1.004883,0.304878,1.341463,-0.609756,-5.075000,17.993750,19.675001,30.676,0.56829892,-0.00980808,-0.02893082,-0.82225492
'00:15:26.144,0.062012,0.030762,1.006348,0.304878,1.341463,-0.609756,-5.075000,17.993750,19.675001,30.661,0.56829154,-0.00981045,-0.02893533,-0.82225983
'00:15:26.154,0.060547,0.029297,1.003906,0.304878,1.341463,-0.609756,-4.843750,17.606251,19.343750,30.752,0.56829170,-0.00981898,-0.02893672,-0.82225957
'00:15:26.164,0.060059,0.029785,1.003906,0.304878,1.402439,-0.609756,-4.843750,17.606251,19.343750,30.691,0.56829190,-0.00981840,-0.02893593,-0.82225946
'00:15:26.174,0.058105,0.028809,1.002930,0.365854,1.341463,-0.548781,-4.793750,17.593750,19.387501,30.707,0.56829967,-0.00981558,-0.02893324,-0.82225423
'00:15:26.184,0.059082,0.029785,1.002441,0.365854,1.341463,-0.487805,-4.793750,17.593750,19.387501,30.722,0.56831153,-0.00981463,-0.02894009,-0.82224579
'00:15:26.194,0.059570,0.031738,1.001953,0.365854,1.341463,-0.548781,-4.825000,17.593750,19.356251,30.661,0.56831648,-0.00980659,-0.02895762,-0.82224185
'00:15:26.204,0.060547,0.029297,1.003906,0.365854,1.341463,-0.609756,-4.825000,17.593750,19.356251,30.691,0.56831753,-0.00981307,-0.02896407,-0.82224082
'00:15:26.214,0.060059,0.029297,1.004395,0.365854,1.280488,-0.609756,-4.856250,17.625000,19.381250,30.722,0.56831688,-0.00981958,-0.02896960,-0.82224100
'00:15:26.224,0.060059,0.028809,1.004883,0.365854,1.341463,-0.548781,-4.856250,17.625000,19.381250,30.691,0.56832085,-0.00982358,-0.02896901,-0.82223823
'00:15:26.235,0.060547,0.029785,1.005371,0.365854,1.402439,-0.548781,-5.175000,18.093750,19.693750,30.661,0.56831215,-0.00980898,-0.02895802,-0.82224481
'00:15:26.244,0.060547,0.028809,1.004883,0.304878,1.341463,-0.548781,-5.175000,18.093750,19.693750,30.661,0.56830508,-0.00980736,-0.02894335,-0.82225023
'00:15:26.254,0.058594,0.029297,1.004395,0.304878,1.341463,-0.548781,-4.806250,17.600000,19.412500,30.676,0.56831181,-0.00980755,-0.02893936,-0.82224571
'00:15:26.264,0.059082,0.030273,1.001465,0.365854,1.280488,-0.548781,-4.806250,17.600000,19.412500,30.646,0.56831817,-0.00980854,-0.02895143,-0.82224088
'00:15:26.276,0.058105,0.030762,1.002441,0.365854,1.341463,-0.609756,-4.793750,17.550001,19.337500,30.691,0.56832063,-0.00979500,-0.02896036,-0.82223903
'00:15:26.284,0.059570,0.030273,1.003418,0.365854,1.341463,-0.548781,-4.793750,17.550001,19.337500,30.691,0.56832580,-0.00979414,-0.02896817,-0.82223519
'00:15:26.294,0.060547,0.029785,1.005371,0.365854,1.341463,-0.548781,-4.781250,17.543751,19.325001,30.676,0.56833310,-0.00980063,-0.02897886,-0.82222969
'00:15:26.304,0.060059,0.029785,1.004395,0.304878,1.341463,-0.609756,-4.781250,17.543751,19.325001,30.676,0.56833594,-0.00980736,-0.02898354,-0.82222748
'00:15:26.314,0.060059,0.029785,1.003906,0.365854,1.341463,-0.548781,-4.912500,17.756250,19.481251,30.676,0.56833843,-0.00980650,-0.02898714,-0.82222564
'00:15:26.324,0.061035,0.028320,1.003418,0.365854,1.341463,-0.609756,-4.912500,17.756250,19.481251,30.691,0.56833681,-0.00981667,-0.02898643,-0.82222667
'00:15:26.334,0.060059,0.029785,1.004395,0.365854,1.341463,-0.548781,-5.100000,17.943750,19.587500,30.722,0.56833058,-0.00980735,-0.02897988,-0.82223132
'00:15:26.344,0.059570,0.029785,1.003418,0.365854,1.280488,-0.609756,-4.993750,17.731251,19.493750,30.722,0.56832240,-0.00980299,-0.02897812,-0.82223708
'00:15:26.354,0.059082,0.029785,1.002930,0.426829,1.280488,-0.548781,-4.993750,17.731251,19.493750,30.676,0.56831869,-0.00979328,-0.02897906,-0.82223973
'00:15:26.364,0.059082,0.029297,1.004395,0.304878,1.341463,-0.548781,-4.787500,17.587500,19.337500,30.707,0.56832666,-0.00979707,-0.02897772,-0.82223423
'00:15:26.374,0.060059,0.029785,1.002930,0.365854,1.341463,-0.548781,-4.787500,17.587500,19.337500,30.691,0.56833448,-0.00980156,-0.02898787,-0.82222841
'00:15:26.384,0.058105,0.030273,1.002441,0.243902,1.341463,-0.548781,-4.831250,17.550001,19.318750,30.676,0.56833825,-0.00979606,-0.02898020,-0.82222614
'00:15:26.394,0.059082,0.030762,1.002441,0.304878,1.341463,-0.609756,-4.831250,17.550001,19.318750,30.646,0.56833756,-0.00979098,-0.02898363,-0.82222655
'00:15:26.404,0.060547,0.029297,1.004395,0.304878,1.280488,-0.548781,-4.793750,17.600000,19.337500,30.661,0.56834510,-0.00980699,-0.02899064,-0.82222090
'00:15:26.414,0.061035,0.028809,1.005371,0.304878,1.280488,-0.548781,-4.793750,17.600000,19.337500,30.722,0.56835266,-0.00982712,-0.02899621,-0.82221524
'00:15:26.424,0.060059,0.029297,1.004883,0.365854,1.280488,-0.609756,-5.206250,18.068750,19.750000,30.676,0.56833717,-0.00981960,-0.02898438,-0.82222646
'00:15:26.434,0.061035,0.028809,1.003906,0.365854,1.341463,-0.548781,-5.206250,18.068750,19.750000,30.646,0.56832636,-0.00981538,-0.02897110,-0.82223445
'00:15:26.444,0.060059,0.029785,1.002930,0.304878,1.341463,-0.548781,-5.125000,18.025000,19.637501,30.691,0.56832015,-0.00980926,-0.02896100,-0.82223916
'00:15:26.454,0.060059,0.030762,1.003418,0.365854,1.280488,-0.548781,-5.125000,18.025000,19.637501,30.691,0.56831370,-0.00980077,-0.02896369,-0.82224363
'00:15:26.464,0.059570,0.030273,1.000488,0.304878,1.280488,-0.609756,-4.812500,17.550001,19.337500,30.707,0.56831426,-0.00980632,-0.02897181,-0.82224289
'00:15:26.474,0.058594,0.029785,1.002441,0.243902,1.280488,-0.609756,-4.812500,17.550001,19.337500,30.691,0.56831490,-0.00981089,-0.02896808,-0.82224252
'00:15:26.484,0.058594,0.029297,1.004395,0.304878,1.280488,-0.609756,-4.793750,17.581251,19.356251,30.691,0.56831769,-0.00981553,-0.02896739,-0.82224056
'00:15:26.494,0.060547,0.028320,1.006836,0.304878,1.341463,-0.548781,-4.793750,17.581251,19.356251,30.707,0.56832514,-0.00983000,-0.02896468,-0.82223534
'00:15:26.504,0.060059,0.028809,1.004883,0.365854,1.402439,-0.548781,-4.775000,17.518751,19.293751,30.646,0.56833274,-0.00983279,-0.02896508,-0.82223004
'00:15:26.514,0.060547,0.030273,1.004395,0.304878,1.219512,-0.609756,-4.775000,17.518751,19.293751,30.691,0.56833508,-0.00984852,-0.02898059,-0.82222769
'00:15:26.524,0.059082,0.029297,1.002441,0.426829,1.402439,-0.609756,-5.018750,17.812500,19.500000,30.722,0.56832748,-0.00983086,-0.02897293,-0.82223342
'00:15:26.534,0.059082,0.030762,1.001953,0.365854,1.341463,-0.548781,-5.018750,17.812500,19.500000,30.722,0.56832381,-0.00981548,-0.02897243,-0.82223616
'00:15:26.544,0.059570,0.029297,1.001465,0.304878,1.341463,-0.609756,-5.087500,17.931250,19.693750,30.676,0.56831342,-0.00980976,-0.02895871,-0.82224389
'00:15:26.554,0.059082,0.029785,1.002441,0.304878,1.341463,-0.548781,-5.087500,17.931250,19.693750,30.691,0.56830739,-0.00979956,-0.02894568,-0.82224864
'00:15:26.564,0.059570,0.029785,1.005859,0.304878,1.280488,-0.548781,-4.831250,17.512501,19.362501,30.691,0.56831022,-0.00980452,-0.02894671,-0.82224659
'00:15:26.574,0.060059,0.028320,1.005371,0.365854,1.402439,-0.548781,-4.831250,17.512501,19.362501,30.691,0.56831367,-0.00980620,-0.02893981,-0.82224442
'00:15:26.584,0.060547,0.028809,1.005859,0.365854,1.341463,-0.548781,-4.812500,17.518751,19.418751,30.707,0.56831808,-0.00981434,-0.02894196,-0.82224121
'00:15:26.594,0.059570,0.028320,1.002930,0.426829,1.341463,-0.548781,-4.806250,17.543751,19.418751,30.691,0.56832365,-0.00981720,-0.02894409,-0.82223725
'00:15:26.604,0.057129,0.030762,1.001953,0.426829,1.402439,-0.548781,-4.806250,17.543751,19.418751,30.661,0.56832891,-0.00979248,-0.02894797,-0.82223377
'00:15:26.614,0.058594,0.031738,1.000977,0.304878,1.341463,-0.548781,-4.806250,17.531250,19.325001,30.722,0.56833377,-0.00978267,-0.02895767,-0.82223019
'00:15:26.624,0.060547,0.032227,1.001465,0.304878,1.280488,-0.548781,-4.806250,17.531250,19.325001,30.631,0.56833827,-0.00978619,-0.02898034,-0.82222624
'00:15:26.634,0.059570,0.030273,1.003418,0.243902,1.280488,-0.548781,-5.175000,18.056250,19.725000,30.691,0.56832884,-0.00978101,-0.02896624,-0.82223331
'00:15:26.644,0.062012,0.028809,1.005371,0.365854,1.341463,-0.548781,-5.175000,18.056250,19.725000,30.691,0.56832001,-0.00978390,-0.02895850,-0.82223966
'00:15:26.654,0.062012,0.028320,1.004395,0.304878,1.341463,-0.548781,-4.943750,17.768751,19.418751,30.676,0.56832124,-0.00980081,-0.02895536,-0.82223871
'00:15:26.664,0.061523,0.027832,1.004883,0.365854,1.341463,-0.609756,-4.943750,17.768751,19.418751,30.691,0.56831825,-0.00981342,-0.02895189,-0.82224075
'00:15:26.674,0.059570,0.028809,1.004883,0.426829,1.402439,-0.548781,-4.793750,17.537500,19.350000,30.722,0.56832489,-0.00981004,-0.02895388,-0.82223613
'00:15:26.684,0.059082,0.030273,1.003418,0.365854,1.341463,-0.548781,-4.793750,17.537500,19.350000,30.646,0.56833100,-0.00980589,-0.02896149,-0.82223169
'00:15:26.694,0.056641,0.030762,1.001953,0.365854,1.341463,-0.609756,-4.837500,17.562500,19.287500,30.691,0.56833049,-0.00978393,-0.02896024,-0.82223235
'00:15:26.704,0.058594,0.030762,1.003906,0.365854,1.280488,-0.609756,-4.837500,17.562500,19.287500,30.691,0.56832982,-0.00977715,-0.02896885,-0.82223259
'00:15:26.714,0.057129,0.030273,1.002930,0.304878,1.341463,-0.609756,-4.825000,17.612501,19.275000,30.691,0.56833151,-0.00976455,-0.02896412,-0.82223174
'00:15:26.724,0.058594,0.029785,1.003906,0.243902,1.280488,-0.609756,-4.825000,17.612501,19.275000,30.691,0.56833308,-0.00976935,-0.02896065,-0.82223072
'00:15:26.734,0.058594,0.029297,1.006836,0.304878,1.280488,-0.548781,-5.325000,18.275000,19.850000,30.676,0.56831884,-0.00975416,-0.02893508,-0.82224164
'00:15:26.744,0.061035,0.031250,1.002930,0.365854,1.402439,-0.609756,-5.325000,18.275000,19.850000,30.722,0.56830024,-0.00973384,-0.02892963,-0.82225492
'00:15:26.754,0.061035,0.031250,1.002930,0.365854,1.402439,-0.609756,-5.087500,17.937500,19.606251,30.722,0.56829043,-0.00972208,-0.02893440,-0.82226168
'00:15:26.764,0.062988,0.029785,0.999023,0.182927,1.219512,-0.548781,-5.087500,17.937500,19.606251,30.691,0.56828463,-0.00974990,-0.02893586,-0.82226531
'00:15:26.774,0.063477,0.028809,1.005371,0.182927,1.219512,-0.548781,-4.775000,17.525000,19.256250,30.691,0.56829208,-0.00979482,-0.02894612,-0.82225926
'00:15:26.784,0.062500,0.024902,1.004395,0.365854,1.341463,-0.548781,-4.775000,17.525000,19.256250,30.691,0.56830072,-0.00983136,-0.02893777,-0.82225315
'00:15:26.794,0.059082,0.029297,1.005859,0.670732,1.707317,-0.670732,-4.806250,17.512501,19.381250,30.676,0.56829797,-0.00978765,-0.02894132,-0.82225545
'00:15:26.804,0.059570,0.028809,0.999512,0.243902,1.158537,-0.548781,-4.806250,17.512501,19.381250,30.707,0.56830232,-0.00981142,-0.02894301,-0.82225210
'00:15:26.814,0.054199,0.034180,1.006348,0.243902,1.219512,-0.548781,-4.775000,17.481251,19.281250,30.661,0.56830772,-0.00977888,-0.02895055,-0.82224848
'00:15:26.824,0.055664,0.030273,1.003418,0.487805,1.524390,-0.670732,-4.775000,17.481251,19.281250,30.676,0.56830617,-0.00973686,-0.02894508,-0.82225025
'00:15:26.834,0.056641,0.030762,1.002930,0.182927,1.158537,-0.548781,-5.000000,17.787500,19.562500,30.661,0.56830266,-0.00973236,-0.02893208,-0.82225319
'00:15:26.844,0.057129,0.030762,1.003906,0.426829,1.463415,-0.548781,-5.000000,17.787500,19.562500,30.691,0.56830016,-0.00969653,-0.02892320,-0.82225565
'00:15:26.854,0.062012,0.028809,1.002930,0.304878,1.341463,-0.548781,-5.162500,17.962500,19.593750,30.722,0.56829074,-0.00970345,-0.02891199,-0.82226248
'00:15:26.864,0.063477,0.029785,1.006836,0.243902,1.219512,-0.609756,-4.825000,17.512501,19.306250,30.691,0.56828980,-0.00973865,-0.02892770,-0.82226215
'00:15:26.874,0.064453,0.027832,1.003418,0.365854,1.402439,-0.548781,-4.825000,17.512501,19.306250,30.691,0.56829404,-0.00976802,-0.02893683,-0.82225855
'00:15:26.884,0.062988,0.029297,1.004883,0.304878,1.402439,-0.609756,-4.768750,17.468750,19.268751,30.707,0.56829659,-0.00978859,-0.02894698,-0.82225619
'00:15:26.894,0.061523,0.028320,1.003418,0.426829,1.463415,-0.548781,-4.768750,17.468750,19.268751,30.707,0.56830397,-0.00979470,-0.02895200,-0.82225084
'00:15:26.904,0.059570,0.030273,1.001953,0.304878,1.219512,-0.609756,-4.812500,17.537500,19.275000,30.707,0.56830442,-0.00980411,-0.02896263,-0.82225004
'00:15:26.914,0.056641,0.031250,1.004395,0.365854,1.402439,-0.609756,-4.812500,17.537500,19.275000,30.676,0.56830527,-0.00977661,-0.02896162,-0.82224982
'00:15:26.924,0.056641,0.030273,1.003418,0.365854,1.341463,-0.548781,-5.018750,17.818750,19.587500,30.676,0.56830175,-0.00975052,-0.02894869,-0.82225302
'00:15:26.934,0.056152,0.031738,1.004395,0.243902,1.280488,-0.548781,-5.018750,17.818750,19.587500,30.707,0.56829775,-0.00972668,-0.02893626,-0.82225650
'00:15:26.945,0.057617,0.031738,1.003418,0.426829,1.402439,-0.548781,-5.162500,18.043751,19.706251,30.691,0.56828862,-0.00968523,-0.02893108,-0.82226348
'00:15:26.954,0.062988,0.029297,1.003906,0.365854,1.280488,-0.548781,-5.162500,18.043751,19.706251,30.676,0.56828127,-0.00969697,-0.02893444,-0.82226831
'00:15:26.964,0.062500,0.028320,1.004883,0.304878,1.341463,-0.548781,-5.012500,17.793751,19.525000,30.691,0.56827831,-0.00971440,-0.02892876,-0.82227035
'00:15:26.974,0.063965,0.027344,1.005371,0.365854,1.341463,-0.548781,-5.012500,17.793751,19.525000,30.722,0.56827554,-0.00974011,-0.02892744,-0.82227200
'00:15:26.985,0.060547,0.029297,1.004883,0.426829,1.341463,-0.609756,-4.818750,17.531250,19.312500,30.737,0.56827614,-0.00974432,-0.02893873,-0.82227114
'00:15:26.994,0.059082,0.029785,1.003906,0.365854,1.402439,-0.609756,-4.818750,17.531250,19.312500,30.722,0.56827665,-0.00973765,-0.02893889,-0.82227086
'00:15:27.004,0.058105,0.031738,1.003418,0.365854,1.341463,-0.548781,-4.806250,17.568750,19.375000,30.691,0.56828256,-0.00972326,-0.02895129,-0.82226651
'00:15:27.014,0.057617,0.030762,1.003418,0.304878,1.341463,-0.548781,-4.806250,17.568750,19.375000,30.661,0.56828863,-0.00971322,-0.02895167,-0.82226242
'00:15:27.025,0.057617,0.030762,1.001953,0.304878,1.341463,-0.548781,-4.800000,17.518751,19.293751,30.752,0.56829484,-0.00970208,-0.02895215,-0.82225824
'00:15:27.034,0.060059,0.029297,1.003418,0.304878,1.341463,-0.548781,-4.800000,17.518751,19.293751,30.722,0.56830013,-0.00971024,-0.02895303,-0.82225446
'00:15:27.044,0.061523,0.029297,1.005371,0.304878,1.280488,-0.548781,-5.150000,18.068750,19.643751,30.631,0.56829349,-0.00971854,-0.02894756,-0.82225914
'00:15:27.054,0.061035,0.028809,1.006836,0.426829,1.341463,-0.548781,-5.150000,18.068750,19.643751,30.722,0.56828725,-0.00971525,-0.02894283,-0.82226366
'00:15:27.065,0.061523,0.028320,1.005371,0.426829,1.341463,-0.548781,-5.000000,17.787500,19.550001,30.707,0.56828473,-0.00972234,-0.02894248,-0.82226533
'00:15:27.074,0.060059,0.029785,1.003418,0.365854,1.402439,-0.548781,-5.000000,17.787500,19.550001,30.676,0.56828250,-0.00971492,-0.02893858,-0.82226710
'00:15:27.084,0.059570,0.030273,1.003418,0.365854,1.341463,-0.609756,-4.893750,17.518751,19.375000,30.691,0.56827705,-0.00970860,-0.02894033,-0.82227088
'00:15:27.094,0.059082,0.031250,1.001953,0.426829,1.402439,-0.548781,-4.893750,17.518751,19.375000,30.676,0.56827600,-0.00968891,-0.02894762,-0.82227158
'00:15:27.105,0.058594,0.030762,1.000977,0.365854,1.280488,-0.548781,-4.800000,17.543751,19.312500,30.661,0.56828272,-0.00968636,-0.02896160,-0.82226647
'00:15:27.114,0.058105,0.030762,1.003418,0.304878,1.341463,-0.548781,-4.837500,17.550001,19.337500,30.661,0.56828598,-0.00967823,-0.02896102,-0.82226433
'00:15:27.124,0.059082,0.029297,1.006348,0.304878,1.341463,-0.548781,-4.837500,17.550001,19.337500,30.646,0.56828992,-0.00967989,-0.02895472,-0.82226182
'00:15:27.134,0.060547,0.028809,1.005859,0.304878,1.402439,-0.548781,-5.056250,17.900000,19.593750,30.691,0.56828631,-0.00967949,-0.02893970,-0.82226484
'00:15:27.144,0.061035,0.029297,1.004395,0.304878,1.341463,-0.609756,-5.056250,17.900000,19.593750,30.707,0.56827809,-0.00968444,-0.02893315,-0.82227070
'00:15:27.154,0.062500,0.030273,1.002930,0.365854,1.341463,-0.609756,-4.943750,17.737501,19.500000,30.691,0.56827386,-0.00969512,-0.02894760,-0.82227299
'00:15:27.164,0.060059,0.030273,1.002930,0.365854,1.341463,-0.548781,-4.943750,17.737501,19.500000,30.691,0.56827405,-0.00969241,-0.02895243,-0.82227272
'00:15:27.174,0.060059,0.029297,1.001953,0.365854,1.280488,-0.548781,-4.787500,17.581251,19.375000,30.691,0.56828191,-0.00970524,-0.02896375,-0.82226673
'00:15:27.184,0.058594,0.030762,1.001953,0.304878,1.341463,-0.548781,-4.787500,17.581251,19.375000,30.676,0.56828955,-0.00970253,-0.02897011,-0.82226126
'00:15:27.194,0.058594,0.031250,1.003906,0.304878,1.341463,-0.548781,-4.825000,17.568750,19.312500,30.722,0.56829442,-0.00969488,-0.02897523,-0.82225780
'00:15:27.204,0.059082,0.029297,1.004395,0.304878,1.341463,-0.548781,-4.825000,17.568750,19.312500,30.691,0.56829968,-0.00969760,-0.02897089,-0.82225429
'00:15:27.214,0.058594,0.028809,1.005371,0.304878,1.341463,-0.609756,-4.831250,17.537500,19.393751,30.722,0.56829916,-0.00969853,-0.02896012,-0.82225502
'00:15:27.226,0.058594,0.029785,1.002930,0.426829,1.341463,-0.548781,-4.831250,17.537500,19.393751,30.676,0.56830366,-0.00968859,-0.02896566,-0.82225183
'00:15:27.234,0.058594,0.029297,1.002441,0.365854,1.341463,-0.609756,-5.106250,17.968750,19.618750,30.646,0.56829560,-0.00967813,-0.02895501,-0.82225790
'00:15:27.244,0.059082,0.030762,1.004395,0.304878,1.341463,-0.548781,-5.106250,17.968750,19.618750,30.676,0.56828961,-0.00966506,-0.02894672,-0.82226249
'00:15:27.254,0.061035,0.028320,1.005859,0.304878,1.280488,-0.548781,-5.131250,18.031250,19.693750,30.661,0.56828348,-0.00967580,-0.02893439,-0.82226703
'00:15:27.265,0.059570,0.028809,1.004395,0.365854,1.341463,-0.609756,-5.131250,18.031250,19.693750,30.707,0.56827210,-0.00966877,-0.02892008,-0.82227548
'00:15:27.274,0.059570,0.030273,1.002441,0.365854,1.341463,-0.548781,-5.006250,17.843750,19.537500,30.752,0.56827066,-0.00966247,-0.02892129,-0.82227651
'00:15:27.284,0.060059,0.029785,1.002930,0.304878,1.341463,-0.609756,-5.006250,17.843750,19.537500,30.707,0.56826475,-0.00966290,-0.02891726,-0.82228073
'00:15:27.294,0.060547,0.028809,1.004395,0.365854,1.341463,-0.548781,-4.775000,17.506250,19.293751,30.722,0.56827245,-0.00967550,-0.02892373,-0.82227503
'00:15:27.306,0.059570,0.029297,1.002441,0.304878,1.402439,-0.548781,-4.775000,17.506250,19.293751,30.707,0.56828165,-0.00968043,-0.02892217,-0.82226867
'00:15:27.314,0.060059,0.029785,1.002441,0.304878,1.341463,-0.548781,-4.750000,17.525000,19.306250,30.722,0.56828926,-0.00968925,-0.02892919,-0.82226306
'00:15:27.324,0.058594,0.029785,1.004395,0.304878,1.341463,-0.548781,-4.750000,17.525000,19.306250,30.676,0.56829880,-0.00969155,-0.02893135,-0.82225636
'00:15:27.334,0.058105,0.029785,1.004883,0.304878,1.341463,-0.548781,-4.800000,17.537500,19.318750,30.691,0.56830505,-0.00968807,-0.02892770,-0.82225221
'00:15:27.345,0.059570,0.029297,1.004395,0.304878,1.341463,-0.548781,-5.075000,17.818750,19.587500,30.691,0.56829735,-0.00968229,-0.02891074,-0.82225820
'00:15:27.354,0.058594,0.030762,1.002930,0.304878,1.341463,-0.609756,-5.075000,17.818750,19.587500,30.691,0.56828691,-0.00966792,-0.02890170,-0.82226590
'00:15:27.366,0.058594,0.031250,1.004395,0.182927,1.280488,-0.609756,-5.075000,17.818750,19.587500,30.707,0.56827267,-0.00965894,-0.02888561,-0.82227641
'00:15:27.374,0.059570,0.029297,1.002441,0.182927,1.280488,-0.609756,-5.012500,17.831251,19.512501,30.707,0.56826739,-0.00966667,-0.02887418,-0.82228038
'00:15:27.385,0.061035,0.029785,1.003906,0.243902,1.219512,-0.609756,-4.793750,17.450001,19.350000,30.676,0.56826723,-0.00969356,-0.02888428,-0.82227981
'00:15:27.394,0.060547,0.029785,1.004395,0.000000,1.036585,-0.609756,-4.793750,17.450001,19.350000,30.722,0.56826646,-0.00973532,-0.02888290,-0.82227990
'00:15:27.404,0.060059,0.028809,1.004883,-0.304878,0.731707,-0.548781,-4.812500,17.481251,19.281250,30.691,0.56826884,-0.00981827,-0.02886634,-0.82227785
'00:15:27.414,0.062012,0.027832,1.002441,0.060976,0.975610,-0.487805,-4.812500,17.481251,19.281250,30.707,0.56827648,-0.00987966,-0.02886696,-0.82227181
'00:15:27.426,0.060547,0.028320,1.004395,0.731707,1.707317,-0.548781,-4.843750,17.543751,19.325001,30.707,0.56828208,-0.00983554,-0.02887618,-0.82226815
'00:15:27.434,0.059570,0.028809,1.003906,0.914634,1.951220,-0.548781,-4.843750,17.543751,19.325001,30.707,0.56828640,-0.00977963,-0.02888243,-0.82226561
'00:15:27.444,0.056152,0.031250,1.004395,0.670732,1.646341,-0.609756,-5.287500,18.237501,19.837500,30.631,0.56827051,-0.00970142,-0.02887060,-0.82227793
'00:15:27.454,0.057617,0.031738,1.003906,0.121951,1.158537,-0.548781,-5.287500,18.237501,19.837500,30.676,0.56825738,-0.00969291,-0.02885230,-0.82228775
'00:15:27.466,0.059082,0.029785,1.002930,-0.121951,0.914634,-0.548781,-5.131250,17.987501,19.731251,30.722,0.56824702,-0.00974314,-0.02882524,-0.82229526
'00:15:27.474,0.061035,0.027344,1.002930,0.182927,1.219512,-0.548781,-5.131250,17.987501,19.731251,30.737,0.56824130,-0.00976255,-0.02880800,-0.82229959
'00:15:27.484,0.061523,0.028320,1.003906,0.609756,1.646341,-0.670732,-4.843750,17.525000,19.350000,30.737,0.56823679,-0.00974317,-0.02881478,-0.82230270
'00:15:27.494,0.061035,0.028809,1.003906,0.670732,1.707317,-0.609756,-4.843750,17.525000,19.350000,30.707,0.56823681,-0.00971225,-0.02882368,-0.82230274
'00:15:27.505,0.061035,0.031250,1.005859,0.243902,1.341463,-0.548781,-4.831250,17.525000,19.306250,30.691,0.56824089,-0.00972072,-0.02883508,-0.82229942
'00:15:27.514,0.061035,0.031250,1.005859,0.243902,1.341463,-0.548781,-4.831250,17.525000,19.306250,30.691,0.56824418,-0.00972750,-0.02884421,-0.82229675
'00:15:27.524,0.061035,0.029297,1.003418,-0.121951,0.853659,-0.609756,-4.812500,17.600000,19.362501,30.722,0.56824513,-0.00979839,-0.02884527,-0.82229521
'00:15:27.534,0.062012,0.028320,1.001465,0.121951,1.036585,-0.548781,-4.812500,17.600000,19.362501,30.707,0.56825113,-0.00985281,-0.02885357,-0.82229012
'00:15:27.546,0.061035,0.028320,1.000977,0.975610,2.012195,-0.609756,-4.768750,17.518751,19.343750,30.676,0.56825824,-0.00977786,-0.02887627,-0.82228531
'00:15:27.554,0.055176,0.034180,1.007812,0.731707,1.768293,-0.609756,-4.768750,17.518751,19.343750,30.722,0.56826162,-0.00970649,-0.02889321,-0.82228323
'00:15:27.564,0.060547,0.028809,1.001465,-0.304878,0.670732,-0.548781,-5.018750,17.856251,19.587500,30.707,0.56825729,-0.00979113,-0.02887525,-0.82228584
'00:15:27.574,0.061035,0.027344,1.002441,0.304878,1.402439,-0.609756,-5.018750,17.856251,19.587500,30.691,0.56825113,-0.00979983,-0.02885827,-0.82229059
'00:15:27.586,0.060059,0.029785,1.003906,0.853659,1.951220,-0.609756,-4.875000,17.612501,19.443750,30.707,0.56825104,-0.00971813,-0.02887062,-0.82229119
'00:15:27.594,0.055664,0.033203,1.006836,0.182927,1.097561,-0.548781,-4.875000,17.612501,19.443750,30.676,0.56825195,-0.00970949,-0.02887510,-0.82229050
'00:15:27.604,0.060547,0.028320,1.002930,0.182927,1.219512,-0.548781,-4.787500,17.481251,19.293751,30.676,0.56825784,-0.00974042,-0.02887137,-0.82228620
'00:15:27.614,0.060059,0.029297,1.004883,0.792683,1.829268,-0.609756,-4.787500,17.481251,19.293751,30.661,0.56826118,-0.00968981,-0.02888408,-0.82228404
'00:15:27.624,0.061523,0.028809,1.001953,-0.060976,0.914634,-0.487805,-4.781250,17.456251,19.312500,30.722,0.56827006,-0.00975890,-0.02888457,-0.82227707
'00:15:27.634,0.062012,0.028809,1.002441,0.670732,1.707317,-0.609756,-4.793750,17.487501,19.287500,30.676,0.56827263,-0.00973564,-0.02889970,-0.82227504
'00:15:27.644,0.060547,0.030273,1.002930,0.060976,0.975610,-0.487805,-4.793750,17.487501,19.287500,30.661,0.56828134,-0.00978172,-0.02890951,-0.82226813
'00:15:27.654,0.060059,0.028809,1.003418,0.670732,1.646341,-0.609756,-5.206250,18.043751,19.750000,30.707,0.56826699,-0.00973572,-0.02890037,-0.82227891
'00:15:27.664,0.061523,0.028809,1.002441,0.121951,1.097561,-0.548781,-5.206250,18.043751,19.750000,30.707,0.56825528,-0.00976526,-0.02888521,-0.82228719
'00:15:27.674,0.057617,0.030762,1.006348,0.487805,1.463415,-0.548781,-4.893750,17.675001,19.425001,30.691,0.56825820,-0.00973273,-0.02888825,-0.82228545
'00:15:27.684,0.060059,0.028809,1.001953,0.365854,1.341463,-0.548781,-4.893750,17.675001,19.425001,30.691,0.56826104,-0.00973750,-0.02888869,-0.82228341
'00:15:27.694,0.057617,0.031250,1.006348,0.243902,1.219512,-0.548781,-4.906250,17.700001,19.456251,30.691,0.56826267,-0.00973270,-0.02888861,-0.82228235
'00:15:27.706,0.060059,0.029297,1.004395,0.426829,1.463415,-0.609756,-4.906250,17.700001,19.456251,30.646,0.56826067,-0.00972079,-0.02888880,-0.82228387
'00:15:27.714,0.060547,0.028809,1.003906,0.243902,1.280488,-0.548781,-4.862500,17.550001,19.381250,30.722,0.56826225,-0.00973497,-0.02888506,-0.82228274
'00:15:27.724,0.058105,0.030762,1.006348,0.365854,1.402439,-0.548781,-4.862500,17.550001,19.381250,30.707,0.56826430,-0.00971599,-0.02888378,-0.82228159
'00:15:27.734,0.061523,0.028809,1.001953,0.365854,1.402439,-0.548781,-4.793750,17.556250,19.343750,30.707,0.56827172,-0.00972905,-0.02889205,-0.82227602
'00:15:27.746,0.060059,0.030762,1.004395,0.243902,1.280488,-0.548781,-4.793750,17.556250,19.343750,30.691,0.56827966,-0.00974259,-0.02890386,-0.82226995
'00:15:27.754,0.060547,0.028809,1.003418,0.365854,1.402439,-0.548781,-5.168750,18.037500,19.606251,30.631,0.56827335,-0.00973590,-0.02889270,-0.82227478
'00:15:27.764,0.059570,0.028809,1.002930,0.304878,1.280488,-0.548781,-5.168750,18.037500,19.606251,30.722,0.56826518,-0.00973429,-0.02887715,-0.82228100
'00:15:27.774,0.059082,0.030762,1.004883,0.304878,1.341463,-0.548781,-5.137500,18.031250,19.693750,30.722,0.56825841,-0.00971975,-0.02886891,-0.82228614
'00:15:27.786,0.061035,0.028809,1.002930,0.426829,1.341463,-0.548781,-5.137500,18.031250,19.693750,30.646,0.56825089,-0.00971753,-0.02886654,-0.82229144
'00:15:27.794,0.059570,0.029297,1.003418,0.243902,1.341463,-0.609756,-4.825000,17.581251,19.343750,30.722,0.56825191,-0.00972451,-0.02886312,-0.82229078
'00:15:27.804,0.058594,0.029785,1.004883,0.304878,1.341463,-0.548781,-4.825000,17.581251,19.343750,30.722,0.56825754,-0.00972264,-0.02886162,-0.82228696
'00:15:27.814,0.061035,0.028809,1.004395,0.365854,1.341463,-0.548781,-4.812500,17.481251,19.343750,30.722,0.56826181,-0.00973461,-0.02886715,-0.82228368
'00:15:27.825,0.059082,0.030273,1.003906,0.304878,1.341463,-0.548781,-4.812500,17.481251,19.343750,30.676,0.56826613,-0.00973274,-0.02886933,-0.82228063
'00:15:27.834,0.059570,0.029785,1.004395,0.365854,1.341463,-0.548781,-4.787500,17.512501,19.243750,30.707,0.56827241,-0.00973410,-0.02887671,-0.82227602
'00:15:27.844,0.060059,0.029785,1.003906,0.304878,1.341463,-0.609756,-4.787500,17.512501,19.243750,30.661,0.56827491,-0.00974123,-0.02888251,-0.82227400
'00:15:27.854,0.059082,0.029785,1.003906,0.304878,1.341463,-0.548781,-4.812500,17.487501,19.331251,30.707,0.56827907,-0.00974134,-0.02888159,-0.82227116
'00:15:27.864,0.059082,0.028809,1.003418,0.304878,1.402439,-0.609756,-4.812500,17.487501,19.331251,30.691,0.56827919,-0.00974087,-0.02887234,-0.82227140
'00:15:27.874,0.060059,0.030273,1.002930,0.304878,1.341463,-0.609756,-5.187500,18.068750,19.737501,30.691,0.56826547,-0.00973140,-0.02886304,-0.82228133
'00:15:27.884,0.058594,0.030273,1.002930,0.304878,1.341463,-0.548781,-5.187500,18.068750,19.737501,30.661,0.56825622,-0.00971433,-0.02884835,-0.82228843
'00:15:27.894,0.059570,0.029785,1.003906,0.243902,1.219512,-0.609756,-4.862500,17.625000,19.425001,30.722,0.56825520,-0.00972837,-0.02885091,-0.82228888
'00:15:27.904,0.060547,0.029785,1.004395,0.243902,1.280488,-0.548781,-4.768750,17.506250,19.250000,30.661,0.56826310,-0.00974692,-0.02885880,-0.82228293
'00:15:27.914,0.059082,0.029785,1.002930,0.243902,1.219512,-0.609756,-4.768750,17.506250,19.250000,30.691,0.56826646,-0.00976158,-0.02886451,-0.82228024
'00:15:27.924,0.061035,0.028809,1.003418,0.304878,1.280488,-0.548781,-4.887500,17.506250,19.343750,30.676,0.56826580,-0.00977621,-0.02886368,-0.82228055
'00:15:27.934,0.059570,0.028809,1.003418,0.487805,1.524390,-0.548781,-4.887500,17.506250,19.343750,30.707,0.56826593,-0.00975600,-0.02885822,-0.82228088
'00:15:27.944,0.058594,0.029785,1.004395,0.548781,1.524390,-0.609756,-4.831250,17.525000,19.350000,30.661,0.56826596,-0.00972721,-0.02886349,-0.82228102
'00:15:27.954,0.061035,0.030273,1.004883,0.243902,1.219512,-0.548781,-4.831250,17.525000,19.350000,30.722,0.56826919,-0.00974745,-0.02887392,-0.82227819
'00:15:27.964,0.059570,0.029297,1.002441,0.365854,1.341463,-0.548781,-5.187500,18.037500,19.743750,30.722,0.56825936,-0.00973582,-0.02886110,-0.82228557
'00:15:27.974,0.057617,0.030762,1.004883,0.487805,1.402439,-0.548781,-5.187500,18.037500,19.743750,30.707,0.56824961,-0.00969727,-0.02885401,-0.82229301
'00:15:27.984,0.060547,0.029785,1.003906,0.243902,1.219512,-0.548781,-4.968750,17.762501,19.531250,30.691,0.56824849,-0.00971285,-0.02885509,-0.82229356
'00:15:27.994,0.059570,0.030273,1.003906,0.426829,1.402439,-0.609756,-4.968750,17.762501,19.531250,30.707,0.56824351,-0.00969860,-0.02885923,-0.82229702
'00:15:28.004,0.059570,0.029785,1.003906,0.243902,1.280488,-0.548781,-4.831250,17.600000,19.318750,30.676,0.56824909,-0.00970995,-0.02886070,-0.82229299
'00:15:28.014,0.059570,0.029785,1.004883,0.304878,1.280488,-0.609756,-4.831250,17.600000,19.318750,30.722,0.56825031,-0.00971773,-0.02886614,-0.82229186
'00:15:28.024,0.060547,0.029297,1.002930,0.365854,1.341463,-0.548781,-4.775000,17.468750,19.356251,30.691,0.56825678,-0.00972772,-0.02887572,-0.82228693
'00:15:28.034,0.060059,0.029785,1.003906,0.304878,1.280488,-0.548781,-4.775000,17.468750,19.356251,30.691,0.56826291,-0.00974005,-0.02888426,-0.82228225
'00:15:28.044,0.060547,0.029785,1.002441,0.365854,1.341463,-0.548781,-4.837500,17.550001,19.337500,30.691,0.56826681,-0.00974495,-0.02889351,-0.82227917
'00:15:28.054,0.060059,0.029785,1.004883,0.426829,1.463415,-0.548781,-4.837500,17.550001,19.337500,30.646,0.56827106,-0.00973477,-0.02889807,-0.82227619
'00:15:28.064,0.057617,0.031738,1.004883,0.304878,1.341463,-0.548781,-5.018750,17.875000,19.625000,30.691,0.56826863,-0.00971282,-0.02889464,-0.82227825
'00:15:28.074,0.059570,0.028809,1.003906,0.426829,1.341463,-0.548781,-5.018750,17.875000,19.625000,30.707,0.56826691,-0.00970750,-0.02889152,-0.82227961
'00:15:28.084,0.059570,0.029297,1.003418,0.426829,1.341463,-0.609756,-5.187500,18.043751,19.662500,30.646,0.56825329,-0.00969295,-0.02888294,-0.82228950
'00:15:28.094,0.060547,0.028809,1.003906,0.365854,1.402439,-0.548781,-5.187500,18.043751,19.662500,30.722,0.56824430,-0.00968449,-0.02886793,-0.82229634
'00:15:28.104,0.059570,0.028809,1.004395,0.304878,1.341463,-0.609756,-4.787500,17.462500,19.362501,30.691,0.56824553,-0.00969320,-0.02886491,-0.82229549
'00:15:28.114,0.059570,0.029297,1.002930,0.365854,1.341463,-0.548781,-4.787500,17.462500,19.362501,30.707,0.56825105,-0.00969730,-0.02886962,-0.82229146
'00:15:28.124,0.059082,0.030273,1.004395,0.365854,1.341463,-0.548781,-4.806250,17.518751,19.293751,30.722,0.56825668,-0.00969385,-0.02887737,-0.82228734
'00:15:28.134,0.060059,0.028809,1.002930,0.365854,1.341463,-0.609756,-4.806250,17.518751,19.293751,30.631,0.56825817,-0.00970174,-0.02888107,-0.82228609
'00:15:28.144,0.058594,0.029297,1.004395,0.304878,1.341463,-0.548781,-4.800000,17.500000,19.331251,30.691,0.56826376,-0.00970256,-0.02887672,-0.82228237
'00:15:28.154,0.060059,0.028809,1.003906,0.365854,1.341463,-0.609756,-5.106250,17.843750,19.493750,30.707,0.56825160,-0.00969703,-0.02886458,-0.82229126
'00:15:28.164,0.058105,0.029785,1.003418,0.365854,1.341463,-0.609756,-5.106250,17.843750,19.493750,30.722,0.56823935,-0.00967741,-0.02885088,-0.82230044
'00:15:28.174,0.059082,0.029785,1.003418,0.304878,1.280488,-0.548781,-4.987500,17.806250,19.462500,30.631,0.56823858,-0.00967730,-0.02884782,-0.82230108
'00:15:28.185,0.058594,0.029785,1.005371,0.243902,1.280488,-0.548781,-4.987500,17.806250,19.462500,30.676,0.56823772,-0.00967715,-0.02883683,-0.82230206
'00:15:28.194,0.059082,0.029785,1.005371,0.304878,1.341463,-0.609756,-4.893750,17.631250,19.431250,30.691,0.56823545,-0.00967544,-0.02883364,-0.82230376
'00:15:28.204,0.059570,0.029297,1.004883,0.304878,1.341463,-0.609756,-4.893750,17.631250,19.431250,30.661,0.56823303,-0.00967830,-0.02882948,-0.82230555
'00:15:28.214,0.059570,0.029297,1.004395,0.304878,1.341463,-0.548781,-4.768750,17.556250,19.343750,30.646,0.56824227,-0.00968783,-0.02883369,-0.82229890
'00:15:28.224,0.059570,0.029297,1.004395,0.304878,1.341463,-0.548781,-4.768750,17.556250,19.343750,30.646,0.56825147,-0.00969717,-0.02883777,-0.82229230
'00:15:28.234,0.059570,0.029785,1.003906,0.304878,1.341463,-0.548781,-4.856250,17.518751,19.400000,30.691,0.56825325,-0.00969874,-0.02883680,-0.82229108
'00:15:28.244,0.060547,0.029785,1.003906,0.426829,1.341463,-0.548781,-4.856250,17.518751,19.400000,30.676,0.56825510,-0.00969965,-0.02884835,-0.82228939
'00:15:28.254,0.059082,0.030762,1.003418,0.304878,1.280488,-0.609756,-5.025000,17.831251,19.600000,30.707,0.56824715,-0.00969370,-0.02884817,-0.82229495
'00:15:28.264,0.058594,0.030273,1.004395,0.304878,1.341463,-0.548781,-5.025000,17.831251,19.600000,30.722,0.56824390,-0.00968266,-0.02883997,-0.82229762
'00:15:28.274,0.059082,0.029297,1.005371,0.365854,1.341463,-0.548781,-4.993750,17.812500,19.562500,30.691,0.56824276,-0.00967656,-0.02883433,-0.82229867
'00:15:28.284,0.059570,0.028809,1.004395,0.365854,1.341463,-0.548781,-4.993750,17.812500,19.562500,30.691,0.56824173,-0.00967533,-0.02882831,-0.82229961
'00:15:28.294,0.059570,0.029297,1.004395,0.304878,1.402439,-0.609756,-4.975000,17.781250,19.512501,30.691,0.56823709,-0.00967129,-0.02881859,-0.82230321
'00:15:28.304,0.060059,0.030762,1.002930,0.365854,1.341463,-0.548781,-4.975000,17.781250,19.512501,30.691,0.56823642,-0.00966613,-0.02882705,-0.82230343
'00:15:28.314,0.059570,0.030273,1.002441,0.365854,1.280488,-0.609756,-4.768750,17.537500,19.350000,30.676,0.56824051,-0.00967335,-0.02884463,-0.82229991
'00:15:28.324,0.060059,0.030273,1.003906,0.365854,1.341463,-0.609756,-4.768750,17.537500,19.350000,30.722,0.56824469,-0.00967845,-0.02886017,-0.82229642
'00:15:28.334,0.062012,0.029297,1.003906,0.304878,1.341463,-0.548781,-4.793750,17.543751,19.343750,30.707,0.56825167,-0.00969973,-0.02887117,-0.82229095
'00:15:28.344,0.060059,0.028809,1.004395,0.304878,1.341463,-0.548781,-4.793750,17.543751,19.343750,30.661,0.56825877,-0.00971169,-0.02887144,-0.82228590
'00:15:28.354,0.061035,0.030273,1.003906,0.304878,1.341463,-0.548781,-4.775000,17.487501,19.306250,30.707,0.56826560,-0.00972348,-0.02888416,-0.82228059
'00:15:28.364,0.060547,0.029297,1.004395,0.365854,1.280488,-0.548781,-4.775000,17.487501,19.306250,30.631,0.56827249,-0.00973744,-0.02889638,-0.82227523
'00:15:28.374,0.060059,0.029785,1.002930,0.365854,1.341463,-0.548781,-5.087500,17.918751,19.600000,30.752,0.56826695,-0.00973035,-0.02889249,-0.82227928
'00:15:28.384,0.060547,0.029785,1.003418,0.304878,1.341463,-0.548781,-5.087500,17.918751,19.600000,30.737,0.56826138,-0.00972896,-0.02888597,-0.82228337
'00:15:28.394,0.059570,0.029785,1.003418,0.304878,1.341463,-0.609756,-5.062500,17.756250,19.556250,30.661,0.56824954,-0.00972124,-0.02887395,-0.82229207
'00:15:28.404,0.058594,0.029297,1.004395,0.365854,1.341463,-0.609756,-5.062500,17.756250,19.556250,30.722,0.56823794,-0.00970701,-0.02885971,-0.82230075
'00:15:28.414,0.059570,0.029785,1.003906,0.365854,1.341463,-0.609756,-4.793750,17.456251,19.356251,30.737,0.56823844,-0.00970813,-0.02886632,-0.82230016
'00:15:28.424,0.060547,0.029785,1.003906,0.365854,1.341463,-0.548781,-4.781250,17.550001,19.337500,30.691,0.56824645,-0.00971680,-0.02887985,-0.82229406
'00:15:28.434,0.060547,0.030273,1.002930,0.304878,1.341463,-0.548781,-4.781250,17.550001,19.337500,30.646,0.56825422,-0.00972659,-0.02889190,-0.82228814
'00:15:28.444,0.059570,0.029297,1.003418,0.304878,1.402439,-0.548781,-4.850000,17.537500,19.362501,30.676,0.56825713,-0.00972580,-0.02888542,-0.82228637
'00:15:28.456,0.059082,0.029297,1.003906,0.304878,1.341463,-0.548781,-4.850000,17.537500,19.362501,30.722,0.56826048,-0.00972675,-0.02887890,-0.82228428
'00:15:28.464,0.059082,0.029785,1.003418,0.304878,1.341463,-0.548781,-5.106250,17.900000,19.606251,30.691,0.56825472,-0.00971827,-0.02886794,-0.82228874
'00:15:28.474,0.059082,0.029297,1.004395,0.304878,1.341463,-0.548781,-5.106250,17.900000,19.606251,30.676,0.56824769,-0.00970951,-0.02885136,-0.82229428
'00:15:28.484,0.059570,0.029785,1.003906,0.304878,1.402439,-0.609756,-4.975000,17.787500,19.562500,30.737,0.56824276,-0.00970333,-0.02884414,-0.82229801
'00:15:28.494,0.060059,0.029297,1.005371,0.365854,1.341463,-0.609756,-4.975000,17.787500,19.562500,30.722,0.56823787,-0.00970288,-0.02884301,-0.82230144
'00:15:28.504,0.059570,0.029785,1.003906,0.365854,1.402439,-0.609756,-4.906250,17.681250,19.356251,30.691,0.56823610,-0.00969592,-0.02884355,-0.82230273
'00:15:28.514,0.059570,0.029785,1.003418,0.365854,1.280488,-0.609756,-4.906250,17.681250,19.356251,30.722,0.56823403,-0.00969792,-0.02885034,-0.82230389
'00:15:28.524,0.059082,0.029297,1.002441,0.365854,1.341463,-0.609756,-4.812500,17.531250,19.387501,30.691,0.56823504,-0.00969870,-0.02885332,-0.82230308
'00:15:28.534,0.059082,0.030762,1.003418,0.304878,1.280488,-0.609756,-4.812500,17.531250,19.387501,30.737,0.56823552,-0.00970084,-0.02886285,-0.82230239
'00:15:28.544,0.059570,0.030273,1.004395,0.304878,1.341463,-0.609756,-4.831250,17.600000,19.337500,30.691,0.56823677,-0.00970266,-0.02886820,-0.82230132
'00:15:28.555,0.059570,0.029785,1.002441,0.304878,1.280488,-0.548781,-4.831250,17.600000,19.337500,30.691,0.56824286,-0.00971216,-0.02887507,-0.82229676
'00:15:28.564,0.060059,0.029297,1.004883,0.304878,1.341463,-0.609756,-4.806250,17.531250,19.356251,30.722,0.56824412,-0.00972000,-0.02887645,-0.82229575
'00:15:28.574,0.060059,0.029785,1.004395,0.304878,1.341463,-0.609756,-4.806250,17.531250,19.356251,30.676,0.56824539,-0.00972676,-0.02888090,-0.82229463
'00:15:28.584,0.059570,0.029785,1.003418,0.304878,1.341463,-0.609756,-5.181250,17.968750,19.568750,30.707,0.56823066,-0.00971529,-0.02886540,-0.82230549
'00:15:28.594,0.060059,0.029297,1.003906,0.243902,1.341463,-0.548781,-5.181250,17.968750,19.568750,30.661,0.56822043,-0.00971162,-0.02884475,-0.82231333
'00:15:28.604,0.059082,0.028809,1.003906,0.365854,1.341463,-0.609756,-4.975000,17.731251,19.431250,30.691,0.56821492,-0.00970683,-0.02883677,-0.82231747
'00:15:28.614,0.059082,0.029297,1.003418,0.304878,1.280488,-0.548781,-4.975000,17.731251,19.431250,30.691,0.56821352,-0.00970790,-0.02883046,-0.82231865
'00:15:28.624,0.060547,0.029785,1.004395,0.304878,1.341463,-0.548781,-4.818750,17.468750,19.293751,30.722,0.56821724,-0.00971604,-0.02883528,-0.82231581
'00:15:28.635,0.059570,0.029785,1.004883,0.304878,1.341463,-0.548781,-4.818750,17.468750,19.293751,30.722,0.56822135,-0.00971879,-0.02883610,-0.82231291
'00:15:28.644,0.060059,0.029297,1.004883,0.304878,1.280488,-0.548781,-4.812500,17.550001,19.362501,30.722,0.56822651,-0.00973062,-0.02884073,-0.82230904
'00:15:28.654,0.059570,0.028809,1.004395,0.365854,1.402439,-0.609756,-4.812500,17.550001,19.362501,30.691,0.56822830,-0.00973097,-0.02883968,-0.82230784
'00:15:28.664,0.058594,0.029297,1.003906,0.243902,1.280488,-0.609756,-4.831250,17.531250,19.325001,30.691,0.56822801,-0.00973733,-0.02883330,-0.82230819
'00:15:28.674,0.059570,0.028809,1.003906,0.365854,1.341463,-0.548781,-4.831250,17.531250,19.325001,30.676,0.56823241,-0.00974068,-0.02883370,-0.82230509
'00:15:28.684,0.060059,0.028809,1.002441,0.365854,1.341463,-0.609756,-5.131250,18.031250,19.675001,30.722,0.56822234,-0.00973665,-0.02882502,-0.82231240
'00:15:28.695,0.058105,0.029785,1.003906,0.304878,1.341463,-0.548781,-5.275000,18.087500,19.775000,30.676,0.56820654,-0.00971194,-0.02879768,-0.82232457
'00:15:28.704,0.059082,0.029297,1.004395,0.304878,1.341463,-0.548781,-5.275000,18.087500,19.775000,30.737,0.56819382,-0.00969846,-0.02877652,-0.82233426
'00:15:28.715,0.059570,0.029785,1.005371,0.304878,1.341463,-0.609756,-4.831250,17.543751,19.293751,30.691,0.56819437,-0.00970169,-0.02877929,-0.82233375
'00:15:28.724,0.059082,0.030273,1.003906,0.304878,1.341463,-0.548781,-4.831250,17.543751,19.293751,30.661,0.56819866,-0.00970055,-0.02878278,-0.82233067
'00:15:28.734,0.058105,0.029785,1.004395,0.365854,1.341463,-0.548781,-4.781250,17.556250,19.281250,30.691,0.56820746,-0.00969588,-0.02878847,-0.82232445
'00:15:28.744,0.059570,0.029297,1.003906,0.304878,1.341463,-0.548781,-4.781250,17.556250,19.281250,30.661,0.56821621,-0.00970441,-0.02879276,-0.82231815
'00:15:28.754,0.059082,0.029785,1.004395,0.304878,1.280488,-0.609756,-4.831250,17.531250,19.325001,30.676,0.56821603,-0.00970896,-0.02879607,-0.82231811
'00:15:28.764,0.059570,0.029297,1.003906,0.365854,1.341463,-0.609756,-4.831250,17.531250,19.325001,30.646,0.56821611,-0.00971077,-0.02879998,-0.82231789
