# FW/GUI: v9.6.1-multi17-dual (PyQt5)
# StartTime: 2026-04-03 16:23:27
# Slot: 13
# DeviceID: 13
# Label: EMG13
# IP: 192.168.137.206
# TCP: 3333
# DeviceFW: EMG_FW_v9.6_MULTI17_DUALCH_RUNTIMECFG_CHEN
# EMG column notes: EMG_t_s=seconds since this Start; sample_idx=device sample index (ADS frame index); fs=sample rate (SPS); gain=gain; flags=0x01(TEST) 0x02(SHORT) 0x04(RLD); emg_valid=1 valid / 0 invalid (spike-guard decision); ch1_raw_uV=raw uV (after spike guard); ch1_filt_uV=filtered uV; ch1_env_uV=envelope (RMS) uV
EMG_t_s,sample_idx,fs,gain,flags,emg_valid,ch1_raw_uV,ch1_filt_uV,ch1_env_uV,ch2_raw_uV,ch2_filt_uV,ch2_env_uV
0.000000,862251,1000.00,12,0,1,1340.113,-3.368,3.086,1056.165,-0.442,1.191
0.001000,862252,1000.00,12,0,1,1342.683,0.764,3.013,1056.117,-0.787,1.174
0.002000,862253,1000.00,12,0,1,1339.825,-1.208,2.866,1053.114,-2.620,1.201
0.003000,862254,1000.00,12,0,1,1341.771,-0.657,2.866,1056.093,-1.097,1.196
0.004000,862255,1000.00,12,0,1,1345.734,3.373,2.864,1057.798,2.071,1.232
0.005000,862256,1000.00,12,0,1,1343.068,0.343,2.664,1056.717,0.213,1.225
0.006000,862257,1000.00,12,0,1,1347.079,1.249,2.533,1055.444,-0.751,1.229
0.007000,862258,1000.00,12,0,1,1354.261,7.306,2.726,1057.102,0.237,1.226
0.008000,862259,1000.00,12,0,1,1353.637,5.193,2.818,1058.303,1.735,1.250
0.009000,862260,1000.00,12,0,1,1351.427,0.695,2.797,1058.015,1.179,1.257
0.010000,862261,1000.00,12,0,1,1354.237,1.629,2.784,1058.015,0.801,1.226
0.011000,862262,1000.00,12,0,1,1352.868,0.556,2.766,1057.750,0.679,1.216
0.012000,862263,1000.00,12,0,1,1348.376,-4.330,2.782,1056.141,-0.879,1.211
0.013000,862264,1000.00,12,0,1,1345.662,-6.205,2.834,1056.189,-0.884,1.216
0.014000,862265,1000.00,12,0,1,1347.824,-3.472,2.870,1055.012,-1.312,1.229
0.015000,862266,1000.00,12,0,1,1348.857,-0.488,2.847,1056.261,-0.533,1.229
0.016000,862267,1000.00,12,0,1,1345.662,-2.106,2.747,1055.949,0.196,1.229
0.017000,862268,1000.00,12,0,1,1341.747,-4.405,2.816,1055.709,-0.494,1.227
0.018000,862269,1000.00,12,0,1,1341.675,-3.149,2.664,1055.636,-0.037,1.182
0.019000,862270,1000.00,12,0,1,1344.941,1.179,2.633,1056.405,0.424,1.184
0.020000,862271,1000.00,12,0,1,1344.173,2.030,2.645,1054.604,-0.590,1.175
0.021000,862272,1000.00,12,0,1,1341.579,-0.600,2.645,1055.420,-0.623,1.176
0.022000,862273,1000.00,12,0,1,1341.939,-0.215,2.645,1057.558,1.814,1.189
0.023000,862274,1000.00,12,0,1,1343.788,1.285,2.648,1057.318,1.471,1.194
0.024000,862275,1000.00,12,0,1,1347.680,3.806,2.661,1057.966,1.303,1.156
0.025000,862276,1000.00,12,0,1,1350.754,5.564,2.749,1057.486,1.115,1.144
0.026000,862277,1000.00,12,0,1,1349.217,2.684,2.775,1058.975,1.318,1.152
0.027000,862278,1000.00,12,0,1,1346.215,-1.839,2.784,1057.102,0.511,1.150
0.028000,862279,1000.00,12,0,1,1344.797,-4.107,2.831,1057.102,-0.966,1.157
0.029000,862280,1000.00,12,0,1,1346.142,-3.461,2.866,1054.916,-1.548,1.166
0.030000,862281,1000.00,12,0,1,1347.512,-2.011,2.879,1055.108,-2.463,1.186
0.031000,862282,1000.00,12,0,1,1346.455,-2.727,2.905,1056.405,-0.091,1.185
0.032000,862283,1000.00,12,0,1,1347.776,-1.689,2.908,1056.789,0.115,1.160
0.033000,862284,1000.00,12,0,1,1348.545,0.251,2.889,1056.573,0.164,1.154
0.034000,862285,1000.00,12,0,1,1347.127,-0.478,2.884,1058.447,1.557,1.158
0.035000,862286,1000.00,12,0,1,1349.241,1.784,2.887,1057.390,1.152,1.167
0.036000,862287,1000.00,12,0,1,1351.163,4.811,2.960,1054.820,-1.523,1.187
0.037000,862288,1000.00,12,0,1,1348.376,2.919,2.971,1054.435,-1.879,1.198
0.038000,862289,1000.00,12,0,1,1342.732,-1.583,2.978,1057.054,0.700,1.186
0.039000,862290,1000.00,12,0,1,1342.539,-1.729,2.988,1057.414,1.459,1.203
0.040000,862291,1000.00,12,0,1,1343.380,0.695,2.989,1057.174,0.744,1.207
0.041000,862292,1000.00,12,0,1,1343.885,1.055,2.980,1056.093,-0.150,1.207
0.042000,862293,1000.00,12,0,1,1344.605,1.840,2.988,1056.405,-0.325,1.201
0.043000,862294,1000.00,12,0,1,1345.278,1.790,2.999,1057.342,0.640,1.204
0.044000,862295,1000.00,12,0,1,1348.496,3.403,3.016,1055.564,-0.764,1.204
0.045000,862296,1000.00,12,0,1,1350.899,4.669,3.000,1057.174,-0.263,1.141
0.046000,862297,1000.00,12,0,1,1353.397,4.599,3.062,1056.021,-0.073,1.108
0.047000,862298,1000.00,12,0,1,1353.589,3.497,3.100,1056.165,-1.203,1.099
0.048000,862299,1000.00,12,0,1,1352.076,0.005,3.072,1057.846,1.086,1.109
0.049000,862300,1000.00,12,0,1,1350.226,-2.595,2.977,1059.023,1.675,1.126
0.050000,862301,1000.00,12,0,1,1350.202,-3.508,2.980,1056.189,-0.360,1.125
0.051000,862302,1000.00,12,0,1,1349.265,-3.826,3.027,1056.405,-1.216,1.133
0.052000,862303,1000.00,12,0,1,1349.433,-3.719,3.067,1057.606,0.739,1.075
0.053000,862304,1000.00,12,0,1,1347.560,-3.883,3.115,1057.270,0.306,1.065
0.054000,862305,1000.00,12,0,1,1348.761,-2.648,3.101,1055.348,-1.189,1.038
0.055000,862306,1000.00,12,0,1,1348.713,-0.495,3.101,1055.300,-1.367,1.055
0.056000,862307,1000.00,12,0,1,1347.656,-0.893,3.099,1053.547,-2.057,1.089
0.057000,862308,1000.00,12,0,1,1349.337,1.541,2.929,1056.741,0.074,1.089
0.058000,862309,1000.00,12,0,1,1349.193,2.697,2.861,1057.606,2.245,1.107
0.059000,862310,1000.00,12,0,1,1346.479,0.445,2.860,1057.126,0.809,1.101
0.060000,862311,1000.00,12,0,1,1345.782,0.000,2.851,1057.342,1.094,1.106
0.061000,862312,1000.00,12,0,1,1348.424,2.256,2.868,1056.862,0.474,1.103
0.062000,862313,1000.00,12,0,1,1352.580,5.670,2.914,1056.645,-0.094,1.097
0.063000,862314,1000.00,12,0,1,1351.379,4.065,2.838,1056.741,0.084,1.089
0.064000,862315,1000.00,12,0,1,1350.394,0.977,2.798,1057.294,0.184,1.074
0.065000,862316,1000.00,12,0,1,1348.112,-1.507,2.806,1057.054,0.216,1.072
0.066000,862317,1000.00,12,0,1,1344.653,-5.807,2.908,1056.982,-0.348,1.072
0.067000,862318,1000.00,12,0,1,1342.059,-8.210,3.069,1056.045,-0.789,1.076
0.068000,862319,1000.00,12,0,1,1343.716,-6.897,3.189,1056.886,-0.579,1.079
0.069000,862320,1000.00,12,0,1,1350.058,-0.944,3.188,1057.606,0.664,1.081
0.070000,862321,1000.00,12,0,1,1353.181,2.528,3.195,1057.462,0.245,1.079
0.071000,862322,1000.00,12,0,1,1350.394,-0.348,3.194,1056.309,-0.536,1.078
0.072000,862323,1000.00,12,0,1,1348.929,-2.078,3.207,1056.381,-0.708,1.052
0.073000,862324,1000.00,12,0,1,1347.992,-1.954,3.214,1057.246,0.402,1.032
0.074000,862325,1000.00,12,0,1,1347.992,-1.332,3.174,1056.693,0.138,1.016
0.075000,862326,1000.00,12,0,1,1347.752,-0.180,3.075,1056.165,-0.493,1.006
0.076000,862327,1000.00,12,0,1,1352.220,3.882,3.101,1055.372,-0.813,0.995
0.077000,862328,1000.00,12,0,1,1356.471,8.866,3.334,1056.886,0.168,0.993
0.078000,862329,1000.00,12,0,1,1348.593,2.654,3.305,1057.582,1.439,1.004
0.079000,862330,1000.00,12,0,1,1343.140,-3.881,3.314,1057.462,0.775,0.986
0.080000,862331,1000.00,12,0,1,1343.140,-2.288,3.318,1055.781,-0.449,0.925
0.081000,862332,1000.00,12,0,1,1339.945,-4.107,3.346,1054.700,-1.857,0.961
0.082000,862333,1000.00,12,0,1,1340.954,-3.419,3.372,1058.303,1.129,0.975
0.083000,862334,1000.00,12,0,1,1344.341,0.595,3.373,1056.309,0.529,0.977
0.084000,862335,1000.00,12,0,1,1343.909,0.131,3.373,1054.267,-2.672,1.024
0.085000,862336,1000.00,12,0,1,1347.031,1.431,3.369,1056.213,-0.374,1.013
0.086000,862337,1000.00,12,0,1,1347.055,1.770,3.309,1056.693,0.322,0.990
0.087000,862338,1000.00,12,0,1,1349.073,1.157,3.288,1054.940,-1.184,0.969
0.088000,862339,1000.00,12,0,1,1351.643,3.326,3.314,1056.213,-0.457,0.966
0.089000,862340,1000.00,12,0,1,1352.148,2.285,3.320,1056.213,0.356,0.945
0.090000,862341,1000.00,12,0,1,1352.388,1.590,3.326,1054.772,-1.170,0.953
0.091000,862342,1000.00,12,0,1,1353.973,2.167,3.337,1056.069,-0.075,0.953
0.092000,862343,1000.00,12,0,1,1352.436,0.928,3.330,1056.717,1.127,0.965
0.093000,862344,1000.00,12,0,1,1350.010,-1.569,3.327,1054.652,-0.724,0.967
0.094000,862345,1000.00,12,0,1,1350.298,-0.954,3.295,1054.940,-0.691,0.965
0.095000,862346,1000.00,12,0,1,1352.724,2.038,3.241,1054.700,-0.179,0.965
0.096000,862347,1000.00,12,0,1,1349.265,0.387,3.176,1054.652,-0.411,0.967
0.097000,862348,1000.00,12,0,1,1345.590,-2.921,3.164,1057.342,1.986,0.992
0.098000,862349,1000.00,12,0,1,1344.341,-2.643,3.186,1057.246,2.379,1.036
0.099000,862350,1000.00,12,0,1,1347.464,0.668,3.166,1056.141,0.579,1.012
0.100000,862351,1000.00,12,0,1,1347.055,1.915,3.139,1055.012,-0.252,1.012
0.101000,862352,1000.00,12,0,1,1345.614,-0.064,3.092,1057.102,0.865,1.004
0.102000,862353,1000.00,12,0,1,1344.869,-0.476,3.048,1056.741,1.364,1.017
0.103000,862354,1000.00,12,0,1,1346.575,0.336,2.998,1056.333,-0.063,1.016
0.104000,862355,1000.00,12,0,1,1348.569,1.814,2.986,1057.054,0.799,1.009
0.105000,862356,1000.00,12,0,1,1348.857,1.154,2.989,1057.942,1.206,1.005
0.106000,862357,1000.00,12,0,1,1350.250,0.845,2.989,1056.765,0.254,0.962
0.107000,862358,1000.00,12,0,1,1350.562,0.528,2.982,1055.468,-1.303,0.980
0.108000,862359,1000.00,12,0,1,1349.193,-1.973,2.971,1056.405,-0.560,0.930
0.109000,862360,1000.00,12,0,1,1348.977,-2.759,2.995,1056.741,0.212,0.924
0.110000,862361,1000.00,12,0,1,1351.667,-0.911,2.998,1058.807,1.411,0.932
0.111000,862362,1000.00,12,0,1,1353.397,1.011,2.985,1058.063,1.509,0.954
0.112000,862363,1000.00,12,0,1,1352.628,0.124,2.875,1055.252,-1.716,0.984
0.113000,862364,1000.00,12,0,1,1352.100,-0.287,2.817,1056.669,-0.609,0.988
0.114000,862365,1000.00,12,0,1,1350.875,-0.640,2.815,1056.862,0.358,0.989
0.115000,862366,1000.00,12,0,1,1350.466,-0.545,2.808,1057.414,0.246,0.989
0.116000,862367,1000.00,12,0,1,1348.232,-1.044,2.690,1056.141,-0.178,0.988
0.117000,862368,1000.00,12,0,1,1349.361,0.028,2.426,1057.174,-0.191,0.982
0.118000,862369,1000.00,12,0,1,1349.986,2.343,2.246,1057.078,0.639,0.983
0.119000,862370,1000.00,12,0,1,1346.575,-0.313,2.242,1056.021,-0.940,0.988
0.120000,862371,1000.00,12,0,1,1342.972,-3.139,2.258,1056.934,-0.108,0.987
0.121000,862372,1000.00,12,0,1,1344.293,-1.803,2.271,1055.925,-0.586,0.988
0.122000,862373,1000.00,12,0,1,1341.651,-2.579,2.282,1055.660,-1.395,1.002
0.123000,862374,1000.00,12,0,1,1341.242,-3.980,2.334,1056.165,-0.437,1.002
0.124000,862375,1000.00,12,0,1,1346.142,0.728,2.328,1054.580,-1.763,1.033
0.125000,862376,1000.00,12,0,1,1350.322,4.083,2.399,1054.219,-2.148,1.074
0.126000,862377,1000.00,12,0,1,1353.637,5.435,2.458,1055.468,-0.695,1.073
0.127000,862378,1000.00,12,0,1,1354.958,5.273,2.242,1057.222,1.000,1.082
0.128000,862379,1000.00,12,0,1,1354.165,2.576,2.241,1058.687,2.263,1.109
0.129000,862380,1000.00,12,0,1,1355.390,2.034,2.191,1055.973,0.116,1.104
0.130000,862381,1000.00,12,0,1,1354.598,0.813,2.170,1056.093,-0.827,1.108
0.131000,862382,1000.00,12,0,1,1354.526,-0.427,2.092,1056.982,0.839,1.083
0.132000,862383,1000.00,12,0,1,1354.093,-0.461,2.036,1057.486,0.842,1.078
0.133000,862384,1000.00,12,0,1,1353.709,-0.905,2.039,1058.207,1.613,1.100
0.134000,862385,1000.00,12,0,1,1352.292,-1.240,2.046,1056.093,-0.107,1.033
0.135000,862386,1000.00,12,0,1,1351.091,-1.734,2.051,1055.925,-0.920,1.040
0.136000,862387,1000.00,12,0,1,1354.261,1.638,2.049,1055.853,-0.190,1.039
0.137000,862388,1000.00,12,0,1,1353.469,2.739,2.078,1056.934,0.240,1.026
0.138000,862389,1000.00,12,0,1,1344.653,-4.521,2.123,1054.243,-1.057,1.035
0.139000,862390,1000.00,12,0,1,1340.978,-7.722,2.365,1055.829,-1.023,1.043
0.140000,862391,1000.00,12,0,1,1343.092,-3.916,2.419,1057.702,2.000,1.068
0.141000,862392,1000.00,12,0,1,1343.140,-2.378,2.423,1055.324,-0.514,1.071
0.142000,862393,1000.00,12,0,1,1344.413,-1.299,2.426,1055.805,-0.692,1.063
0.143000,862394,1000.00,12,0,1,1347.704,1.824,2.430,1056.573,0.624,1.062
0.144000,862395,1000.00,12,0,1,1348.545,2.158,2.445,1056.477,0.047,1.058
0.145000,862396,1000.00,12,0,1,1348.256,0.664,2.430,1055.372,-0.590,1.061
0.146000,862397,1000.00,12,0,1,1349.770,0.761,2.432,1055.901,-0.713,1.064
0.147000,862398,1000.00,12,0,1,1350.514,0.676,2.398,1055.540,-0.302,1.027
0.148000,862399,1000.00,12,0,1,1345.422,-4.198,2.442,1058.183,1.128,0.983
0.149000,862400,1000.00,12,0,1,1347.031,-4.572,2.525,1058.111,2.085,1.023
0.150000,862401,1000.00,12,0,1,1351.595,0.804,2.513,1058.159,0.864,1.030
0.151000,862402,1000.00,12,0,1,1353.829,2.390,2.535,1058.903,1.846,1.055
0.152000,862403,1000.00,12,0,1,1356.880,4.762,2.622,1057.294,0.234,1.038
0.153000,862404,1000.00,12,0,1,1358.561,6.238,2.766,1055.396,-1.710,1.066
0.154000,862405,1000.00,12,0,1,1356.784,4.352,2.822,1055.685,-1.294,1.076
0.155000,862406,1000.00,12,0,1,1353.229,1.225,2.823,1056.741,-0.087,1.062
0.156000,862407,1000.00,12,0,1,1352.244,0.341,2.821,1055.564,-0.585,1.065
0.157000,862408,1000.00,12,0,1,1347.824,-1.730,2.830,1055.877,-0.816,1.055
0.158000,862409,1000.00,12,0,1,1344.845,-4.368,2.884,1056.165,0.179,1.052
0.159000,862410,1000.00,12,0,1,1340.233,-5.896,2.976,1054.652,-1.271,1.067
0.160000,862411,1000.00,12,0,1,1339.825,-6.107,3.096,1056.381,-0.022,1.048
0.161000,862412,1000.00,12,0,1,1342.972,-1.266,3.098,1057.774,1.753,1.056
0.162000,862413,1000.00,12,0,1,1345.134,1.067,3.102,1055.997,-0.046,1.028
0.163000,862414,1000.00,12,0,1,1344.149,0.304,3.102,1055.564,-0.914,1.032
0.164000,862415,1000.00,12,0,1,1345.974,0.645,3.102,1055.973,-0.306,1.032
0.165000,862416,1000.00,12,0,1,1346.118,0.755,3.103,1055.492,-0.723,1.036
0.166000,862417,1000.00,12,0,1,1350.730,2.579,3.121,1056.717,0.097,1.036
0.167000,862418,1000.00,12,0,1,1354.093,5.341,3.211,1056.453,0.339,1.037
0.168000,862419,1000.00,12,0,1,1354.213,3.336,3.228,1056.765,0.011,1.033
0.169000,862420,1000.00,12,0,1,1348.689,-2.194,3.243,1056.862,0.498,1.027
0.170000,862421,1000.00,12,0,1,1344.821,-6.955,3.360,1055.300,-0.976,1.036
0.171000,862422,1000.00,12,0,1,1347.271,-4.325,3.405,1054.435,-1.725,1.061
0.172000,862423,1000.00,12,0,1,1349.746,-0.641,3.387,1056.213,-0.011,1.043
0.173000,862424,1000.00,12,0,1,1348.593,-0.935,3.342,1057.822,1.826,1.072
0.174000,862425,1000.00,12,0,1,1348.569,-0.277,3.341,1056.934,1.104,1.054
0.175000,862426,1000.00,12,0,1,1351.235,2.903,3.316,1054.700,-1.032,1.020
0.176000,862427,1000.00,12,0,1,1355.919,7.728,3.406,1055.276,-0.715,1.021
0.177000,862428,1000.00,12,0,1,1351.859,5.386,3.410,1056.958,1.207,1.025
0.178000,862429,1000.00,12,0,1,1347.464,0.245,3.390,1058.903,2.689,1.045
0.179000,862430,1000.00,12,0,1,1348.088,1.454,3.384,1055.324,0.061,1.045
0.180000,862431,1000.00,12,0,1,1347.872,1.881,3.393,1054.772,-1.836,1.071
0.181000,862432,1000.00,12,0,1,1344.821,-0.793,3.394,1056.261,0.421,1.066
0.182000,862433,1000.00,12,0,1,1346.671,-0.032,3.393,1055.252,-0.544,1.062
0.183000,862434,1000.00,12,0,1,1352.292,4.729,3.456,1054.556,-1.353,1.055
0.184000,862435,1000.00,12,0,1,1350.226,2.728,3.473,1055.132,-0.655,1.059
0.185000,862436,1000.00,12,0,1,1345.662,-3.618,3.502,1054.099,-1.285,1.066
0.186000,862437,1000.00,12,0,1,1346.191,-4.026,3.541,1055.108,-0.694,1.070
0.187000,862438,1000.00,12,0,1,1346.142,-4.058,3.566,1057.462,1.673,1.096
0.188000,862439,1000.00,12,0,1,1347.247,-3.908,3.551,1056.597,1.125,1.097
0.189000,862440,1000.00,12,0,1,1349.409,-1.869,3.390,1056.813,0.458,1.089
0.190000,862441,1000.00,12,0,1,1350.178,-1.312,3.349,1056.309,0.569,1.055
0.191000,862442,1000.00,12,0,1,1353.829,1.314,3.338,1057.726,0.949,1.061
0.192000,862443,1000.00,12,0,1,1355.655,3.577,3.371,1058.039,1.911,1.091
0.193000,862444,1000.00,12,0,1,1357.192,4.033,3.409,1056.573,0.031,1.087
0.194000,862445,1000.00,12,0,1,1354.334,2.411,3.412,1054.772,-1.389,1.105
0.195000,862446,1000.00,12,0,1,1351.595,-0.724,3.413,1055.180,-1.181,1.114
0.196000,862447,1000.00,12,0,1,1349.145,-1.434,3.417,1055.636,-0.165,1.110
0.197000,862448,1000.00,12,0,1,1346.887,-2.679,3.436,1056.189,0.266,1.109
0.198000,862449,1000.00,12,0,1,1344.749,-3.046,3.412,1057.342,1.316,1.114
0.199000,862450,1000.00,12,0,1,1342.924,-3.419,3.385,1056.958,1.110,1.085
0.200000,862451,1000.00,12,0,1,1341.531,-3.461,3.418,1054.700,-1.123,1.090
0.201000,862452,1000.00,12,0,1,1343.885,-0.802,3.403,1055.492,-0.801,1.064
0.202000,862453,1000.00,12,0,1,1344.269,0.610,3.337,1057.894,1.593,1.087
0.203000,862454,1000.00,12,0,1,1342.828,-1.137,3.223,1058.015,1.691,1.087
0.204000,862455,1000.00,12,0,1,1346.431,1.059,3.167,1057.846,0.860,1.078
0.205000,862456,1000.00,12,0,1,1349.577,3.840,3.208,1058.063,0.883,1.085
0.206000,862457,1000.00,12,0,1,1347.055,0.378,3.208,1056.093,-0.937,1.090
0.207000,862458,1000.00,12,0,1,1349.193,0.108,3.199,1057.654,-0.366,1.085
0.208000,862459,1000.00,12,0,1,1351.499,2.090,3.153,1056.525,-0.306,1.086
0.209000,862460,1000.00,12,0,1,1354.261,2.709,3.065,1056.549,-1.367,1.088
0.210000,862461,1000.00,12,0,1,1356.111,3.890,2.991,1058.543,1.019,1.098
0.211000,862462,1000.00,12,0,1,1352.748,0.259,2.986,1057.270,0.047,1.069
0.212000,862463,1000.00,12,0,1,1350.106,-2.926,3.011,1056.525,-1.118,1.081
0.213000,862464,1000.00,12,0,1,1350.730,-1.672,3.020,1057.102,-0.195,1.074
0.214000,862465,1000.00,12,0,1,1352.988,1.004,3.022,1055.492,-1.339,1.089
0.215000,862466,1000.00,12,0,1,1353.469,2.613,3.042,1054.532,-2.194,1.128
0.216000,862467,1000.00,12,0,1,1347.464,-1.601,3.029,1054.868,-1.445,1.146
0.217000,862468,1000.00,12,0,1,1343.260,-5.059,3.019,1053.066,-2.284,1.190
0.218000,862469,1000.00,12,0,1,1346.863,-0.575,2.983,1054.459,-1.436,1.207
0.219000,862470,1000.00,12,0,1,1349.842,3.866,3.017,1056.549,1.416,1.222
0.220000,862471,1000.00,12,0,1,1347.127,1.852,2.864,1056.886,1.440,1.231
0.221000,862472,1000.00,12,0,1,1345.038,-0.554,2.799,1054.219,-0.650,1.210
0.222000,862473,1000.00,12,0,1,1346.215,0.393,2.798,1054.748,-1.051,1.219
0.223000,862474,1000.00,12,0,1,1345.326,-0.262,2.796,1055.949,0.788,1.196
0.224000,862475,1000.00,12,0,1,1346.743,-0.410,2.796,1056.141,0.603,1.189
0.225000,862476,1000.00,12,0,1,1349.433,1.652,2.775,1057.342,1.429,1.197
0.226000,862477,1000.00,12,0,1,1351.835,2.286,2.572,1057.534,1.636,1.215
0.227000,862478,1000.00,12,0,1,1354.021,2.906,2.490,1055.829,-0.226,1.204
0.228000,862479,1000.00,12,0,1,1354.838,2.172,2.509,1055.276,-0.935,1.150
0.229000,862480,1000.00,12,0,1,1356.399,1.894,2.515,1057.654,1.008,1.159
0.230000,862481,1000.00,12,0,1,1358.249,2.630,2.528,1057.054,1.188,1.142
0.231000,862482,1000.00,12,0,1,1351.787,-2.923,2.559,1055.588,-0.816,1.146
0.232000,862483,1000.00,12,0,1,1345.470,-9.407,2.884,1054.796,-1.063,1.153
0.233000,862484,1000.00,12,0,1,1345.206,-8.084,3.030,1055.492,-0.546,1.140
0.234000,862485,1000.00,12,0,1,1345.662,-5.368,3.100,1054.604,-0.541,1.138
0.235000,862486,1000.00,12,0,1,1348.376,-1.564,3.065,1054.844,-0.681,1.128
0.236000,862487,1000.00,12,0,1,1350.250,2.234,3.028,1057.126,1.697,1.149
0.237000,862488,1000.00,12,0,1,1348.160,1.351,2.979,1055.372,0.675,1.129
0.238000,862489,1000.00,12,0,1,1348.280,1.730,2.938,1055.564,-0.194,1.118
0.239000,862490,1000.00,12,0,1,1346.863,1.783,2.937,1057.294,1.931,1.149
0.240000,862491,1000.00,12,0,1,1344.533,-0.388,2.932,1057.198,1.456,1.164
0.241000,862492,1000.00,12,0,1,1344.725,0.004,2.926,1055.685,-0.018,1.156
0.242000,862493,1000.00,12,0,1,1348.569,3.065,2.914,1056.573,0.088,1.124
0.243000,862494,1000.00,12,0,1,1349.746,4.097,2.916,1056.910,0.775,1.130
0.244000,862495,1000.00,12,0,1,1347.536,0.738,2.898,1056.093,-0.397,1.114
0.245000,862496,1000.00,12,0,1,1349.938,0.989,2.899,1055.660,-0.866,1.108
0.246000,862497,1000.00,12,0,1,1351.763,2.287,2.910,1055.877,-0.696,1.112
0.247000,862498,1000.00,12,0,1,1354.309,2.331,2.904,1057.774,0.784,1.117
0.248000,862499,1000.00,12,0,1,1353.661,1.422,2.879,1055.709,-0.321,1.103
0.249000,862500,1000.00,12,0,1,1354.213,-0.293,2.838,1056.862,-0.583,1.094
0.250000,862501,1000.00,12,0,1,1352.508,-1.333,2.802,1057.582,1.268,1.098
0.251000,862502,1000.00,12,0,1,1348.641,-5.366,2.901,1056.381,-0.437,1.093
0.252000,862503,1000.00,12,0,1,1348.136,-5.289,2.995,1056.910,0.093,1.070
0.253000,862504,1000.00,12,0,1,1349.577,-2.561,3.012,1057.294,0.659,1.047
0.254000,862505,1000.00,12,0,1,1350.346,-0.685,3.010,1057.318,0.510,1.043
0.255000,862506,1000.00,12,0,1,1348.136,-1.040,2.964,1057.870,1.017,1.045
0.256000,862507,1000.00,12,0,1,1347.199,-1.364,2.970,1055.733,-0.651,1.041
0.257000,862508,1000.00,12,0,1,1346.839,0.113,2.970,1057.702,0.221,1.040
0.258000,862509,1000.00,12,0,1,1345.974,0.087,2.955,1058.375,1.784,1.069
0.259000,862510,1000.00,12,0,1,1342.131,-1.870,2.942,1057.294,0.037,1.052
0.260000,862511,1000.00,12,0,1,1344.485,-0.401,2.891,1056.045,-0.962,1.050
0.261000,862512,1000.00,12,0,1,1349.289,5.147,2.981,1056.813,-0.686,1.055
0.262000,862513,1000.00,12,0,1,1348.424,3.977,3.005,1055.781,-1.011,1.053
0.263000,862514,1000.00,12,0,1,1347.440,1.506,3.003,1057.294,-0.450,1.054
0.264000,862515,1000.00,12,0,1,1346.551,0.169,3.000,1057.006,0.148,1.037
0.265000,862516,1000.00,12,0,1,1347.824,-0.312,2.978,1057.222,-0.506,0.992
0.266000,862517,1000.00,12,0,1,1351.115,1.976,2.982,1057.486,0.130,0.971
0.267000,862518,1000.00,12,0,1,1353.157,2.571,2.918,1056.285,-1.035,0.928
0.268000,862519,1000.00,12,0,1,1353.733,1.880,2.929,1058.663,0.467,0.908
0.269000,862520,1000.00,12,0,1,1355.823,2.247,2.895,1055.853,-0.596,0.889
0.270000,862521,1000.00,12,0,1,1354.309,0.835,2.885,1055.853,-2.269,0.923
0.271000,862522,1000.00,12,0,1,1350.754,-3.180,2.919,1056.645,0.089,0.919
0.272000,862523,1000.00,12,0,1,1351.259,-2.663,2.943,1057.414,0.034,0.907
0.273000,862524,1000.00,12,0,1,1350.322,-1.941,2.955,1058.063,1.262,0.917
0.274000,862525,1000.00,12,0,1,1348.569,-2.957,2.984,1057.462,0.499,0.916
0.275000,862526,1000.00,12,0,1,1347.536,-2.297,2.993,1056.645,-0.254,0.894
0.276000,862527,1000.00,12,0,1,1347.536,-1.187,2.980,1056.862,-0.045,0.864
0.277000,862528,1000.00,12,0,1,1344.581,-1.873,2.963,1056.405,-0.264,0.864
0.278000,862529,1000.00,12,0,1,1344.581,-1.668,2.957,1057.294,0.342,0.855
0.279000,862530,1000.00,12,0,1,1344.101,-0.143,2.945,1056.982,0.394,0.845
0.280000,862531,1000.00,12,0,1,1341.242,-2.330,2.940,1056.165,-0.595,0.832
0.281000,862532,1000.00,12,0,1,1345.494,0.970,2.914,1057.558,0.399,0.826
0.282000,862533,1000.00,12,0,1,1350.899,6.498,2.750,1058.303,1.361,0.835
0.283000,862534,1000.00,12,0,1,1347.103,2.511,2.527,1057.102,-0.064,0.831
0.284000,862535,1000.00,12,0,1,1349.722,1.775,2.423,1056.693,-0.677,0.833
0.285000,862536,1000.00,12,0,1,1351.883,4.064,2.480,1057.006,-0.404,0.830
0.286000,862537,1000.00,12,0,1,1351.715,1.465,2.469,1057.774,0.230,0.795
0.287000,862538,1000.00,12,0,1,1354.165,2.296,2.483,1058.903,1.114,0.805
0.288000,862539,1000.00,12,0,1,1352.172,0.074,2.471,1057.438,0.025,0.804
0.289000,862540,1000.00,12,0,1,1353.709,-0.806,2.460,1056.958,-1.025,0.770
0.290000,862541,1000.00,12,0,1,1357.648,3.137,2.499,1058.159,0.359,0.744
0.291000,862542,1000.00,12,0,1,1359.162,3.624,2.551,1057.510,0.005,0.744
0.292000,862543,1000.00,12,0,1,1359.906,3.865,2.573,1057.126,-0.590,0.749
0.293000,862544,1000.00,12,0,1,1353.853,-0.934,2.510,1056.429,-0.771,0.749
0.294000,862545,1000.00,12,0,1,1353.060,-2.837,2.540,1054.532,-2.284,0.813
0.295000,862546,1000.00,12,0,1,1354.430,0.627,2.538,1053.955,-2.547,0.881
0.296000,862547,1000.00,12,0,1,1347.512,-4.176,2.586,1054.652,-1.367,0.897
0.297000,862548,1000.00,12,0,1,1343.861,-7.239,2.761,1053.883,-1.393,0.911
0.298000,862549,1000.00,12,0,1,1341.266,-6.688,2.912,1055.612,-0.121,0.910
0.299000,862550,1000.00,12,0,1,1341.843,-5.505,3.014,1057.654,2.317,0.964
0.300000,862551,1000.00,12,0,1,1344.677,-0.983,3.011,1056.789,1.384,0.967
0.301000,862552,1000.00,12,0,1,1347.752,1.843,2.926,1057.222,1.095,0.978
0.302000,862553,1000.00,12,0,1,1349.698,3.530,2.872,1058.015,1.872,1.013
0.303000,862554,1000.00,12,0,1,1346.623,0.265,2.849,1057.510,1.017,1.019
0.304000,862555,1000.00,12,0,1,1344.869,-2.986,2.879,1056.501,-0.098,1.016
0.305000,862556,1000.00,12,0,1,1349.217,0.114,2.875,1055.925,-0.827,1.013
0.306000,862557,1000.00,12,0,1,1350.947,1.501,2.877,1056.693,-0.187,1.009
0.307000,862558,1000.00,12,0,1,1350.226,-0.567,2.878,1058.951,1.727,1.037
0.308000,862559,1000.00,12,0,1,1350.154,-1.401,2.884,1057.558,0.915,1.015
0.309000,862560,1000.00,12,0,1,1352.676,0.123,2.872,1057.270,-0.292,1.015
0.310000,862561,1000.00,12,0,1,1354.406,1.804,2.883,1056.837,-0.011,1.006
0.311000,862562,1000.00,12,0,1,1352.268,-0.051,2.790,1055.973,-1.062,1.013
0.312000,862563,1000.00,12,0,1,1352.484,-0.292,2.733,1056.453,-0.406,1.004
0.313000,862564,1000.00,12,0,1,1351.859,0.605,2.726,1057.582,0.782,1.008
0.314000,862565,1000.00,12,0,1,1349.217,-1.219,2.731,1056.021,-0.224,1.009
0.315000,862566,1000.00,12,0,1,1348.472,-0.818,2.733,1053.979,-2.185,1.052
0.316000,862567,1000.00,12,0,1,1345.950,-1.280,2.725,1054.892,-1.289,1.068
0.317000,862568,1000.00,12,0,1,1344.197,-2.051,2.716,1055.396,-0.093,1.058
0.318000,862569,1000.00,12,0,1,1344.413,-0.382,2.704,1056.021,0.179,1.056
0.319000,862570,1000.00,12,0,1,1348.112,3.225,2.723,1055.949,0.509,1.055
0.320000,862571,1000.00,12,0,1,1349.073,5.019,2.812,1057.942,1.535,1.029
0.321000,862572,1000.00,12,0,1,1350.586,4.801,2.857,1056.597,1.073,1.040
0.322000,862573,1000.00,12,0,1,1350.538,4.450,2.902,1056.741,-0.159,1.040
0.323000,862574,1000.00,12,0,1,1350.274,2.217,2.905,1057.726,1.249,1.040
0.324000,862575,1000.00,12,0,1,1351.187,1.797,2.886,1058.183,1.054,1.048
0.325000,862576,1000.00,12,0,1,1352.556,1.502,2.876,1057.750,0.631,1.051
0.326000,862577,1000.00,12,0,1,1357.961,4.177,2.931,1056.645,-0.601,1.054
0.327000,862578,1000.00,12,0,1,1363.485,7.840,3.123,1057.174,-0.445,1.056
0.328000,862579,1000.00,12,0,1,1357.792,1.630,3.122,1056.813,-0.222,1.055
0.329000,862580,1000.00,12,0,1,1349.818,-7.693,3.306,1057.486,-0.156,1.054
0.330000,862581,1000.00,12,0,1,1349.457,-8.144,3.486,1058.039,0.918,1.058
0.331000,862582,1000.00,12,0,1,1353.805,-3.071,3.510,1055.084,-1.596,1.081
0.332000,862583,1000.00,12,0,1,1355.751,-0.020,3.387,1055.853,-1.427,1.082
0.333000,862584,1000.00,12,0,1,1359.522,3.228,3.400,1055.805,-0.248,1.083
0.334000,862585,1000.00,12,0,1,1358.994,4.166,3.441,1055.420,-0.999,1.088
0.335000,862586,1000.00,12,0,1,1350.346,-3.104,3.421,1056.117,0.115,1.086
0.336000,862587,1000.00,12,0,1,1342.179,-9.728,3.681,1056.141,0.234,1.086
0.337000,862588,1000.00,12,0,1,1342.131,-8.117,3.843,1056.837,0.680,1.079
0.338000,862589,1000.00,12,0,1,1343.740,-3.904,3.882,1057.294,1.207,1.093
0.339000,862590,1000.00,12,0,1,1341.627,-4.015,3.922,1055.252,-0.662,1.087
0.340000,862591,1000.00,12,0,1,1341.410,-3.727,3.932,1057.054,0.136,1.086
0.341000,862592,1000.00,12,0,1,1341.410,-2.353,3.913,1058.063,1.726,1.113
0.342000,862593,1000.00,12,0,1,1343.836,-0.673,3.875,1056.021,-0.580,1.113
0.343000,862594,1000.00,12,0,1,1346.671,2.182,3.885,1054.363,-2.242,1.152
0.344000,862595,1000.00,12,0,1,1348.208,2.402,3.880,1055.901,-0.982,1.115
0.345000,862596,1000.00,12,0,1,1352.124,4.332,3.927,1058.927,1.922,1.089
0.346000,862597,1000.00,12,0,1,1354.718,5.564,3.961,1057.846,1.321,1.088
0.347000,862598,1000.00,12,0,1,1356.856,5.211,3.897,1058.207,0.505,1.073
0.348000,862599,1000.00,12,0,1,1355.102,2.844,3.801,1056.141,-0.358,1.074
0.349000,862600,1000.00,12,0,1,1355.823,1.174,3.725,1055.636,-1.828,1.055
0.350000,862601,1000.00,12,0,1,1357.937,3.184,3.749,1057.414,0.569,1.039
0.351000,862602,1000.00,12,0,1,1355.991,1.191,3.744,1055.444,-0.736,1.033
0.352000,862603,1000.00,12,0,1,1346.743,-6.119,3.810,1056.813,-0.282,0.999
0.353000,862604,1000.00,12,0,1,1347.344,-6.279,3.912,1057.966,1.836,1.022
0.354000,862605,1000.00,12,0,1,1353.661,2.407,3.904,1056.333,-0.043,1.022
0.355000,862606,1000.00,12,0,1,1356.784,6.123,3.999,1057.174,0.459,1.018
0.356000,862607,1000.00,12,0,1,1352.172,3.150,4.018,1058.375,1.737,1.047
0.357000,862608,1000.00,12,0,1,1350.466,0.704,4.018,1056.189,-0.140,1.018
0.358000,862609,1000.00,12,0,1,1345.806,-1.468,4.019,1054.652,-2.017,1.049
0.359000,862610,1000.00,12,0,1,1345.830,-2.462,4.034,1056.189,-0.560,1.051
0.360000,862611,1000.00,12,0,1,1346.311,-0.245,4.026,1054.964,-0.952,1.060
0.361000,862612,1000.00,12,0,1,1348.857,0.942,4.028,1053.811,-2.487,1.107
0.362000,862613,1000.00,12,0,1,1348.112,0.823,4.030,1055.925,-0.372,1.106
0.363000,862614,1000.00,12,0,1,1345.278,-3.077,4.052,1057.006,0.964,1.109
0.364000,862615,1000.00,12,0,1,1346.215,-3.292,4.075,1055.108,-0.741,1.114
0.365000,862616,1000.00,12,0,1,1350.706,0.228,4.074,1055.660,-0.792,1.076
0.366000,862617,1000.00,12,0,1,1353.060,1.503,4.075,1057.582,1.317,1.077
0.367000,862618,1000.00,12,0,1,1352.796,0.246,4.065,1057.654,1.353,1.093
0.368000,862619,1000.00,12,0,1,1353.132,-0.835,4.066,1056.621,0.226,1.094
0.369000,862620,1000.00,12,0,1,1356.039,1.250,4.044,1055.132,-1.033,1.101
0.370000,862621,1000.00,12,0,1,1358.513,3.086,4.006,1054.195,-1.783,1.108
0.371000,862622,1000.00,12,0,1,1358.705,3.086,3.972,1056.285,0.177,1.098
0.372000,862623,1000.00,12,0,1,1355.462,0.244,3.922,1056.069,0.845,1.104
0.373000,862624,1000.00,12,0,1,1353.060,-1.757,3.917,1056.453,0.563,1.093
0.374000,862625,1000.00,12,0,1,1350.851,-2.318,3.922,1055.901,0.738,1.088
0.375000,862626,1000.00,12,0,1,1350.778,-1.454,3.922,1055.853,0.164,1.085
0.376000,862627,1000.00,12,0,1,1349.001,-0.976,3.880,1056.261,0.853,1.088
0.377000,862628,1000.00,12,0,1,1348.977,-0.562,3.719,1056.765,1.064,1.096
0.378000,862629,1000.00,12,0,1,1347.584,-0.018,3.712,1056.525,0.846,1.103
0.379000,862630,1000.00,12,0,1,1343.380,-3.253,3.578,1057.246,1.041,1.112
0.380000,862631,1000.00,12,0,1,1344.941,-2.036,3.400,1056.501,0.509,1.107
0.381000,862632,1000.00,12,0,1,1345.254,-0.269,3.373,1057.222,0.413,1.085
0.382000,862633,1000.00,12,0,1,1347.055,-0.096,3.373,1055.781,-0.362,1.067
0.383000,862634,1000.00,12,0,1,1348.521,1.489,3.348,1056.934,-0.377,1.068
0.384000,862635,1000.00,12,0,1,1350.851,1.600,3.304,1057.702,1.009,1.068
0.385000,862636,1000.00,12,0,1,1350.658,1.017,3.278,1058.759,1.135,1.080
0.386000,862637,1000.00,12,0,1,1353.277,0.863,2.977,1057.702,0.555,1.083
0.387000,862638,1000.00,12,0,1,1359.834,5.662,2.861,1058.783,0.520,1.081
0.388000,862639,1000.00,12,0,1,1358.345,3.844,2.860,1058.663,1.000,1.077
0.389000,862640,1000.00,12,0,1,1355.511,-1.180,2.808,1057.102,-0.852,1.079
0.390000,862641,1000.00,12,0,1,1353.829,-2.326,2.777,1056.525,-1.370,1.096
0.391000,862642,1000.00,12,0,1,1352.796,-3.411,2.799,1056.837,-0.786,1.075
0.392000,862643,1000.00,12,0,1,1353.132,-1.937,2.811,1058.999,0.947,1.080
0.393000,862644,1000.00,12,0,1,1353.949,-0.235,2.794,1057.726,0.677,1.037
0.394000,862645,1000.00,12,0,1,1352.196,-0.205,2.774,1055.300,-2.209,1.074
0.395000,862646,1000.00,12,0,1,1347.103,-3.409,2.748,1056.789,-0.704,1.044
0.396000,862647,1000.00,12,0,1,1346.287,-3.302,2.674,1056.741,-0.090,1.027
0.397000,862648,1000.00,12,0,1,1346.215,-0.942,2.574,1056.453,-0.704,1.029
0.398000,862649,1000.00,12,0,1,1345.134,-1.047,2.546,1057.438,0.315,1.029
0.399000,862650,1000.00,12,0,1,1345.422,0.086,2.541,1055.492,-1.062,1.007
0.400000,862651,1000.00,12,0,1,1346.983,1.709,2.513,1056.813,-0.773,1.010
0.401000,862652,1000.00,12,0,1,1346.527,1.437,2.515,1057.174,0.523,1.007
0.402000,862653,1000.00,12,0,1,1345.254,-0.572,2.363,1056.813,-0.564,1.010
0.403000,862654,1000.00,12,0,1,1347.992,0.664,2.192,1055.276,-1.414,0.996
0.404000,862655,1000.00,12,0,1,1350.226,2.205,2.188,1056.525,-0.997,1.006
0.405000,862656,1000.00,12,0,1,1350.322,0.688,2.011,1059.264,1.940,1.040
0.406000,862657,1000.00,12,0,1,1357.672,4.812,2.076,1057.654,0.710,1.016
0.407000,862658,1000.00,12,0,1,1355.390,3.493,2.132,1056.405,-1.204,1.030
0.408000,862659,1000.00,12,0,1,1355.895,-0.193,2.122,1058.255,0.661,0.994
0.409000,862660,1000.00,12,0,1,1358.801,3.210,2.141,1058.519,1.147,1.004
0.410000,862661,1000.00,12,0,1,1354.670,-1.082,2.147,1056.958,-0.301,0.996
0.411000,862662,1000.00,12,0,1,1352.076,-3.967,2.215,1057.222,-0.348,0.933
0.412000,862663,1000.00,12,0,1,1351.067,-3.302,2.260,1054.820,-1.532,0.957
0.413000,862664,1000.00,12,0,1,1349.698,-3.469,2.272,1055.636,-1.592,0.973
0.414000,862665,1000.00,12,0,1,1348.256,-2.723,2.257,1056.573,0.565,0.971
0.415000,862666,1000.00,12,0,1,1345.013,-3.855,2.321,1056.813,0.343,0.966
0.416000,862667,1000.00,12,0,1,1344.581,-2.756,2.344,1057.678,1.336,0.966
0.417000,862668,1000.00,12,0,1,1345.182,-0.245,2.344,1057.414,1.059,0.959
0.418000,862669,1000.00,12,0,1,1344.029,-0.007,2.341,1056.669,0.085,0.958
0.419000,862670,1000.00,12,0,1,1344.629,0.787,2.337,1057.822,0.847,0.955
0.420000,862671,1000.00,12,0,1,1345.974,2.485,2.323,1055.781,-0.542,0.924
0.421000,862672,1000.00,12,0,1,1347.512,3.153,2.325,1056.069,-1.227,0.940
0.422000,862673,1000.00,12,0,1,1348.881,3.557,2.378,1056.549,-0.063,0.932
0.423000,862674,1000.00,12,0,1,1352.076,4.533,2.451,1055.588,-1.173,0.943
0.424000,862675,1000.00,12,0,1,1351.403,3.032,2.466,1056.477,-0.549,0.941
0.425000,862676,1000.00,12,0,1,1350.370,-0.423,2.458,1058.159,1.179,0.955
0.426000,862677,1000.00,12,0,1,1352.268,0.041,2.454,1058.687,1.460,0.970
0.427000,862678,1000.00,12,0,1,1356.543,2.468,2.478,1055.300,-1.204,0.973
0.428000,862679,1000.00,12,0,1,1356.207,1.827,2.491,1055.420,-2.065,1.009
0.429000,862680,1000.00,12,0,1,1354.982,-0.812,2.451,1057.414,0.763,1.004
0.430000,862681,1000.00,12,0,1,1354.117,-1.420,2.442,1057.222,0.567,1.005
0.431000,862682,1000.00,12,0,1,1350.346,-4.068,2.509,1056.333,-0.146,1.003
0.432000,862683,1000.00,12,0,1,1348.785,-4.971,2.605,1055.492,-0.772,1.008
0.433000,862684,1000.00,12,0,1,1350.586,-1.498,2.606,1056.862,0.339,1.007
0.434000,862685,1000.00,12,0,1,1348.304,-1.412,2.603,1055.925,0.333,0.998
0.435000,862686,1000.00,12,0,1,1347.992,-1.044,2.604,1056.213,-0.165,0.986
0.436000,862687,1000.00,12,0,1,1351.115,3.298,2.642,1056.309,0.679,0.987
0.437000,862688,1000.00,12,0,1,1349.625,3.338,2.562,1055.132,-0.680,0.989
0.438000,862689,1000.00,12,0,1,1344.869,-0.883,2.507,1055.925,-0.066,0.979
0.439000,862690,1000.00,12,0,1,1341.458,-3.505,2.550,1056.093,0.436,0.973
0.440000,862691,1000.00,12,0,1,1345.013,-0.650,2.530,1055.781,-0.184,0.954
0.441000,862692,1000.00,12,0,1,1349.193,3.830,2.542,1054.796,-0.822,0.955
0.442000,862693,1000.00,12,0,1,1349.337,2.860,2.559,1056.886,0.363,0.947
0.443000,862694,1000.00,12,0,1,1351.019,2.474,2.583,1057.798,1.861,0.978
0.444000,862695,1000.00,12,0,1,1356.495,5.539,2.699,1054.820,-1.148,0.941
0.445000,862696,1000.00,12,0,1,1354.069,2.660,2.682,1056.357,-0.577,0.939
0.446000,862697,1000.00,12,0,1,1348.352,-5.013,2.735,1056.573,0.703,0.944
0.447000,862698,1000.00,12,0,1,1348.977,-5.456,2.838,1055.324,-1.060,0.951
0.448000,862699,1000.00,12,0,1,1353.036,-1.613,2.844,1058.183,1.375,0.970
0.449000,862700,1000.00,12,0,1,1355.462,0.674,2.845,1058.447,2.258,1.010
0.450000,862701,1000.00,12,0,1,1354.478,0.027,2.835,1056.237,-0.281,1.005
0.451000,862702,1000.00,12,0,1,1353.397,-1.043,2.831,1056.189,-0.443,1.004
0.452000,862703,1000.00,12,0,1,1354.261,0.500,2.831,1055.084,-0.867,1.008
0.453000,862704,1000.00,12,0,1,1352.244,0.071,2.830,1056.621,0.022,0.988
0.454000,862705,1000.00,12,0,1,1347.608,-3.020,2.845,1056.261,0.741,0.984
0.455000,862706,1000.00,12,0,1,1344.029,-4.762,2.922,1055.685,-0.461,0.947
0.456000,862707,1000.00,12,0,1,1341.458,-5.004,2.928,1057.174,1.095,0.954
0.457000,862708,1000.00,12,0,1,1344.221,-1.418,2.893,1055.973,0.345,0.940
0.458000,862709,1000.00,12,0,1,1340.353,-1.789,2.904,1056.573,0.034,0.936
0.459000,862710,1000.00,12,0,1,1344.365,-0.073,2.868,1056.093,0.345,0.923
0.460000,862711,1000.00,12,0,1,1351.115,7.970,3.078,1055.733,-0.777,0.928
0.461000,862712,1000.00,12,0,1,1352.868,7.797,3.221,1056.021,-0.148,0.927
0.462000,862713,1000.00,12,0,1,1350.778,4.490,3.250,1055.156,-1.035,0.913
0.463000,862714,1000.00,12,0,1,1351.547,2.520,3.232,1054.820,-1.408,0.907
0.464000,862715,1000.00,12,0,1,1352.244,1.988,3.221,1058.591,1.584,0.931
0.465000,862716,1000.00,12,0,1,1349.337,-1.945,3.187,1055.733,0.261,0.930
0.466000,862717,1000.00,12,0,1,1347.848,-4.906,3.238,1054.796,-2.262,0.966
0.467000,862718,1000.00,12,0,1,1352.220,-1.532,3.245,1055.588,-0.362,0.955
0.468000,862719,1000.00,12,0,1,1357.480,2.938,3.272,1058.087,1.221,0.971
0.469000,862720,1000.00,12,0,1,1357.312,2.795,3.294,1057.750,1.758,0.995
0.470000,862721,1000.00,12,0,1,1353.132,-1.626,3.283,1057.030,0.288,0.993
0.471000,862722,1000.00,12,0,1,1351.067,-3.280,3.285,1056.765,0.298,0.978
0.472000,862723,1000.00,12,0,1,1353.613,-0.295,3.247,1057.462,0.749,0.984
0.473000,862724,1000.00,12,0,1,1353.997,1.900,3.194,1056.621,0.285,0.971
0.474000,862725,1000.00,12,0,1,1351.451,0.234,3.165,1055.612,-0.745,0.973
0.475000,862726,1000.00,12,0,1,1354.237,2.950,3.192,1055.877,-0.508,0.962
0.476000,862727,1000.00,12,0,1,1351.499,2.717,3.215,1054.700,-0.939,0.949
0.477000,862728,1000.00,12,0,1,1348.160,-1.172,3.201,1057.054,0.344,0.934
0.478000,862729,1000.00,12,0,1,1350.346,1.455,3.197,1054.652,-0.197,0.888
0.479000,862730,1000.00,12,0,1,1352.292,3.448,3.232,1054.892,-1.734,0.915
0.480000,862731,1000.00,12,0,1,1352.076,2.614,3.247,1057.222,1.544,0.937
0.481000,862732,1000.00,12,0,1,1346.959,-2.256,3.211,1057.654,1.358,0.956
0.482000,862733,1000.00,12,0,1,1346.046,-5.013,3.212,1058.687,1.883,0.987
0.483000,862734,1000.00,12,0,1,1347.392,-3.301,3.239,1056.021,-0.217,0.986
0.484000,862735,1000.00,12,0,1,1347.704,-3.923,3.280,1056.045,-1.501,1.008
0.485000,862736,1000.00,12,0,1,1349.601,-2.825,3.301,1058.255,1.200,1.022
0.486000,862737,1000.00,12,0,1,1350.298,-2.436,3.286,1058.735,1.232,1.032
0.487000,862738,1000.00,12,0,1,1350.610,-2.883,3.278,1055.420,-1.354,1.045
0.488000,862739,1000.00,12,0,1,1354.069,-0.215,3.275,1058.399,-0.124,1.045
0.489000,862740,1000.00,12,0,1,1356.640,2.295,3.254,1057.342,0.912,1.051
0.490000,862741,1000.00,12,0,1,1357.192,2.479,3.271,1056.934,-1.124,1.063
0.491000,862742,1000.00,12,0,1,1358.081,3.068,3.255,1058.399,1.165,1.069
0.492000,862743,1000.00,12,0,1,1358.561,3.793,3.274,1057.654,0.384,1.069
0.493000,862744,1000.00,12,0,1,1356.832,2.638,3.277,1056.189,-0.988,1.046
0.494000,862745,1000.00,12,0,1,1354.117,0.689,3.183,1057.414,0.033,1.033
0.495000,862746,1000.00,12,0,1,1349.337,-2.370,3.179,1056.309,-0.328,1.031
0.496000,862747,1000.00,12,0,1,1347.175,-3.625,3.141,1055.204,-1.605,1.051
0.497000,862748,1000.00,12,0,1,1348.184,-1.146,3.049,1056.862,-0.102,1.040
0.498000,862749,1000.00,12,0,1,1348.641,0.366,3.041,1056.862,0.525,1.025
0.499000,862750,1000.00,12,0,1,1348.545,0.581,3.040,1056.501,-0.410,0.976
0.500000,862751,1000.00,12,0,1,1349.025,0.921,3.043,1054.315,-1.707,1.004
0.501000,862752,1000.00,12,0,1,1346.695,-1.159,3.044,1055.492,-1.582,1.027
0.502000,862753,1000.00,12,0,1,1349.746,-0.205,3.043,1057.390,1.064,1.031
0.503000,862754,1000.00,12,0,1,1346.743,-1.711,3.053,1055.588,-0.696,1.035
0.504000,862755,1000.00,12,0,1,1347.512,-4.034,3.076,1056.333,-0.648,1.034
0.505000,862756,1000.00,12,0,1,1351.403,0.109,3.002,1058.663,1.778,1.062
0.506000,862757,1000.00,12,0,1,1353.925,0.956,2.920,1056.862,0.300,1.052
0.507000,862758,1000.00,12,0,1,1355.583,1.610,2.922,1055.468,-1.535,1.073
0.508000,862759,1000.00,12,0,1,1353.301,-0.815,2.914,1054.459,-1.891,1.106
0.509000,862760,1000.00,12,0,1,1350.514,-4.159,2.972,1056.357,-0.448,1.106
0.510000,862761,1000.00,12,0,1,1349.938,-3.867,2.804,1057.054,1.120,1.112
0.511000,862762,1000.00,12,0,1,1350.466,-2.596,2.604,1057.390,0.948,1.120
0.512000,862763,1000.00,12,0,1,1352.724,0.674,2.528,1057.006,0.984,1.119
0.513000,862764,1000.00,12,0,1,1352.868,2.161,2.521,1057.126,0.740,1.106
0.514000,862765,1000.00,12,0,1,1348.064,-0.755,2.507,1057.534,1.248,1.098
0.515000,862766,1000.00,12,0,1,1346.431,-1.864,2.506,1058.231,1.673,1.122
0.516000,862767,1000.00,12,0,1,1346.935,0.644,2.410,1056.141,0.054,1.076
0.517000,862768,1000.00,12,0,1,1346.431,1.123,2.405,1054.892,-1.579,1.097
0.518000,862769,1000.00,12,0,1,1344.509,0.372,2.370,1056.285,-0.180,1.084
0.519000,862770,1000.00,12,0,1,1342.804,-0.892,2.340,1057.678,1.267,1.070
0.520000,862771,1000.00,12,0,1,1346.263,1.849,2.343,1055.973,-0.194,1.070
0.521000,862772,1000.00,12,0,1,1350.634,5.851,2.442,1057.054,-0.055,1.069
0.522000,862773,1000.00,12,0,1,1351.859,5.594,2.566,1056.886,0.457,1.066
0.523000,862774,1000.00,12,0,1,1352.076,3.934,2.612,1056.333,-0.738,1.070
0.524000,862775,1000.00,12,0,1,1350.706,1.138,2.617,1057.222,0.099,1.065
0.525000,862776,1000.00,12,0,1,1351.739,0.002,2.583,1058.951,1.431,1.082
0.526000,862777,1000.00,12,0,1,1354.309,1.367,2.562,1057.822,0.583,1.077
0.527000,862778,1000.00,12,0,1,1356.471,1.991,2.572,1056.597,-1.078,1.086
0.528000,862779,1000.00,12,0,1,1357.432,1.927,2.578,1056.405,-1.091,1.097
0.529000,862780,1000.00,12,0,1,1359.810,2.803,2.562,1057.894,0.197,1.069
0.530000,862781,1000.00,12,0,1,1362.356,4.662,2.620,1059.095,1.505,1.068
0.531000,862782,1000.00,12,0,1,1365.383,6.421,2.754,1056.958,-0.162,1.051
0.532000,862783,1000.00,12,0,1,1358.033,0.949,2.665,1055.781,-1.730,1.046
0.533000,862784,1000.00,12,0,1,1351.835,-6.041,2.759,1058.807,1.133,1.058
0.534000,862785,1000.00,12,0,1,1352.772,-3.412,2.746,1057.990,1.207,1.050
0.535000,862786,1000.00,12,0,1,1353.637,-0.899,2.720,1055.468,-1.633,1.062
0.536000,862787,1000.00,12,0,1,1352.460,-0.802,2.700,1055.612,-1.385,1.065
0.537000,862788,1000.00,12,0,1,1348.953,-2.691,2.696,1057.174,0.273,1.049
0.538000,862789,1000.00,12,0,1,1341.290,-8.294,2.940,1057.414,0.704,1.053
0.539000,862790,1000.00,12,0,1,1341.434,-8.072,3.137,1056.717,-0.093,1.046
0.540000,862791,1000.00,12,0,1,1344.605,-3.040,3.147,1056.045,-0.794,1.039
0.541000,862792,1000.00,12,0,1,1347.319,-0.648,3.118,1056.789,-0.286,1.027
0.542000,862793,1000.00,12,0,1,1346.359,-1.172,3.076,1058.807,1.408,1.045
0.543000,862794,1000.00,12,0,1,1345.734,-3.021,3.083,1060.417,2.646,1.101
0.544000,862795,1000.00,12,0,1,1348.496,-1.239,3.087,1058.495,0.772,1.106
0.545000,862796,1000.00,12,0,1,1355.511,3.797,3.115,1058.327,-0.392,1.107
0.546000,862797,1000.00,12,0,1,1358.777,6.023,3.189,1055.588,-1.980,1.119
0.547000,862798,1000.00,12,0,1,1354.285,0.616,3.186,1057.942,-1.208,1.132
0.548000,862799,1000.00,12,0,1,1356.736,0.087,3.185,1057.750,0.447,1.131
0.549000,862800,1000.00,12,0,1,1363.029,6.200,3.303,1057.390,-1.069,1.140
0.550000,862801,1000.00,12,0,1,1361.996,4.835,3.370,1057.918,0.211,1.114
0.551000,862802,1000.00,12,0,1,1355.871,-1.038,3.369,1058.135,0.231,1.092
0.552000,862803,1000.00,12,0,1,1353.132,-3.586,3.407,1058.327,0.503,1.084
0.553000,862804,1000.00,12,0,1,1353.445,-1.656,3.407,1057.342,-0.088,1.080
0.554000,862805,1000.00,12,0,1,1352.268,-0.996,3.362,1055.853,-1.564,1.098
0.555000,862806,1000.00,12,0,1,1349.722,-1.853,3.372,1054.507,-2.209,1.114
0.556000,862807,1000.00,12,0,1,1347.944,-2.028,3.381,1056.189,-0.945,1.121
0.557000,862808,1000.00,12,0,1,1348.833,-0.165,3.374,1055.805,-0.067,1.100
0.558000,862809,1000.00,12,0,1,1347.368,0.110,3.372,1054.868,-1.503,1.088
0.559000,862810,1000.00,12,0,1,1345.854,-1.386,3.326,1055.685,-0.332,1.087
0.560000,862811,1000.00,12,0,1,1346.455,-0.494,3.281,1055.420,-0.379,1.077
0.561000,862812,1000.00,12,0,1,1349.265,1.451,3.267,1057.486,0.970,1.077
0.562000,862813,1000.00,12,0,1,1352.412,3.557,3.304,1056.621,0.951,1.076
0.563000,862814,1000.00,12,0,1,1351.907,1.973,3.302,1057.174,0.184,1.072
0.564000,862815,1000.00,12,0,1,1353.733,1.137,3.304,1057.054,0.835,1.063
0.565000,862816,1000.00,12,0,1,1352.028,-0.661,3.295,1058.375,0.949,1.045
0.566000,862817,1000.00,12,0,1,1353.493,-2.073,3.307,1057.486,0.911,1.053
0.567000,862818,1000.00,12,0,1,1357.408,1.451,3.309,1057.126,-0.372,1.031
0.568000,862819,1000.00,12,0,1,1360.147,2.664,3.330,1058.687,1.265,1.046
0.569000,862820,1000.00,12,0,1,1358.201,0.851,3.330,1059.648,2.078,1.071
0.570000,862821,1000.00,12,0,1,1353.397,-3.861,3.364,1057.966,0.546,1.074
0.571000,862822,1000.00,12,0,1,1351.067,-5.434,3.350,1057.678,-0.152,1.074
0.572000,862823,1000.00,12,0,1,1349.409,-4.868,3.327,1055.685,-1.274,1.087
0.573000,862824,1000.00,12,0,1,1353.853,-0.214,3.281,1055.132,-2.055,1.120
0.574000,862825,1000.00,12,0,1,1359.522,7.224,3.432,1056.093,-0.537,1.123
0.575000,862826,1000.00,12,0,1,1362.765,10.037,3.714,1055.468,-0.608,1.108
0.576000,862827,1000.00,12,0,1,1365.839,12.343,4.099,1055.564,-0.694,1.109
0.577000,862828,1000.00,12,0,1,1362.861,9.267,4.295,1058.183,1.780,1.127
0.578000,862829,1000.00,12,0,1,1352.940,-0.614,4.287,1056.309,0.656,1.120
0.579000,862830,1000.00,12,0,1,1338.480,-13.196,4.659,1055.540,-1.058,1.130
0.580000,862831,1000.00,12,0,1,1337.567,-14.796,5.064,1057.678,1.067,1.120
0.581000,862832,1000.00,12,0,1,1338.264,-10.095,5.183,1059.888,2.762,1.186
0.582000,862833,1000.00,12,0,1,1340.906,-8.196,5.309,1058.255,1.259,1.174
0.583000,862834,1000.00,12,0,1,1346.311,-1.966,5.247,1056.934,-0.882,1.170
0.584000,862835,1000.00,12,0,1,1350.106,0.861,5.226,1054.844,-2.349,1.204
0.585000,862836,1000.00,12,0,1,1355.462,4.125,5.257,1054.099,-3.292,1.270
0.586000,862837,1000.00,12,0,1,1355.414,3.694,5.282,1056.333,-0.922,1.261
0.587000,862838,1000.00,12,0,1,1358.561,3.173,5.287,1056.285,-0.162,1.261
0.588000,862839,1000.00,12,0,1,1362.380,6.544,5.238,1056.261,-0.624,1.260
0.589000,862840,1000.00,12,0,1,1360.195,3.081,5.131,1055.781,-0.333,1.261
0.590000,862841,1000.00,12,0,1,1358.225,0.324,5.113,1056.141,-0.328,1.257
0.591000,862842,1000.00,12,0,1,1355.799,-1.370,5.116,1056.501,0.635,1.259
0.592000,862843,1000.00,12,0,1,1350.154,-5.312,5.168,1055.805,0.012,1.244
0.593000,862844,1000.00,12,0,1,1350.442,-4.359,5.187,1056.021,0.256,1.187
0.594000,862845,1000.00,12,0,1,1355.318,2.322,5.194,1057.390,1.578,1.202
0.595000,862846,1000.00,12,0,1,1354.646,3.704,5.193,1056.405,1.001,1.209
0.596000,862847,1000.00,12,0,1,1354.382,3.300,5.144,1056.261,0.308,1.177
0.597000,862848,1000.00,12,0,1,1349.505,0.925,5.145,1056.261,0.612,1.168
0.598000,862849,1000.00,12,0,1,1347.151,-2.121,5.153,1056.621,0.573,1.169
0.599000,862850,1000.00,12,0,1,1347.416,-0.329,5.079,1056.453,0.527,1.162
0.600000,862851,1000.00,12,0,1,1345.134,-2.177,5.042,1056.045,-0.133,1.162
0.601000,862852,1000.00,12,0,1,1345.134,-2.635,5.053,1056.045,-0.255,1.162
0.602000,862853,1000.00,12,0,1,1349.073,0.576,5.028,1056.189,-0.166,1.160
0.603000,862854,1000.00,12,0,1,1350.730,1.552,5.028,1056.958,0.270,1.160
0.604000,862855,1000.00,12,0,1,1351.955,0.914,5.028,1056.453,0.029,1.139
0.605000,862856,1000.00,12,0,1,1352.820,0.439,5.021,1056.862,-0.170,1.096
0.606000,862857,1000.00,12,0,1,1352.988,-0.787,5.014,1057.558,0.729,1.092
0.607000,862858,1000.00,12,0,1,1352.676,-2.041,5.022,1058.375,1.072,1.103
0.608000,862859,1000.00,12,0,1,1352.388,-2.783,5.038,1055.757,-0.736,1.087
0.609000,862860,1000.00,12,0,1,1351.475,-3.497,5.058,1058.663,0.498,1.088
0.610000,862861,1000.00,12,0,1,1350.226,-3.982,5.089,1058.087,1.728,1.114
0.611000,862862,1000.00,12,0,1,1350.754,-2.682,5.099,1059.408,1.076,1.116
0.612000,862863,1000.00,12,0,1,1351.139,-0.623,5.075,1059.456,2.326,1.156
0.613000,862864,1000.00,12,0,1,1352.028,1.205,5.070,1056.765,-0.861,1.162
0.614000,862865,1000.00,12,0,1,1354.838,4.904,5.115,1057.222,-0.722,1.160
0.615000,862866,1000.00,12,0,1,1353.060,4.841,5.159,1056.381,-0.603,1.156
0.616000,862867,1000.00,12,0,1,1350.250,2.288,5.161,1055.204,-2.157,1.188
0.617000,862868,1000.00,12,0,1,1348.064,1.358,5.161,1056.309,-0.674,1.191
0.618000,862869,1000.00,12,0,1,1349.625,2.600,5.160,1057.174,0.149,1.178
0.619000,862870,1000.00,12,0,1,1350.634,4.312,5.195,1056.958,0.117,1.140
0.620000,862871,1000.00,12,0,1,1349.073,2.199,5.175,1058.495,0.861,1.144
0.621000,862872,1000.00,12,0,1,1351.475,2.874,5.134,1056.837,0.035,1.144
0.622000,862873,1000.00,12,0,1,1356.664,6.464,5.169,1057.822,-0.461,1.132
0.623000,862874,1000.00,12,0,1,1359.258,6.881,5.260,1058.975,1.345,1.110
0.624000,862875,1000.00,12,0,1,1356.423,2.357,5.170,1057.006,-0.872,1.114
0.625000,862876,1000.00,12,0,1,1355.078,-1.738,4.978,1055.204,-2.630,1.172
0.626000,862877,1000.00,12,0,1,1354.982,-2.668,4.677,1056.934,-1.171,1.179
0.627000,862878,1000.00,12,0,1,1355.631,-3.389,4.515,1058.183,0.543,1.155
0.628000,862879,1000.00,12,0,1,1356.976,-2.475,4.528,1059.023,1.041,1.160
0.629000,862880,1000.00,12,0,1,1357.865,-1.896,4.134,1057.462,-0.022,1.151
0.630000,862881,1000.00,12,0,1,1355.751,-3.264,3.595,1056.573,-1.224,1.154
0.631000,862882,1000.00,12,0,1,1356.159,-2.962,3.326,1058.183,0.399,1.087
0.632000,862883,1000.00,12,0,1,1357.192,-0.490,3.118,1055.901,-0.731,1.077
0.633000,862884,1000.00,12,0,1,1357.624,0.669,3.107,1054.988,-2.268,1.117
0.634000,862885,1000.00,12,0,1,1354.382,-0.618,3.106,1055.276,-0.916,1.074
0.635000,862886,1000.00,12,0,1,1351.955,-2.250,3.067,1056.621,0.060,0.968
0.636000,862887,1000.00,12,0,1,1352.340,-0.469,3.023,1056.285,0.576,0.963
0.637000,862888,1000.00,12,0,1,1354.886,2.645,3.013,1054.604,-1.211,0.978
0.638000,862889,1000.00,12,0,1,1349.337,-0.578,2.868,1057.774,1.184,0.988
0.639000,862890,1000.00,12,0,1,1346.142,-4.632,2.910,1057.366,1.895,1.023
0.640000,862891,1000.00,12,0,1,1349.746,-0.617,2.911,1056.813,0.026,1.022
0.641000,862892,1000.00,12,0,1,1352.988,2.400,2.924,1057.774,1.246,1.033
0.642000,862893,1000.00,12,0,1,1349.866,-0.720,2.828,1057.582,0.652,1.037
0.643000,862894,1000.00,12,0,1,1354.309,0.519,2.761,1058.327,0.911,1.044
0.644000,862895,1000.00,12,0,1,1359.042,4.903,2.828,1057.270,0.152,1.021
0.645000,862896,1000.00,12,0,1,1360.195,3.526,2.823,1056.333,-1.282,1.027
0.646000,862897,1000.00,12,0,1,1359.786,1.528,2.793,1055.901,-1.271,1.042
0.647000,862898,1000.00,12,0,1,1357.889,-1.519,2.798,1056.381,-0.970,1.047
0.648000,862899,1000.00,12,0,1,1352.148,-6.926,2.949,1056.597,-0.256,1.044
0.649000,862900,1000.00,12,0,1,1352.820,-7.035,3.112,1056.958,-0.025,1.042
0.650000,862901,1000.00,12,0,1,1354.021,-3.796,3.143,1057.942,1.038,1.052
0.651000,862902,1000.00,12,0,1,1351.835,-4.660,3.190,1057.534,0.874,1.059
0.652000,862903,1000.00,12,0,1,1353.781,-2.122,3.203,1057.606,0.614,1.062
0.653000,862904,1000.00,12,0,1,1353.397,0.242,3.195,1058.519,1.554,1.084
0.654000,862905,1000.00,12,0,1,1349.337,-2.467,3.212,1055.612,-0.647,1.087
0.655000,862906,1000.00,12,0,1,1350.538,-0.269,3.211,1055.660,-1.432,1.106
0.656000,862907,1000.00,12,0,1,1349.505,1.174,3.214,1057.126,0.716,1.106
0.657000,862908,1000.00,12,0,1,1348.376,0.406,3.201,1056.189,-0.137,1.095
0.658000,862909,1000.00,12,0,1,1347.872,1.165,3.181,1057.054,0.198,1.091
0.659000,862910,1000.00,12,0,1,1347.344,0.808,3.144,1058.495,1.702,1.115
0.660000,862911,1000.00,12,0,1,1349.457,2.408,3.112,1057.174,0.358,1.089
0.661000,862912,1000.00,12,0,1,1354.502,6.162,3.210,1055.973,-1.165,1.091
0.662000,862913,1000.00,12,0,1,1356.399,6.880,3.353,1054.507,-2.235,1.087
0.663000,862914,1000.00,12,0,1,1353.349,2.321,3.364,1057.702,-0.036,1.080
0.664000,862915,1000.00,12,0,1,1351.523,-1.509,3.299,1055.660,-0.304,1.076
0.665000,862916,1000.00,12,0,1,1352.292,-1.766,3.237,1056.597,-1.248,1.087
0.666000,862917,1000.00,12,0,1,1353.397,-1.627,3.229,1057.078,0.721,1.049
0.667000,862918,1000.00,12,0,1,1352.316,-2.798,3.247,1055.396,-1.436,1.064
0.668000,862919,1000.00,12,0,1,1356.591,-0.336,3.227,1054.724,-1.698,1.090
0.669000,862920,1000.00,12,0,1,1360.387,3.975,3.218,1055.012,-1.104,1.101
0.670000,862921,1000.00,12,0,1,1360.795,3.539,3.242,1055.588,-0.331,1.096
0.671000,862922,1000.00,12,0,1,1363.077,5.023,3.294,1056.189,0.625,1.099
0.672000,862923,1000.00,12,0,1,1368.145,9.130,3.418,1055.084,-0.183,1.097
0.673000,862924,1000.00,12,0,1,1359.666,3.090,3.305,1055.276,-0.059,1.081
0.674000,862925,1000.00,12,0,1,1353.853,-4.341,3.345,1057.534,1.981,1.110
0.675000,862926,1000.00,12,0,1,1351.811,-3.501,3.373,1058.159,2.842,1.120
0.676000,862927,1000.00,12,0,1,1348.665,-5.255,3.433,1057.246,1.457,1.127
0.677000,862928,1000.00,12,0,1,1348.785,-3.855,3.443,1056.621,0.703,1.129
0.678000,862929,1000.00,12,0,1,1354.670,2.239,3.440,1056.741,0.488,1.121
0.679000,862930,1000.00,12,0,1,1352.988,2.276,3.444,1055.252,-0.589,1.124
0.680000,862931,1000.00,12,0,1,1345.542,-5.183,3.491,1055.516,-0.958,1.119
0.681000,862932,1000.00,12,0,1,1346.647,-5.305,3.546,1056.501,0.360,1.119
0.682000,862933,1000.00,12,0,1,1344.797,-4.914,3.613,1056.862,0.428,1.116
0.683000,862934,1000.00,12,0,1,1348.617,-3.961,3.655,1058.543,1.586,1.092
0.684000,862935,1000.00,12,0,1,1353.445,1.792,3.663,1057.438,0.883,1.091
0.685000,862936,1000.00,12,0,1,1356.880,2.586,3.667,1057.510,-0.080,1.091
0.686000,862937,1000.00,12,0,1,1359.786,4.361,3.718,1058.807,1.380,1.106
0.687000,862938,1000.00,12,0,1,1362.789,4.970,3.765,1056.765,-0.431,1.094
0.688000,862939,1000.00,12,0,1,1361.468,3.057,3.789,1056.045,-1.609,1.105
0.689000,862940,1000.00,12,0,1,1356.904,-2.139,3.744,1056.165,-0.928,1.080
0.690000,862941,1000.00,12,0,1,1353.325,-5.408,3.821,1056.333,-0.787,1.085
0.691000,862942,1000.00,12,0,1,1352.268,-5.186,3.875,1057.702,0.608,1.074
0.692000,862943,1000.00,12,0,1,1353.012,-3.099,3.899,1057.894,1.033,1.080
0.693000,862944,1000.00,12,0,1,1353.373,-0.746,3.900,1055.492,-1.030,1.083
0.694000,862945,1000.00,12,0,1,1351.379,-0.999,3.840,1056.405,-0.749,1.088
0.695000,862946,1000.00,12,0,1,1350.154,-0.763,3.809,1055.420,-0.527,1.075
0.696000,862947,1000.00,12,0,1,1345.854,-2.516,3.820,1057.198,0.034,1.060
0.697000,862948,1000.00,12,0,1,1344.605,-3.095,3.839,1057.366,1.324,1.067
0.698000,862949,1000.00,12,0,1,1346.911,0.617,3.713,1054.147,-2.048,1.105
0.699000,862950,1000.00,12,0,1,1347.488,1.917,3.587,1055.540,-1.282,1.120
0.700000,862951,1000.00,12,0,1,1348.160,2.087,3.559,1056.165,0.307,1.111
0.701000,862952,1000.00,12,0,1,1350.130,3.309,3.528,1056.982,0.205,1.105
0.702000,862953,1000.00,12,0,1,1354.189,5.391,3.597,1056.597,0.517,1.104
0.703000,862954,1000.00,12,0,1,1356.567,6.294,3.706,1056.381,-0.462,1.084
0.704000,862955,1000.00,12,0,1,1358.249,5.155,3.761,1056.477,0.001,1.080
0.705000,862956,1000.00,12,0,1,1363.654,7.417,3.904,1055.925,-0.663,1.065
0.706000,862957,1000.00,12,0,1,1361.756,4.721,3.957,1055.853,-0.684,1.064
0.707000,862958,1000.00,12,0,1,1357.552,-2.026,3.967,1057.918,1.041,1.074
0.708000,862959,1000.00,12,0,1,1355.583,-4.164,4.007,1056.669,0.562,1.077
0.709000,862960,1000.00,12,0,1,1357.336,-3.096,4.029,1057.534,0.361,1.051
0.710000,862961,1000.00,12,0,1,1358.825,-0.664,4.016,1058.039,1.575,1.073
0.711000,862962,1000.00,12,0,1,1357.600,-1.183,3.924,1057.462,0.565,1.063
0.712000,862963,1000.00,12,0,1,1355.222,-2.404,3.817,1057.534,0.629,1.019
0.713000,862964,1000.00,12,0,1,1353.229,-2.861,3.824,1057.486,0.630,1.023
0.714000,862965,1000.00,12,0,1,1351.307,-2.978,3.841,1057.750,0.632,1.026
0.715000,862966,1000.00,12,0,1,1350.778,-1.907,3.843,1057.126,0.328,1.012
0.716000,862967,1000.00,12,0,1,1352.748,1.033,3.838,1056.765,-0.402,1.008
0.717000,862968,1000.00,12,0,1,1351.475,1.495,3.824,1056.741,-0.163,0.988
0.718000,862969,1000.00,12,0,1,1351.547,0.971,3.826,1055.949,-0.931,0.967
0.719000,862970,1000.00,12,0,1,1349.145,-0.036,3.784,1054.796,-1.810,0.988
0.720000,862971,1000.00,12,0,1,1348.352,-2.044,3.762,1054.964,-1.702,1.016
0.721000,862972,1000.00,12,0,1,1350.923,0.292,3.695,1056.934,0.210,1.013
0.722000,862973,1000.00,12,0,1,1350.827,-0.244,3.462,1056.525,0.255,1.013
0.723000,862974,1000.00,12,0,1,1350.899,-1.678,3.443,1056.381,-0.474,1.015
0.724000,862975,1000.00,12,0,1,1350.226,-2.666,3.408,1057.198,0.439,0.978
0.725000,862976,1000.00,12,0,1,1354.382,-0.904,3.375,1056.093,-0.472,0.894
0.726000,862977,1000.00,12,0,1,1357.865,2.487,3.311,1055.805,-1.057,0.883
0.727000,862978,1000.00,12,0,1,1358.273,1.295,3.270,1056.645,-0.032,0.877
0.728000,862979,1000.00,12,0,1,1360.267,2.128,3.269,1057.486,0.711,0.880
0.729000,862980,1000.00,12,0,1,1359.066,1.171,3.257,1055.516,-0.605,0.880
0.730000,862981,1000.00,12,0,1,1359.354,0.441,3.174,1056.453,-0.502,0.873
0.731000,862982,1000.00,12,0,1,1358.585,1.037,3.088,1057.198,1.110,0.885
0.732000,862983,1000.00,12,0,1,1356.303,-0.805,3.011,1058.207,1.399,0.905
0.733000,862984,1000.00,12,0,1,1354.838,-0.845,2.961,1058.879,2.295,0.935
0.734000,862985,1000.00,12,0,1,1355.703,0.849,2.952,1057.414,0.766,0.933
0.735000,862986,1000.00,12,0,1,1353.517,0.786,2.932,1057.486,0.295,0.934
0.736000,862987,1000.00,12,0,1,1351.115,-0.997,2.870,1056.333,-0.168,0.913
0.737000,862988,1000.00,12,0,1,1357.624,4.750,2.862,1056.309,-0.857,0.919
0.738000,862989,1000.00,12,0,1,1358.994,7.665,3.030,1056.645,0.053,0.891
0.739000,862990,1000.00,12,0,1,1353.469,1.102,3.019,1056.910,-0.077,0.881
0.740000,862991,1000.00,12,0,1,1350.418,-2.528,2.942,1057.942,0.880,0.883
0.741000,862992,1000.00,12,0,1,1349.577,-3.672,2.896,1056.813,-0.030,0.879
0.742000,862993,1000.00,12,0,1,1351.619,-2.599,2.886,1056.453,-0.933,0.876
0.743000,862994,1000.00,12,0,1,1353.829,-0.953,2.887,1057.630,0.263,0.865
0.744000,862995,1000.00,12,0,1,1356.183,-0.232,2.884,1056.453,-0.608,0.863
0.745000,862996,1000.00,12,0,1,1355.847,-1.099,2.886,1057.054,-0.673,0.865
0.746000,862997,1000.00,12,0,1,1355.943,-2.627,2.888,1056.669,-0.350,0.866
0.747000,862998,1000.00,12,0,1,1356.063,-2.599,2.878,1057.054,-0.592,0.850
0.748000,862999,1000.00,12,0,1,1356.760,-2.521,2.899,1056.285,-0.582,0.803
0.749000,863000,1000.00,12,0,1,1355.991,-2.515,2.908,1056.717,-0.713,0.789
0.750000,863001,1000.00,12,0,1,1360.363,0.817,2.896,1058.303,1.127,0.804
0.751000,863002,1000.00,12,0,1,1361.684,3.875,2.910,1055.973,-0.513,0.807
0.752000,863003,1000.00,12,0,1,1360.771,2.557,2.831,1055.348,-1.750,0.840
0.753000,863004,1000.00,12,0,1,1365.383,6.668,2.848,1056.021,-0.280,0.839
0.754000,863005,1000.00,12,0,1,1361.372,5.092,2.846,1057.006,0.403,0.841
0.755000,863006,1000.00,12,0,1,1348.785,-6.407,2.796,1055.468,-0.219,0.836
0.756000,863007,1000.00,12,0,1,1346.647,-8.008,2.942,1055.372,-0.969,0.842
0.757000,863008,1000.00,12,0,1,1351.115,-1.429,2.935,1053.883,-1.252,0.847
0.758000,863009,1000.00,12,0,1,1353.877,2.246,2.893,1052.778,-2.590,0.920
0.759000,863010,1000.00,12,0,1,1357.240,4.911,2.943,1056.021,0.516,0.921
0.760000,863011,1000.00,12,0,1,1354.358,2.692,2.966,1055.180,0.834,0.902
0.761000,863012,1000.00,12,0,1,1351.739,-1.846,2.973,1055.901,0.180,0.899
0.762000,863013,1000.00,12,0,1,1351.307,-2.360,2.972,1055.420,0.837,0.902
0.763000,863014,1000.00,12,0,1,1351.667,-3.102,2.977,1055.324,-0.314,0.899
0.764000,863015,1000.00,12,0,1,1355.799,-0.431,2.947,1054.027,-0.624,0.899
0.765000,863016,1000.00,12,0,1,1356.664,0.224,2.935,1055.516,-0.224,0.898
0.766000,863017,1000.00,12,0,1,1357.696,-0.834,2.934,1056.453,1.509,0.921
0.767000,863018,1000.00,12,0,1,1358.801,0.009,2.926,1058.207,2.203,0.972
0.768000,863019,1000.00,12,0,1,1361.564,1.135,2.928,1058.375,2.680,1.035
0.769000,863020,1000.00,12,0,1,1363.846,3.317,2.965,1056.982,0.836,1.010
0.770000,863021,1000.00,12,0,1,1358.105,-1.417,2.958,1057.558,0.875,0.989
0.771000,863022,1000.00,12,0,1,1354.021,-5.648,3.063,1057.774,1.411,1.008
0.772000,863023,1000.00,12,0,1,1358.177,-0.657,3.064,1055.468,-0.822,1.014
0.773000,863024,1000.00,12,0,1,1356.231,0.350,3.056,1054.483,-1.750,1.042
0.774000,863025,1000.00,12,0,1,1350.322,-4.341,3.094,1055.877,-0.346,1.041
0.775000,863026,1000.00,12,0,1,1346.191,-6.032,3.207,1058.519,2.235,1.086
0.776000,863027,1000.00,12,0,1,1346.623,-4.032,3.238,1056.934,1.199,1.089
0.777000,863028,1000.00,12,0,1,1346.623,-1.527,3.240,1056.886,0.121,1.089
0.778000,863029,1000.00,12,0,1,1348.833,0.859,3.228,1056.765,0.573,1.087
0.779000,863030,1000.00,12,0,1,1354.502,6.340,3.346,1057.438,0.456,1.086
0.780000,863031,1000.00,12,0,1,1357.600,8.741,3.567,1057.942,1.114,1.095
0.781000,863032,1000.00,12,0,1,1356.615,6.112,3.667,1055.060,-1.476,1.104
0.782000,863033,1000.00,12,0,1,1356.063,3.488,3.698,1053.883,-3.123,1.172
0.783000,863034,1000.00,12,0,1,1355.318,1.233,3.701,1056.093,-0.760,1.131
0.784000,863035,1000.00,12,0,1,1359.786,2.760,3.719,1058.255,1.268,1.140
0.785000,863036,1000.00,12,0,1,1358.585,1.649,3.725,1056.381,-0.076,1.140
0.786000,863037,1000.00,12,0,1,1353.157,-5.365,3.799,1058.423,0.419,1.141
0.787000,863038,1000.00,12,0,1,1354.598,-5.018,3.806,1056.886,0.447,1.136
0.788000,863039,1000.00,12,0,1,1359.642,0.032,3.648,1056.789,-1.218,1.149
0.789000,863040,1000.00,12,0,1,1357.744,-0.832,3.646,1056.862,-0.002,1.149
0.790000,863041,1000.00,12,0,1,1357.841,-1.589,3.636,1059.143,1.073,1.152
0.791000,863042,1000.00,12,0,1,1357.264,-0.358,3.599,1059.648,2.340,1.199
0.792000,863043,1000.00,12,0,1,1354.670,-2.069,3.592,1056.573,-0.801,1.197
0.793000,863044,1000.00,12,0,1,1353.493,-1.842,3.599,1055.060,-2.459,1.246
0.794000,863045,1000.00,12,0,1,1356.712,2.061,3.611,1057.558,0.056,1.243
0.795000,863046,1000.00,12,0,1,1357.985,4.815,3.671,1057.294,0.520,1.242
0.796000,863047,1000.00,12,0,1,1357.600,4.476,3.707,1055.973,-0.939,1.248
0.797000,863048,1000.00,12,0,1,1361.348,7.176,3.825,1056.093,-0.787,1.250
0.798000,863049,1000.00,12,0,1,1358.321,5.358,3.883,1055.901,-0.551,1.250
0.799000,863050,1000.00,12,0,1,1350.947,-2.985,3.890,1055.084,-1.324,1.259
0.800000,863051,1000.00,12,0,1,1348.352,-5.627,3.969,1055.324,-0.962,1.257
0.801000,863052,1000.00,12,0,1,1350.610,-3.751,3.967,1058.303,1.414,1.270
0.802000,863053,1000.00,12,0,1,1354.718,-0.192,3.950,1058.327,2.018,1.278
0.803000,863054,1000.00,12,0,1,1358.465,2.249,3.849,1056.261,-0.655,1.281
0.804000,863055,1000.00,12,0,1,1355.583,-0.876,3.783,1056.645,-0.558,1.282
0.805000,863056,1000.00,12,0,1,1356.495,-2.646,3.692,1057.822,0.567,1.284
0.806000,863057,1000.00,12,0,1,1358.921,-0.244,3.514,1056.645,-0.352,1.278
0.807000,863058,1000.00,12,0,1,1355.799,-3.469,3.543,1054.652,-2.286,1.306
0.808000,863059,1000.00,12,0,1,1355.102,-4.962,3.597,1056.886,-0.570,1.257
0.809000,863060,1000.00,12,0,1,1355.102,-3.641,3.567,1056.958,0.588,1.257
0.810000,863061,1000.00,12,0,1,1355.751,-2.789,3.569,1056.669,-0.363,1.253
0.811000,863062,1000.00,12,0,1,1360.363,2.259,3.573,1056.645,0.198,1.253
0.812000,863063,1000.00,12,0,1,1363.029,5.738,3.649,1055.829,-0.578,1.250
0.813000,863064,1000.00,12,0,1,1359.954,3.547,3.657,1055.949,-0.349,1.250
0.814000,863065,1000.00,12,0,1,1353.157,-1.986,3.667,1054.700,-0.873,1.253
0.815000,863066,1000.00,12,0,1,1350.538,-3.850,3.707,1056.309,0.055,1.253
0.816000,863067,1000.00,12,0,1,1348.593,-3.297,3.735,1056.765,1.480,1.252
0.817000,863068,1000.00,12,0,1,1347.319,-3.493,3.767,1056.189,0.337,1.213
0.818000,863069,1000.00,12,0,1,1347.392,-1.984,3.774,1057.342,1.383,1.169
0.819000,863070,1000.00,12,0,1,1348.232,-0.642,3.746,1057.462,1.498,1.182
0.820000,863071,1000.00,12,0,1,1349.625,0.809,3.743,1058.087,1.445,1.194
0.821000,863072,1000.00,12,0,1,1351.019,1.707,3.664,1056.741,0.489,1.179
0.822000,863073,1000.00,12,0,1,1351.403,1.282,3.668,1057.222,-0.097,1.173
0.823000,863074,1000.00,12,0,1,1353.541,1.792,3.676,1055.132,-1.048,1.156
0.824000,863075,1000.00,12,0,1,1355.895,2.872,3.647,1055.420,-1.938,1.187
0.825000,863076,1000.00,12,0,1,1355.775,1.539,3.553,1056.934,0.327,1.145
0.826000,863077,1000.00,12,0,1,1355.775,0.027,3.507,1057.222,0.291,1.133
0.827000,863078,1000.00,12,0,1,1358.153,1.234,3.504,1055.612,-0.893,1.140
0.828000,863079,1000.00,12,0,1,1358.441,1.318,3.507,1055.204,-1.550,1.158
0.829000,863080,1000.00,12,0,1,1358.153,0.367,3.391,1055.444,-0.888,1.163
0.830000,863081,1000.00,12,0,1,1360.651,2.443,3.176,1055.733,-0.423,1.154
0.831000,863082,1000.00,12,0,1,1361.324,3.716,3.101,1055.805,-0.167,1.135
0.832000,863083,1000.00,12,0,1,1360.891,3.137,3.094,1056.453,0.531,1.049
0.833000,863084,1000.00,12,0,1,1358.561,1.911,3.101,1055.781,0.201,1.044
0.834000,863085,1000.00,12,0,1,1358.921,2.017,3.089,1056.645,0.658,1.032
0.835000,863086,1000.00,12,0,1,1357.072,2.007,3.094,1057.702,1.873,1.066
0.836000,863087,1000.00,12,0,1,1352.700,-1.753,3.009,1058.015,1.887,1.097
0.837000,863088,1000.00,12,0,1,1352.580,-1.509,2.932,1056.813,0.733,1.100
0.838000,863089,1000.00,12,0,1,1345.638,-5.354,3.028,1057.150,0.466,1.088
0.839000,863090,1000.00,12,0,1,1342.756,-9.024,3.284,1057.462,0.922,1.096
0.840000,863091,1000.00,12,0,1,1348.809,-2.042,3.289,1055.685,-0.742,1.091
0.841000,863092,1000.00,12,0,1,1353.229,2.356,3.306,1055.588,-1.288,1.055
0.842000,863093,1000.00,12,0,1,1356.375,3.926,3.339,1055.925,-0.515,1.052
0.843000,863094,1000.00,12,0,1,1350.827,-1.095,3.333,1055.757,-0.828,0.999
0.844000,863095,1000.00,12,0,1,1352.580,-3.151,3.350,1057.054,0.277,1.000
0.845000,863096,1000.00,12,0,1,1355.150,0.466,3.280,1055.180,-0.853,1.005
0.846000,863097,1000.00,12,0,1,1353.709,-2.552,3.239,1056.333,-0.789,1.002
0.847000,863098,1000.00,12,0,1,1354.958,-1.978,3.088,1056.886,0.742,1.001
0.848000,863099,1000.00,12,0,1,1358.945,1.291,3.000,1056.261,-0.400,1.000
0.849000,863100,1000.00,12,0,1,1363.822,5.234,3.061,1055.372,-0.821,0.989
0.850000,863101,1000.00,12,0,1,1360.315,2.955,2.985,1054.820,-1.361,0.998
0.851000,863102,1000.00,12,0,1,1355.318,-2.753,2.963,1056.117,-0.092,0.978
0.852000,863103,1000.00,12,0,1,1355.006,-1.787,2.974,1058.039,1.896,0.973
0.853000,863104,1000.00,12,0,1,1355.294,-0.208,2.957,1056.501,0.744,0.975
0.854000,863105,1000.00,12,0,1,1350.226,-2.585,2.977,1054.940,-1.079,0.983
0.855000,863106,1000.00,12,0,1,1349.313,-3.179,2.987,1056.886,0.548,0.983
0.856000,863107,1000.00,12,0,1,1350.298,0.234,2.987,1056.862,1.213,0.997
0.857000,863108,1000.00,12,0,1,1350.586,1.138,2.951,1059.095,2.096,0.988
0.858000,863109,1000.00,12,0,1,1351.691,2.686,2.891,1057.030,1.357,1.004
0.859000,863110,1000.00,12,0,1,1352.052,3.086,2.878,1054.628,-2.173,1.046
0.860000,863111,1000.00,12,0,1,1353.685,3.487,2.893,1056.982,0.171,1.045
0.861000,863112,1000.00,12,0,1,1356.351,5.018,2.962,1057.654,1.207,1.059
0.862000,863113,1000.00,12,0,1,1360.819,6.814,3.007,1056.405,-0.332,1.057
0.863000,863114,1000.00,12,0,1,1353.613,0.378,2.966,1054.580,-1.792,1.086
0.864000,863115,1000.00,12,0,1,1350.875,-6.264,3.082,1055.877,-1.139,1.090
0.865000,863116,1000.00,12,0,1,1354.141,-2.579,3.056,1055.612,-0.337,1.091
0.866000,863117,1000.00,12,0,1,1356.712,-1.324,3.026,1055.805,-0.885,1.078
0.867000,863118,1000.00,12,0,1,1358.249,-0.257,2.985,1056.597,0.402,1.079
0.868000,863119,1000.00,12,0,1,1357.360,-1.314,2.978,1055.588,-0.530,1.064
0.869000,863120,1000.00,12,0,1,1358.081,-1.340,2.983,1055.300,-0.917,1.050
0.870000,863121,1000.00,12,0,1,1358.994,0.402,2.981,1055.204,-0.614,1.034
0.871000,863122,1000.00,12,0,1,1357.192,-0.814,2.973,1056.285,0.161,1.032
0.872000,863123,1000.00,12,0,1,1353.469,-2.936,2.997,1056.333,0.750,1.037
0.873000,863124,1000.00,12,0,1,1353.901,-2.032,3.000,1055.420,-0.341,1.028
0.874000,863125,1000.00,12,0,1,1351.619,-1.280,2.978,1054.123,-1.172,1.004
0.875000,863126,1000.00,12,0,1,1346.935,-4.614,3.041,1056.141,0.223,1.004
0.876000,863127,1000.00,12,0,1,1351.187,-0.062,3.041,1057.966,2.517,1.064
0.877000,863128,1000.00,12,0,1,1356.111,6.349,3.166,1057.606,1.798,1.087
0.878000,863129,1000.00,12,0,1,1359.066,8.167,3.364,1058.039,1.694,1.091
0.879000,863130,1000.00,12,0,1,1357.048,6.219,3.477,1058.807,2.201,1.128
0.880000,863131,1000.00,12,0,1,1357.144,3.670,3.499,1056.381,-0.003,1.126
0.881000,863132,1000.00,12,0,1,1355.823,2.275,3.474,1055.132,-1.762,1.153
0.882000,863133,1000.00,12,0,1,1357.216,0.854,3.448,1057.102,0.077,1.151
0.883000,863134,1000.00,12,0,1,1362.885,4.729,3.501,1056.525,0.132,1.151
0.884000,863135,1000.00,12,0,1,1359.378,1.047,3.493,1054.964,-1.724,1.172
0.885000,863136,1000.00,12,0,1,1350.514,-9.056,3.709,1056.261,-0.542,1.145
0.886000,863137,1000.00,12,0,1,1349.625,-10.541,3.990,1056.837,0.384,1.114
0.887000,863138,1000.00,12,0,1,1353.229,-6.234,4.081,1057.486,0.604,1.113
0.888000,863139,1000.00,12,0,1,1357.264,-1.944,4.019,1055.396,-0.745,1.116
0.889000,863140,1000.00,12,0,1,1358.585,0.004,3.811,1055.204,-1.669,1.133
0.890000,863141,1000.00,12,0,1,1355.871,-1.836,3.809,1056.621,0.245,1.129
0.891000,863142,1000.00,12,0,1,1355.943,-1.719,3.802,1055.757,-0.348,1.115
0.892000,863143,1000.00,12,0,1,1354.334,-1.067,3.765,1055.660,-0.717,1.117
0.893000,863144,1000.00,12,0,1,1357.865,1.733,3.769,1055.012,-0.731,1.116
0.894000,863145,1000.00,12,0,1,1358.729,5.048,3.810,1054.988,-1.026,1.125
0.895000,863146,1000.00,12,0,1,1356.423,2.485,3.826,1057.438,1.338,1.134
0.896000,863147,1000.00,12,0,1,1351.283,-0.848,3.811,1057.846,1.986,1.163
0.897000,863148,1000.00,12,0,1,1351.475,-1.315,3.805,1056.886,0.662,1.162
0.898000,863149,1000.00,12,0,1,1345.038,-4.225,3.847,1056.982,0.514,1.163
0.899000,863150,1000.00,12,0,1,1348.521,-3.428,3.807,1054.652,-1.176,1.169
0.900000,863151,1000.00,12,0,1,1355.703,5.383,3.859,1053.883,-2.375,1.201
0.901000,863152,1000.00,12,0,1,1354.838,3.702,3.875,1055.348,-0.488,1.203
0.902000,863153,1000.00,12,0,1,1357.000,3.178,3.893,1055.012,-0.401,1.174
0.903000,863154,1000.00,12,0,1,1353.925,0.904,3.895,1054.796,-0.752,1.174
0.904000,863155,1000.00,12,0,1,1351.355,-4.393,3.927,1056.333,0.718,1.169
0.905000,863156,1000.00,12,0,1,1357.216,0.554,3.902,1055.612,0.456,1.168
0.906000,863157,1000.00,12,0,1,1357.720,1.169,3.906,1055.660,-0.058,1.155
0.907000,863158,1000.00,12,0,1,1351.931,-4.750,3.960,1054.652,-0.386,1.118
0.908000,863159,1000.00,12,0,1,1353.733,-4.265,3.987,1055.564,-0.193,1.101
0.909000,863160,1000.00,12,0,1,1357.961,1.092,3.966,1055.300,0.373,1.059
0.910000,863161,1000.00,12,0,1,1357.792,1.283,3.940,1055.781,0.151,1.059
0.911000,863162,1000.00,12,0,1,1355.054,-0.654,3.876,1054.868,0.002,1.045
0.912000,863163,1000.00,12,0,1,1352.508,-2.202,3.768,1056.837,0.889,1.052
0.913000,863164,1000.00,12,0,1,1347.031,-5.169,3.838,1056.405,1.460,1.041
0.914000,863165,1000.00,12,0,1,1348.256,-3.617,3.769,1057.990,1.582,1.053
0.915000,863166,1000.00,12,0,1,1351.355,1.930,3.761,1057.150,1.704,1.079
0.916000,863167,1000.00,12,0,1,1355.751,5.897,3.848,1056.573,0.059,1.072
0.917000,863168,1000.00,12,0,1,1359.018,9.385,4.070,1055.492,-0.386,1.072
0.918000,863169,1000.00,12,0,1,1358.033,7.622,4.206,1057.006,0.279,1.070
0.919000,863170,1000.00,12,0,1,1355.222,3.725,4.235,1056.381,0.493,1.064
0.920000,863171,1000.00,12,0,1,1351.619,-0.297,4.235,1055.204,-1.107,1.072
0.921000,863172,1000.00,12,0,1,1354.093,0.042,4.233,1055.925,-0.428,1.074
0.922000,863173,1000.00,12,0,1,1354.165,0.767,4.214,1055.444,-0.352,1.069
0.923000,863174,1000.00,12,0,1,1347.824,-6.116,4.292,1054.243,-1.701,1.095
0.924000,863175,1000.00,12,0,1,1343.380,-10.523,4.539,1054.171,-1.390,1.100
0.925000,863176,1000.00,12,0,1,1347.319,-7.094,4.603,1055.685,-0.142,1.100
0.926000,863177,1000.00,12,0,1,1352.916,-0.836,4.604,1057.126,1.533,1.063
0.927000,863178,1000.00,12,0,1,1358.970,3.934,4.550,1056.453,0.760,1.038
0.928000,863179,1000.00,12,0,1,1358.945,4.350,4.444,1056.261,0.229,1.010
0.929000,863180,1000.00,12,0,1,1356.231,0.557,4.357,1055.925,0.010,0.961
0.930000,863181,1000.00,12,0,1,1356.591,0.719,4.327,1056.117,-0.073,0.961
0.931000,863182,1000.00,12,0,1,1356.351,1.247,4.319,1056.333,0.257,0.929
0.932000,863183,1000.00,12,0,1,1356.976,1.739,4.324,1056.213,0.039,0.929
0.933000,863184,1000.00,12,0,1,1357.792,3.412,4.299,1055.757,-0.325,0.930
0.934000,863185,1000.00,12,0,1,1358.393,3.941,4.332,1056.141,-0.112,0.898
0.935000,863186,1000.00,12,0,1,1352.412,0.036,4.139,1055.709,-0.192,0.895
0.936000,863187,1000.00,12,0,1,1346.335,-5.824,3.948,1057.102,0.604,0.897
0.937000,863188,1000.00,12,0,1,1346.959,-4.069,3.891,1056.333,0.593,0.897
0.938000,863189,1000.00,12,0,1,1351.763,1.179,3.885,1055.324,-0.922,0.900
0.939000,863190,1000.00,12,0,1,1352.100,2.498,3.901,1057.174,0.764,0.875
0.940000,863191,1000.00,12,0,1,1351.403,0.779,3.894,1057.870,1.689,0.907
0.941000,863192,1000.00,12,0,1,1357.312,4.751,3.944,1056.621,0.243,0.906
0.942000,863193,1000.00,12,0,1,1361.996,8.432,4.118,1057.102,0.314,0.902
0.943000,863194,1000.00,12,0,1,1359.882,4.513,4.159,1056.309,-0.066,0.896
0.944000,863195,1000.00,12,0,1,1353.637,-2.744,4.116,1054.435,-1.928,0.925
0.945000,863196,1000.00,12,0,1,1354.742,-4.031,4.140,1056.165,-0.650,0.910
0.946000,863197,1000.00,12,0,1,1357.384,-0.942,4.141,1054.532,-0.958,0.876
0.947000,863198,1000.00,12,0,1,1360.819,0.737,4.138,1055.012,-1.600,0.900
0.948000,863199,1000.00,12,0,1,1355.390,-2.740,4.113,1054.772,-0.516,0.900
0.949000,863200,1000.00,12,0,1,1350.226,-8.834,4.271,1057.270,0.630,0.889
0.950000,863201,1000.00,12,0,1,1350.947,-6.485,4.302,1056.405,1.177,0.840
0.951000,863202,1000.00,12,0,1,1354.069,-2.296,4.282,1057.726,0.754,0.844
0.952000,863203,1000.00,12,0,1,1357.865,2.282,4.271,1056.453,0.835,0.850
0.953000,863204,1000.00,12,0,1,1353.253,0.236,4.269,1055.204,-1.403,0.866
0.954000,863205,1000.00,12,0,1,1349.914,-3.496,4.252,1055.420,-0.699,0.866
0.955000,863206,1000.00,12,0,1,1353.709,1.478,4.257,1055.204,-0.720,0.870
0.956000,863207,1000.00,12,0,1,1355.991,4.522,4.301,1055.564,-0.498,0.872
0.957000,863208,1000.00,12,0,1,1352.580,1.993,4.258,1055.805,0.203,0.871
0.958000,863209,1000.00,12,0,1,1350.442,-0.707,4.216,1056.934,0.758,0.877
0.959000,863210,1000.00,12,0,1,1347.103,-2.725,4.231,1056.141,0.739,0.882
0.960000,863211,1000.00,12,0,1,1347.872,-2.946,4.247,1055.805,-0.358,0.883
0.961000,863212,1000.00,12,0,1,1351.235,0.763,4.248,1058.015,1.826,0.920
0.962000,863213,1000.00,12,0,1,1355.198,3.360,4.263,1057.342,1.406,0.933
0.963000,863214,1000.00,12,0,1,1355.150,2.922,4.220,1055.180,-0.956,0.920
0.964000,863215,1000.00,12,0,1,1356.471,1.924,4.198,1055.348,-0.971,0.903
0.965000,863216,1000.00,12,0,1,1354.622,0.188,4.189,1057.702,1.181,0.886
0.966000,863217,1000.00,12,0,1,1354.285,-1.943,4.114,1058.519,2.092,0.934
0.967000,863218,1000.00,12,0,1,1356.519,0.070,3.894,1055.877,-0.427,0.934
0.968000,863219,1000.00,12,0,1,1350.586,-4.213,3.789,1055.252,-1.613,0.961
0.969000,863220,1000.00,12,0,1,1350.514,-5.846,3.842,1055.324,-0.972,0.968
0.970000,863221,1000.00,12,0,1,1349.145,-3.720,3.878,1055.204,-1.155,0.969
0.971000,863222,1000.00,12,0,1,1348.977,-4.301,3.925,1054.580,-1.317,0.985
0.972000,863223,1000.00,12,0,1,1349.866,-0.826,3.926,1054.507,-1.388,1.003
0.973000,863224,1000.00,12,0,1,1344.869,-3.753,3.866,1054.195,-1.205,0.989
0.974000,863225,1000.00,12,0,1,1341.386,-5.859,3.663,1054.964,-0.558,0.972
0.975000,863226,1000.00,12,0,1,1344.269,-1.501,3.529,1056.573,1.122,0.985
0.976000,863227,1000.00,12,0,1,1351.667,6.122,3.632,1055.660,0.602,0.965
0.977000,863228,1000.00,12,0,1,1352.436,8.267,3.775,1057.342,1.228,0.974
0.978000,863229,1000.00,12,0,1,1349.553,4.099,3.769,1055.180,0.432,0.976
0.979000,863230,1000.00,12,0,1,1347.223,1.804,3.777,1056.501,-0.054,0.976
0.980000,863231,1000.00,12,0,1,1350.058,2.828,3.797,1054.988,0.320,0.977
0.981000,863232,1000.00,12,0,1,1354.117,6.300,3.896,1056.525,-0.057,0.976
0.982000,863233,1000.00,12,0,1,1358.465,8.107,4.054,1055.685,0.857,0.983
0.983000,863234,1000.00,12,0,1,1356.832,5.724,4.105,1056.958,0.430,0.984
0.984000,863235,1000.00,12,0,1,1352.412,-0.693,4.068,1057.870,2.200,1.032
0.985000,863236,1000.00,12,0,1,1354.069,-0.836,4.070,1056.934,0.723,1.037
0.986000,863237,1000.00,12,0,1,1357.456,2.079,3.997,1055.805,-0.439,1.035
0.987000,863238,1000.00,12,0,1,1358.849,2.355,3.969,1055.156,-0.925,1.040
0.988000,863239,1000.00,12,0,1,1359.402,2.242,3.978,1055.084,-1.119,1.044
0.989000,863240,1000.00,12,0,1,1363.293,4.421,4.012,1055.612,-0.248,1.039
0.990000,863241,1000.00,12,0,1,1363.389,5.019,4.072,1056.741,0.489,1.013
0.991000,863242,1000.00,12,0,1,1355.583,-2.363,4.031,1057.606,1.527,1.036
0.992000,863243,1000.00,12,0,1,1344.797,-11.319,4.170,1056.621,0.364,1.036
0.993000,863244,1000.00,12,0,1,1342.299,-12.614,4.490,1055.805,-0.543,1.039
0.994000,863245,1000.00,12,0,1,1348.737,-4.218,4.513,1055.853,-0.581,1.006
0.995000,863246,1000.00,12,0,1,1351.931,1.236,4.480,1056.093,-0.222,1.002
0.996000,863247,1000.00,12,0,1,1353.325,2.453,4.492,1055.636,-0.563,0.996
0.997000,863248,1000.00,12,0,1,1350.298,0.845,4.492,1055.156,-0.967,0.979
0.998000,863249,1000.00,12,0,1,1346.166,-3.610,4.504,1057.462,0.824,0.984
0.999000,863250,1000.00,12,0,1,1350.995,0.172,4.328,1057.630,1.580,1.005
1.000000,863251,1000.00,12,0,1,1347.824,-0.681,4.230,1057.870,0.922,0.999
1.001000,863252,1000.00,12,0,1,1346.935,-4.167,4.259,1055.444,-0.597,0.997
1.002000,863253,1000.00,12,0,1,1349.193,-0.959,4.249,1055.300,-1.696,1.019
1.003000,863254,1000.00,12,0,1,1351.835,0.130,4.249,1056.453,0.145,1.000
1.004000,863255,1000.00,12,0,1,1353.565,1.560,4.226,1055.685,-0.518,0.997
1.005000,863256,1000.00,12,0,1,1355.030,1.658,4.227,1055.853,-0.562,0.995
1.006000,863257,1000.00,12,0,1,1355.222,1.304,4.182,1057.822,1.313,1.010
1.007000,863258,1000.00,12,0,1,1355.823,1.047,4.175,1056.645,0.564,1.013
1.008000,863259,1000.00,12,0,1,1354.838,0.181,4.174,1055.853,-0.729,1.012
1.009000,863260,1000.00,12,0,1,1356.471,1.114,4.159,1057.582,0.803,1.013
1.010000,863261,1000.00,12,0,1,1356.640,2.136,4.150,1057.990,1.419,1.032
1.011000,863262,1000.00,12,0,1,1355.559,1.143,4.151,1057.102,0.198,0.999
1.012000,863263,1000.00,12,0,1,1355.967,1.841,4.132,1056.333,-0.514,0.982
1.013000,863264,1000.00,12,0,1,1355.703,2.429,4.126,1057.342,0.047,0.973
1.014000,863265,1000.00,12,0,1,1354.117,1.254,4.121,1056.597,-0.069,0.963
1.015000,863266,1000.00,12,0,1,1349.409,-1.897,4.129,1053.739,-2.790,1.027
1.016000,863267,1000.00,12,0,1,1344.029,-6.308,4.216,1056.862,-0.524,0.987
1.017000,863268,1000.00,12,0,1,1346.959,-3.297,4.241,1055.276,-0.192,0.985
1.018000,863269,1000.00,12,0,1,1349.890,1.120,4.202,1055.853,-1.285,0.975
1.019000,863270,1000.00,12,0,1,1349.674,0.578,4.121,1057.822,1.703,0.995
1.020000,863271,1000.00,12,0,1,1353.229,2.740,4.105,1057.198,0.701,0.987
1.021000,863272,1000.00,12,0,1,1349.385,0.054,4.060,1057.654,0.785,0.975
1.022000,863273,1000.00,12,0,1,1347.560,-4.214,4.102,1057.054,0.529,0.958
1.023000,863274,1000.00,12,0,1,1355.943,2.808,4.087,1058.063,0.631,0.947
1.024000,863275,1000.00,12,0,1,1360.002,6.422,4.104,1057.966,1.182,0.959
1.025000,863276,1000.00,12,0,1,1355.823,1.067,4.101,1057.558,0.014,0.945
1.026000,863277,1000.00,12,0,1,1353.325,-2.808,4.028,1056.381,-0.562,0.945
1.027000,863278,1000.00,12,0,1,1354.261,-2.130,3.867,1057.030,-0.619,0.933
1.028000,863279,1000.00,12,0,1,1358.849,1.695,3.830,1057.294,0.278,0.932
1.029000,863280,1000.00,12,0,1,1361.852,4.833,3.883,1058.015,0.400,0.933
1.030000,863281,1000.00,12,0,1,1359.738,2.791,3.882,1057.486,0.332,0.933
1.031000,863282,1000.00,12,0,1,1357.817,0.557,3.779,1056.741,-0.730,0.939
1.032000,863283,1000.00,12,0,1,1356.664,0.247,3.601,1055.853,-1.270,0.948
1.033000,863284,1000.00,12,0,1,1355.246,-0.499,3.510,1053.090,-3.311,1.056
1.034000,863285,1000.00,12,0,1,1342.107,-9.407,3.752,1052.730,-3.741,1.139
1.035000,863286,1000.00,12,0,1,1344.245,-9.489,3.983,1054.459,-1.253,1.149
1.036000,863287,1000.00,12,0,1,1354.430,4.082,4.014,1056.237,0.508,1.149
1.037000,863288,1000.00,12,0,1,1350.298,1.517,4.006,1056.621,1.217,1.155
1.038000,863289,1000.00,12,0,1,1348.689,-1.738,4.001,1054.027,-1.049,1.153
1.039000,863290,1000.00,12,0,1,1351.931,2.034,3.962,1054.459,-1.185,1.165
1.040000,863291,1000.00,12,0,1,1360.699,7.794,4.051,1056.910,1.542,1.183
1.041000,863292,1000.00,12,0,1,1361.756,9.240,4.243,1057.174,1.816,1.191
1.042000,863293,1000.00,12,0,1,1354.237,-0.616,3.931,1056.886,1.155,1.201
1.043000,863294,1000.00,12,0,1,1354.358,-2.755,3.524,1057.750,1.650,1.221
1.044000,863295,1000.00,12,0,1,1355.030,-1.837,3.483,1056.525,0.718,1.223
1.045000,863296,1000.00,12,0,1,1357.096,-1.609,3.486,1056.501,0.022,1.222
1.046000,863297,1000.00,12,0,1,1362.717,3.123,3.497,1055.180,-0.516,1.222
1.047000,863298,1000.00,12,0,1,1367.689,6.584,3.617,1056.910,0.188,1.215
1.048000,863299,1000.00,12,0,1,1367.113,5.444,3.662,1057.390,1.596,1.230
1.049000,863300,1000.00,12,0,1,1360.507,-1.303,3.667,1057.582,0.939,1.217
1.050000,863301,1000.00,12,0,1,1356.543,-5.422,3.745,1056.381,0.332,1.211
1.051000,863302,1000.00,12,0,1,1358.561,-2.650,3.717,1055.853,-0.691,1.212
1.052000,863303,1000.00,12,0,1,1356.255,-2.533,3.732,1055.564,-0.559,1.190
1.053000,863304,1000.00,12,0,1,1354.670,-3.742,3.769,1057.486,0.808,1.195
1.054000,863305,1000.00,12,0,1,1350.346,-5.013,3.829,1056.045,0.268,1.194
1.055000,863306,1000.00,12,0,1,1347.247,-7.241,3.957,1054.724,-1.642,1.214
1.056000,863307,1000.00,12,0,1,1345.158,-6.633,4.062,1058.615,1.615,1.221
1.057000,863308,1000.00,12,0,1,1344.365,-6.187,4.153,1057.582,1.755,1.243
1.058000,863309,1000.00,12,0,1,1346.791,-2.831,4.172,1055.180,-1.712,1.262
1.059000,863310,1000.00,12,0,1,1349.361,0.362,4.169,1054.556,-1.707,1.280
1.060000,863311,1000.00,12,0,1,1349.553,0.393,4.159,1056.573,-0.348,1.265
1.061000,863312,1000.00,12,0,1,1348.905,-0.662,4.157,1056.381,0.409,1.266
1.062000,863313,1000.00,12,0,1,1350.778,-0.070,4.148,1058.567,1.203,1.276
1.063000,863314,1000.00,12,0,1,1357.744,5.077,4.196,1058.543,2.074,1.309
1.064000,863315,1000.00,12,0,1,1360.147,6.752,4.300,1059.480,1.533,1.327
1.065000,863316,1000.00,12,0,1,1359.354,3.776,4.324,1057.006,0.181,1.267
1.066000,863317,1000.00,12,0,1,1359.162,2.362,4.245,1056.621,-1.472,1.282
1.067000,863318,1000.00,12,0,1,1355.270,-1.313,4.223,1058.687,0.979,1.289
1.068000,863319,1000.00,12,0,1,1350.730,-5.722,4.297,1057.582,0.246,1.277
1.069000,863320,1000.00,12,0,1,1355.655,-1.258,4.300,1057.150,-0.810,1.259
1.070000,863321,1000.00,12,0,1,1357.408,2.870,4.302,1058.039,0.449,1.257
1.071000,863322,1000.00,12,0,1,1348.857,-3.827,4.335,1056.886,-0.598,1.255
1.072000,863323,1000.00,12,0,1,1345.902,-6.337,4.387,1057.366,-0.392,1.254
1.073000,863324,1000.00,12,0,1,1346.263,-2.929,4.388,1059.336,1.414,1.266
1.074000,863325,1000.00,12,0,1,1344.677,-2.686,4.310,1057.702,0.358,1.256
1.075000,863326,1000.00,12,0,1,1342.203,-3.001,4.328,1056.141,-1.783,1.281
1.076000,863327,1000.00,12,0,1,1347.920,2.138,4.321,1058.255,0.162,1.279
1.077000,863328,1000.00,12,0,1,1352.580,8.148,4.462,1057.390,-0.003,1.276
1.078000,863329,1000.00,12,0,1,1351.331,5.963,4.534,1057.366,-0.845,1.281
1.079000,863330,1000.00,12,0,1,1349.986,3.409,4.508,1056.333,-1.019,1.288
1.080000,863331,1000.00,12,0,1,1350.442,2.610,4.506,1058.015,-0.406,1.288
1.081000,863332,1000.00,12,0,1,1351.235,2.074,4.515,1058.567,1.003,1.292
1.082000,863333,1000.00,12,0,1,1351.859,1.427,4.519,1056.862,-1.032,1.288
1.083000,863334,1000.00,12,0,1,1351.739,0.043,4.519,1057.222,-0.893,1.206
1.084000,863335,1000.00,12,0,1,1349.938,-2.272,4.330,1059.095,0.959,1.092
1.085000,863336,1000.00,12,0,1,1351.307,-2.297,4.130,1057.294,-0.291,1.079
1.086000,863337,1000.00,12,0,1,1354.646,0.888,4.091,1057.606,-0.763,1.082
1.087000,863338,1000.00,12,0,1,1364.230,7.843,4.234,1059.504,1.377,1.085
1.088000,863339,1000.00,12,0,1,1366.176,10.575,4.483,1057.414,-0.161,1.076
1.089000,863340,1000.00,12,0,1,1364.158,5.975,4.553,1057.222,-1.137,1.074
1.090000,863341,1000.00,12,0,1,1359.330,2.021,4.427,1056.069,-1.082,1.063
1.091000,863342,1000.00,12,0,1,1354.213,-3.168,4.253,1056.189,-1.598,1.056
1.092000,863343,1000.00,12,0,1,1354.237,-2.409,4.266,1059.312,1.704,1.071
1.093000,863344,1000.00,12,0,1,1350.947,-2.988,4.269,1058.255,1.238,1.060
1.094000,863345,1000.00,12,0,1,1349.025,-4.596,4.311,1056.117,-1.317,1.071
1.095000,863346,1000.00,12,0,1,1347.800,-3.297,4.330,1056.429,-0.907,1.079
1.096000,863347,1000.00,12,0,1,1348.112,-2.766,4.325,1054.003,-2.356,1.127
1.097000,863348,1000.00,12,0,1,1349.698,-0.088,4.224,1054.652,-2.339,1.174
1.098000,863349,1000.00,12,0,1,1353.060,2.380,4.166,1054.507,-1.129,1.163
1.099000,863350,1000.00,12,0,1,1354.526,3.639,4.194,1056.021,-0.441,1.157
1.100000,863351,1000.00,12,0,1,1355.246,2.535,4.139,1056.886,1.227,1.169
1.101000,863352,1000.00,12,0,1,1355.222,1.342,4.126,1057.054,0.820,1.171
1.102000,863353,1000.00,12,0,1,1357.552,1.376,4.115,1058.687,2.098,1.205
1.103000,863354,1000.00,12,0,1,1356.736,0.031,4.081,1058.159,1.780,1.226
1.104000,863355,1000.00,12,0,1,1355.294,-3.109,4.043,1056.525,-0.311,1.226
1.105000,863356,1000.00,12,0,1,1355.919,-3.127,3.936,1056.357,-0.427,1.205
1.106000,863357,1000.00,12,0,1,1359.714,-0.359,3.823,1056.141,-0.506,1.186
1.107000,863358,1000.00,12,0,1,1355.919,-2.570,3.739,1056.261,-0.287,1.160
1.108000,863359,1000.00,12,0,1,1359.474,-1.498,3.724,1057.174,0.574,1.138
1.109000,863360,1000.00,12,0,1,1363.702,4.572,3.779,1057.606,1.167,1.124
1.110000,863361,1000.00,12,0,1,1367.761,6.906,3.903,1057.534,0.944,1.131
1.111000,863362,1000.00,12,0,1,1360.747,2.633,3.919,1058.207,1.393,1.146
1.112000,863363,1000.00,12,0,1,1354.910,-4.405,3.969,1056.381,0.086,1.134
1.113000,863364,1000.00,12,0,1,1352.940,-3.913,3.942,1055.805,-1.026,1.105
1.114000,863365,1000.00,12,0,1,1353.517,-2.474,3.841,1057.366,0.700,1.088
1.115000,863366,1000.00,12,0,1,1354.718,0.038,3.803,1058.495,1.687,1.113
1.116000,863367,1000.00,12,0,1,1358.033,3.295,3.817,1056.525,0.066,1.094
1.117000,863368,1000.00,12,0,1,1354.213,0.835,3.815,1057.846,0.257,1.085
1.118000,863369,1000.00,12,0,1,1350.634,-3.663,3.764,1058.303,1.397,1.103
1.119000,863370,1000.00,12,0,1,1351.475,-2.942,3.782,1056.765,-0.585,1.100
1.120000,863371,1000.00,12,0,1,1354.141,-0.705,3.762,1056.549,-0.940,1.106
1.121000,863372,1000.00,12,0,1,1356.832,0.790,3.724,1057.342,-0.174,1.103
1.122000,863373,1000.00,12,0,1,1358.393,1.345,3.620,1054.940,-1.894,1.134
1.123000,863374,1000.00,12,0,1,1358.681,0.021,3.596,1056.910,-1.005,1.125
1.124000,863375,1000.00,12,0,1,1360.507,0.386,3.576,1056.837,0.279,1.125
1.125000,863376,1000.00,12,0,1,1359.690,-0.900,3.554,1058.735,0.733,1.101
1.126000,863377,1000.00,12,0,1,1359.762,-1.994,3.552,1057.534,0.881,1.108
1.127000,863378,1000.00,12,0,1,1362.236,0.117,3.360,1057.486,-0.462,1.110
1.128000,863379,1000.00,12,0,1,1365.647,3.042,3.280,1058.567,1.149,1.115
1.129000,863380,1000.00,12,0,1,1360.867,-0.110,3.245,1057.534,0.165,1.106
1.130000,863381,1000.00,12,0,1,1361.275,-1.243,3.229,1059.047,0.847,1.111
1.131000,863382,1000.00,12,0,1,1363.389,2.887,3.241,1058.039,0.904,1.109
1.132000,863383,1000.00,12,0,1,1364.110,3.456,3.272,1057.246,-0.894,1.107
1.133000,863384,1000.00,12,0,1,1364.038,4.144,3.324,1056.525,-0.662,1.104
1.134000,863385,1000.00,12,0,1,1355.751,-1.958,3.320,1056.813,-0.972,1.104
1.135000,863386,1000.00,12,0,1,1346.983,-9.905,3.588,1056.045,-0.795,1.109
1.136000,863387,1000.00,12,0,1,1337.495,-15.230,4.183,1056.501,-0.930,1.111
1.137000,863388,1000.00,12,0,1,1331.154,-19.130,4.857,1056.693,-0.084,1.094
1.138000,863389,1000.00,12,0,1,1337.063,-11.209,4.885,1058.711,1.097,1.105
1.139000,863390,1000.00,12,0,1,1347.103,0.418,4.812,1056.717,0.177,1.093
1.140000,863391,1000.00,12,0,1,1356.591,8.798,4.962,1056.213,-1.453,1.102
1.141000,863392,1000.00,12,0,1,1361.348,12.053,5.227,1056.045,-0.777,1.084
1.142000,863393,1000.00,12,0,1,1363.726,10.969,5.442,1056.381,-0.860,1.064
1.143000,863394,1000.00,12,0,1,1359.954,5.812,5.488,1057.294,0.219,1.050
1.144000,863395,1000.00,12,0,1,1356.159,-0.763,5.450,1058.495,1.195,1.047
1.145000,863396,1000.00,12,0,1,1360.002,1.154,5.432,1059.143,1.599,1.063
1.146000,863397,1000.00,12,0,1,1365.791,5.808,5.480,1057.654,0.358,1.011
1.147000,863398,1000.00,12,0,1,1368.674,7.251,5.575,1056.093,-1.507,0.979
1.148000,863399,1000.00,12,0,1,1372.517,9.010,5.709,1058.231,0.377,0.967
1.149000,863400,1000.00,12,0,1,1374.487,9.946,5.857,1058.135,0.939,0.974
1.150000,863401,1000.00,12,0,1,1371.244,6.173,5.911,1057.846,0.124,0.959
1.151000,863402,1000.00,12,0,1,1362.525,-1.738,5.913,1057.894,0.449,0.954
1.152000,863403,1000.00,12,0,1,1357.480,-6.292,5.977,1056.213,-0.919,0.916
1.153000,863404,1000.00,12,0,1,1353.181,-7.515,6.070,1056.765,-0.774,0.888
1.154000,863405,1000.00,12,0,1,1354.045,-5.759,6.109,1057.078,0.235,0.887
1.155000,863406,1000.00,12,0,1,1354.382,-2.457,6.103,1057.966,0.545,0.888
1.156000,863407,1000.00,12,0,1,1352.244,-3.568,6.124,1056.453,-0.100,0.886
1.157000,863408,1000.00,12,0,1,1350.490,-4.192,6.141,1057.654,-0.081,0.885
1.158000,863409,1000.00,12,0,1,1352.700,-2.122,6.145,1058.279,1.351,0.902
1.159000,863410,1000.00,12,0,1,1357.648,2.214,6.119,1057.126,-0.284,0.887
1.160000,863411,1000.00,12,0,1,1359.762,3.553,6.061,1056.862,-0.602,0.881
1.161000,863412,1000.00,12,0,1,1361.131,2.495,6.060,1057.174,-0.302,0.860
1.162000,863413,1000.00,12,0,1,1370.836,8.253,6.140,1058.687,0.758,0.867
1.163000,863414,1000.00,12,0,1,1370.716,7.677,6.211,1056.741,-0.347,0.856
1.164000,863415,1000.00,12,0,1,1362.957,-3.037,6.216,1056.958,-1.270,0.869
1.165000,863416,1000.00,12,0,1,1362.909,-5.116,6.258,1057.702,0.326,0.837
1.166000,863417,1000.00,12,0,1,1366.320,-1.905,6.246,1058.015,0.087,0.837
1.167000,863418,1000.00,12,0,1,1364.951,-2.894,6.258,1056.982,-0.338,0.837
1.168000,863419,1000.00,12,0,1,1363.605,-4.186,6.265,1056.405,-1.200,0.831
1.169000,863420,1000.00,12,0,1,1358.945,-6.501,6.318,1057.294,-0.119,0.827
1.170000,863421,1000.00,12,0,1,1353.084,-10.276,6.483,1057.894,0.658,0.822
1.171000,863422,1000.00,12,0,1,1351.835,-8.967,6.605,1057.702,0.458,0.824
1.172000,863423,1000.00,12,0,1,1354.454,-3.608,6.621,1057.390,0.238,0.780
1.173000,863424,1000.00,12,0,1,1356.207,0.559,6.622,1057.342,0.104,0.767
1.174000,863425,1000.00,12,0,1,1358.873,4.150,6.648,1057.846,0.622,0.771
1.175000,863426,1000.00,12,0,1,1359.762,6.072,6.702,1056.597,-0.294,0.765
1.176000,863427,1000.00,12,0,1,1356.303,3.162,6.711,1057.654,0.105,0.755
1.177000,863428,1000.00,12,0,1,1359.594,4.436,6.740,1055.492,-0.839,0.762
1.178000,863429,1000.00,12,0,1,1362.597,7.617,6.812,1055.012,-2.219,0.807
1.179000,863430,1000.00,12,0,1,1353.036,-1.677,6.816,1056.285,-0.246,0.808
1.180000,863431,1000.00,12,0,1,1348.376,-8.543,6.920,1056.621,0.007,0.799
1.181000,863432,1000.00,12,0,1,1354.502,-3.023,6.921,1055.492,-0.808,0.797
1.182000,863433,1000.00,12,0,1,1360.026,1.837,6.909,1055.829,-0.771,0.794
1.183000,863434,1000.00,12,0,1,1364.518,4.129,6.909,1057.822,1.097,0.804
1.184000,863435,1000.00,12,0,1,1373.166,9.494,7.032,1057.246,0.947,0.803
1.185000,863436,1000.00,12,0,1,1375.640,10.527,7.050,1056.549,-0.335,0.797
1.186000,863437,1000.00,12,0,1,1362.909,-2.263,6.721,1056.886,0.226,0.786
1.187000,863438,1000.00,12,0,1,1359.234,-8.679,6.274,1057.582,0.643,0.792
1.188000,863439,1000.00,12,0,1,1364.350,-1.869,6.076,1058.375,1.436,0.802
1.189000,863440,1000.00,12,0,1,1362.236,-2.062,6.083,1057.246,0.468,0.805
1.190000,863441,1000.00,12,0,1,1356.640,-6.096,6.016,1055.468,-1.260,0.798
1.191000,863442,1000.00,12,0,1,1364.758,1.270,5.772,1056.717,-0.285,0.792
1.192000,863443,1000.00,12,0,1,1369.851,9.341,5.715,1056.717,0.464,0.785
1.193000,863444,1000.00,12,0,1,1377.225,13.642,5.975,1057.126,0.348,0.786
1.194000,863445,1000.00,12,0,1,1380.156,17.109,6.446,1057.342,0.965,0.780
1.195000,863446,1000.00,12,0,1,1380.036,13.555,6.723,1056.621,0.111,0.746
1.196000,863447,1000.00,12,0,1,1377.634,9.878,6.817,1055.949,-0.475,0.748
1.197000,863448,1000.00,12,0,1,1378.931,7.617,6.825,1056.958,0.265,0.717
1.198000,863449,1000.00,12,0,1,1381.093,7.719,6.793,1056.597,0.304,0.717
1.199000,863450,1000.00,12,0,1,1380.228,4.376,6.675,1057.774,0.709,0.711
1.200000,863451,1000.00,12,0,1,1379.123,0.275,6.618,1057.702,1.066,0.727
1.201000,863452,1000.00,12,0,1,1378.042,-2.531,6.623,1056.837,-0.287,0.725
1.202000,863453,1000.00,12,0,1,1374.343,-7.686,6.652,1056.645,-0.492,0.717
1.203000,863454,1000.00,12,0,1,1367.329,-14.338,6.873,1056.862,-0.346,0.710
1.204000,863455,1000.00,12,0,1,1361.804,-19.575,7.364,1054.411,-2.134,0.771
1.205000,863456,1000.00,12,0,1,1364.110,-16.330,7.710,1056.093,-1.338,0.790
1.206000,863457,1000.00,12,0,1,1360.050,-16.347,8.033,1056.165,0.022,0.790
1.207000,863458,1000.00,12,0,1,1355.535,-19.269,8.462,1056.645,-0.327,0.791
1.208000,863459,1000.00,12,0,1,1348.208,-20.987,8.963,1057.870,1.288,0.789
1.209000,863460,1000.00,12,0,1,1342.443,-23.022,9.531,1057.006,0.515,0.792
1.210000,863461,1000.00,12,0,1,1344.389,-16.415,9.796,1056.934,0.051,0.787
1.211000,863462,1000.00,12,0,1,1347.704,-8.385,9.862,1056.021,-0.207,0.786
1.212000,863463,1000.00,12,0,1,1350.394,-2.658,9.799,1054.940,-1.464,0.806
1.213000,863464,1000.00,12,0,1,1350.130,0.414,9.739,1056.141,-0.104,0.805
1.214000,863465,1000.00,12,0,1,1348.424,0.384,9.730,1057.438,1.253,0.804
1.215000,863466,1000.00,12,0,1,1353.301,5.630,9.736,1056.621,0.711,0.809
1.216000,863467,1000.00,12,0,1,1351.067,6.064,9.770,1056.261,-0.049,0.809
1.217000,863468,1000.00,12,0,1,1347.055,1.301,9.763,1056.165,0.106,0.808
1.218000,863469,1000.00,12,0,1,1345.038,0.489,9.745,1054.796,-1.074,0.804
1.219000,863470,1000.00,12,0,1,1348.953,3.224,9.712,1055.492,-0.723,0.811
1.220000,863471,1000.00,12,0,1,1351.547,6.489,9.647,1058.927,2.384,0.873
1.221000,863472,1000.00,12,0,1,1352.556,5.927,9.600,1056.549,0.906,0.880
1.222000,863473,1000.00,12,0,1,1353.829,6.194,9.626,1055.348,-1.522,0.905
1.223000,863474,1000.00,12,0,1,1357.144,7.676,9.687,1057.486,0.818,0.913
1.224000,863475,1000.00,12,0,1,1361.588,10.298,9.778,1056.741,0.381,0.910
1.225000,863476,1000.00,12,0,1,1362.260,9.893,9.840,1055.564,-1.130,0.923
1.226000,863477,1000.00,12,0,1,1364.686,9.466,9.921,1056.693,-0.069,0.923
1.227000,863478,1000.00,12,0,1,1363.966,8.757,9.978,1056.910,0.402,0.917
1.228000,863479,1000.00,12,0,1,1359.954,3.528,9.932,1057.702,0.790,0.869
1.229000,863480,1000.00,12,0,1,1357.624,1.362,9.931,1057.606,0.950,0.878
1.230000,863481,1000.00,12,0,1,1356.399,0.659,9.858,1055.781,-0.775,0.885
1.231000,863482,1000.00,12,0,1,1357.744,2.271,9.854,1056.837,-0.233,0.878
1.232000,863483,1000.00,12,0,1,1363.605,7.669,9.910,1057.054,0.711,0.877
1.233000,863484,1000.00,12,0,1,1367.545,11.390,10.023,1055.588,-0.874,0.872
1.234000,863485,1000.00,12,0,1,1362.356,6.323,9.973,1055.877,-0.601,0.866
1.235000,863486,1000.00,12,0,1,1359.786,1.649,9.864,1056.333,0.119,0.865
1.236000,863487,1000.00,12,0,1,1357.600,0.252,9.859,1056.117,-0.064,0.865
1.237000,863488,1000.00,12,0,1,1355.607,-2.764,9.790,1056.405,0.136,0.860
1.238000,863489,1000.00,12,0,1,1353.036,-4.675,9.809,1055.204,-0.660,0.841
1.239000,863490,1000.00,12,0,1,1354.141,-4.760,9.827,1055.324,-0.949,0.849
1.240000,863491,1000.00,12,0,1,1353.301,-4.628,9.811,1056.525,0.439,0.832
1.241000,863492,1000.00,12,0,1,1349.433,-8.592,9.885,1055.853,-0.051,0.831
1.242000,863493,1000.00,12,0,1,1353.349,-5.968,9.832,1057.438,0.720,0.835
1.243000,863494,1000.00,12,0,1,1363.365,3.323,9.653,1056.621,0.713,0.840
1.244000,863495,1000.00,12,0,1,1365.215,4.976,9.371,1057.342,0.200,0.829
1.245000,863496,1000.00,12,0,1,1364.758,2.309,9.179,1056.934,0.648,0.834
1.246000,863497,1000.00,12,0,1,1366.392,2.872,9.081,1057.270,0.027,0.831
1.247000,863498,1000.00,12,0,1,1368.049,3.605,9.031,1057.198,0.515,0.833
1.248000,863499,1000.00,12,0,1,1368.049,3.116,8.976,1057.294,0.123,0.833
1.249000,863500,1000.00,12,0,1,1368.626,3.041,8.965,1056.693,-0.096,0.827
1.250000,863501,1000.00,12,0,1,1371.244,5.006,8.992,1056.958,-0.126,0.813
1.251000,863502,1000.00,12,0,1,1372.013,5.863,9.023,1056.741,0.014,0.812
1.252000,863503,1000.00,12,0,1,1361.396,-2.740,8.966,1056.045,-0.597,0.813
1.253000,863504,1000.00,12,0,1,1356.111,-8.767,8.821,1055.781,-0.780,0.819
1.254000,863505,1000.00,12,0,1,1355.270,-6.659,8.429,1055.853,-0.424,0.764
1.255000,863506,1000.00,12,0,1,1355.919,-5.221,8.140,1055.925,-0.324,0.742
1.256000,863507,1000.00,12,0,1,1357.985,-1.923,7.809,1054.532,-1.118,0.758
1.257000,863508,1000.00,12,0,1,1362.693,2.198,7.325,1054.844,-1.219,0.776
1.258000,863509,1000.00,12,0,1,1370.403,8.268,6.798,1056.910,1.050,0.769
1.259000,863510,1000.00,12,0,1,1369.394,7.041,6.050,1057.102,1.268,0.786
1.260000,863511,1000.00,12,0,1,1365.431,0.143,5.587,1055.492,-0.349,0.788
1.261000,863512,1000.00,12,0,1,1367.329,0.210,5.460,1056.621,0.084,0.787
1.262000,863513,1000.00,12,0,1,1360.867,-5.287,5.498,1055.420,-0.240,0.760
1.263000,863514,1000.00,12,0,1,1353.493,-13.614,5.825,1057.270,0.232,0.761
1.264000,863515,1000.00,12,0,1,1363.221,-5.611,5.878,1056.453,0.723,0.747
1.265000,863516,1000.00,12,0,1,1378.546,9.341,5.972,1055.997,-0.878,0.751
1.266000,863517,1000.00,12,0,1,1381.381,11.416,6.127,1056.141,-0.059,0.751
1.267000,863518,1000.00,12,0,1,1375.280,3.691,6.146,1055.540,-0.752,0.758
1.268000,863519,1000.00,12,0,1,1370.547,-1.989,6.152,1056.045,-0.294,0.744
1.269000,863520,1000.00,12,0,1,1365.839,-5.453,6.184,1056.934,0.813,0.746
1.270000,863521,1000.00,12,0,1,1375.015,1.460,6.119,1057.054,0.819,0.675
1.271000,863522,1000.00,12,0,1,1370.307,2.169,6.069,1055.925,0.062,0.663
1.272000,863523,1000.00,12,0,1,1356.375,-11.987,6.240,1055.252,-0.827,0.638
1.273000,863524,1000.00,12,0,1,1346.455,-17.729,6.637,1054.892,-0.663,0.634
1.274000,863525,1000.00,12,0,1,1344.509,-16.933,6.903,1055.781,-0.047,0.632
1.275000,863526,1000.00,12,0,1,1347.199,-10.415,6.919,1057.414,1.715,0.658
1.276000,863527,1000.00,12,0,1,1349.457,-5.406,6.831,1057.246,1.515,0.692
1.277000,863528,1000.00,12,0,1,1349.938,-3.385,6.735,1057.414,1.156,0.708
1.278000,863529,1000.00,12,0,1,1352.916,-0.029,6.716,1056.405,0.388,0.702
1.279000,863530,1000.00,12,0,1,1355.775,2.756,6.725,1057.726,0.708,0.696
1.280000,863531,1000.00,12,0,1,1360.651,6.035,6.778,1057.390,1.011,0.702
1.281000,863532,1000.00,12,0,1,1363.630,7.682,6.857,1056.165,-0.866,0.712
1.282000,863533,1000.00,12,0,1,1366.248,7.666,6.857,1056.213,-0.748,0.713
1.283000,863534,1000.00,12,0,1,1367.857,7.258,6.744,1057.774,0.431,0.704
1.284000,863535,1000.00,12,0,1,1368.169,5.519,6.730,1057.174,0.243,0.700
1.285000,863536,1000.00,12,0,1,1369.202,4.597,6.757,1056.333,-0.979,0.713
1.286000,863537,1000.00,12,0,1,1374.175,7.454,6.839,1057.126,-0.252,0.714
1.287000,863538,1000.00,12,0,1,1379.267,10.977,7.002,1057.102,0.025,0.714
1.288000,863539,1000.00,12,0,1,1375.352,7.054,7.041,1056.093,-0.980,0.721
1.289000,863540,1000.00,12,0,1,1370.596,0.861,7.010,1056.525,-0.567,0.713
1.290000,863541,1000.00,12,0,1,1366.680,-1.629,6.983,1056.693,-0.093,0.711
1.291000,863542,1000.00,12,0,1,1363.485,-3.931,6.899,1057.126,0.223,0.711
1.292000,863543,1000.00,12,0,1,1366.632,-0.165,6.848,1056.717,0.130,0.704
1.293000,863544,1000.00,12,0,1,1364.086,0.225,6.831,1058.207,1.002,0.711
1.294000,863545,1000.00,12,0,1,1361.348,-2.769,6.806,1057.654,1.094,0.727
1.295000,863546,1000.00,12,0,1,1367.785,3.429,6.816,1056.597,-0.498,0.725
1.296000,863547,1000.00,12,0,1,1365.984,3.507,6.822,1056.093,-0.712,0.732
1.297000,863548,1000.00,12,0,1,1358.225,-4.995,6.839,1056.045,-0.825,0.738
1.298000,863549,1000.00,12,0,1,1357.672,-6.150,6.880,1054.748,-1.603,0.771
1.299000,863550,1000.00,12,0,1,1366.224,0.916,6.868,1056.501,-0.501,0.775
1.300000,863551,1000.00,12,0,1,1376.288,9.126,6.952,1056.213,0.165,0.775
1.301000,863552,1000.00,12,0,1,1390.941,18.248,7.369,1056.693,-0.236,0.775
1.302000,863553,1000.00,12,0,1,1385.368,12.591,7.571,1057.414,0.855,0.780
1.303000,863554,1000.00,12,0,1,1368.410,-8.332,7.562,1056.405,-0.224,0.773
1.304000,863555,1000.00,12,0,1,1362.549,-15.224,7.806,1055.805,-0.987,0.783
1.305000,863556,1000.00,12,0,1,1362.428,-13.812,8.012,1055.276,-1.118,0.798
1.306000,863557,1000.00,12,0,1,1364.807,-10.568,8.146,1055.084,-1.349,0.805
1.307000,863558,1000.00,12,0,1,1366.488,-6.578,8.193,1056.549,0.202,0.787
1.308000,863559,1000.00,12,0,1,1368.578,-3.820,8.127,1056.261,0.337,0.774
1.309000,863560,1000.00,12,0,1,1366.728,-2.798,8.076,1055.012,-0.853,0.763
1.310000,863561,1000.00,12,0,1,1361.107,-6.592,8.129,1057.390,0.958,0.773
1.311000,863562,1000.00,12,0,1,1371.773,2.811,8.139,1057.894,2.197,0.833
1.312000,863563,1000.00,12,0,1,1375.928,10.843,8.248,1058.327,1.677,0.865
1.313000,863564,1000.00,12,0,1,1371.700,5.271,8.055,1055.805,0.127,0.865
1.314000,863565,1000.00,12,0,1,1368.914,3.037,8.027,1055.012,-1.585,0.888
1.315000,863566,1000.00,12,0,1,1363.798,-1.265,7.920,1054.075,-1.370,0.900
1.316000,863567,1000.00,12,0,1,1359.594,-5.164,7.788,1056.165,-0.189,0.900
1.317000,863568,1000.00,12,0,1,1360.939,-3.577,7.787,1056.645,1.309,0.913
1.318000,863569,1000.00,12,0,1,1362.404,-1.665,7.785,1056.189,0.206,0.913
1.319000,863570,1000.00,12,0,1,1363.389,-1.194,7.749,1056.862,0.801,0.912
1.320000,863571,1000.00,12,0,1,1362.116,-2.621,7.755,1058.855,2.274,0.960
1.321000,863572,1000.00,12,0,1,1360.531,-4.827,7.779,1057.294,1.047,0.972
1.322000,863573,1000.00,12,0,1,1361.900,-4.185,7.615,1058.231,0.713,0.970
1.323000,863574,1000.00,12,0,1,1365.071,-1.409,7.193,1056.333,-0.142,0.966
1.324000,863575,1000.00,12,0,1,1361.348,-4.076,6.807,1056.549,-1.166,0.980
1.325000,863576,1000.00,12,0,1,1352.340,-11.893,6.856,1057.366,0.352,0.950
1.326000,863577,1000.00,12,0,1,1337.135,-22.570,7.523,1057.078,-0.195,0.926
1.327000,863578,1000.00,12,0,1,1330.865,-25.955,8.357,1056.477,-0.682,0.917
1.328000,863579,1000.00,12,0,1,1330.649,-19.528,8.802,1057.462,0.096,0.915
1.329000,863580,1000.00,12,0,1,1328.343,-16.132,9.084,1057.510,0.398,0.912
1.330000,863581,1000.00,12,0,1,1326.325,-12.830,9.224,1058.567,1.003,0.911
1.331000,863582,1000.00,12,0,1,1324.188,-9.442,9.257,1057.678,0.554,0.906
1.332000,863583,1000.00,12,0,1,1332.186,0.350,9.193,1056.213,-1.096,0.914
1.333000,863584,1000.00,12,0,1,1345.710,16.150,9.417,1056.093,-1.136,0.926
1.334000,863585,1000.00,12,0,1,1352.484,22.743,9.921,1057.006,-0.102,0.925
1.335000,863586,1000.00,12,0,1,1360.651,27.246,10.623,1056.357,-0.407,0.916
1.336000,863587,1000.00,12,0,1,1381.789,41.286,12.076,1056.045,-0.839,0.923
1.337000,863588,1000.00,12,0,1,1391.277,46.505,13.663,1056.862,-0.037,0.923
1.338000,863589,1000.00,12,0,1,1375.376,25.425,14.092,1056.717,0.077,0.913
1.339000,863590,1000.00,12,0,1,1367.329,9.420,14.155,1056.741,-0.229,0.910
1.340000,863591,1000.00,12,0,1,1366.752,6.981,14.187,1056.261,-0.386,0.912
1.341000,863592,1000.00,12,0,1,1371.676,7.066,14.212,1055.997,-0.902,0.920
1.342000,863593,1000.00,12,0,1,1371.244,6.238,14.239,1056.934,0.030,0.920
1.343000,863594,1000.00,12,0,1,1374.030,4.171,14.251,1057.102,0.292,0.910
1.344000,863595,1000.00,12,0,1,1382.342,10.254,14.319,1056.093,-0.653,0.901
1.345000,863596,1000.00,12,0,1,1386.089,11.423,14.402,1055.901,-0.939,0.908
1.346000,863597,1000.00,12,0,1,1380.084,3.962,14.404,1057.318,0.377,0.904
1.347000,863598,1000.00,12,0,1,1375.616,-2.707,14.392,1056.525,0.139,0.897
1.348000,863599,1000.00,12,0,1,1374.655,-3.877,14.376,1054.219,-2.067,0.916
1.349000,863600,1000.00,12,0,1,1370.451,-6.853,14.408,1057.294,0.290,0.914
1.350000,863601,1000.00,12,0,1,1369.491,-8.241,14.398,1057.270,1.583,0.941
1.351000,863602,1000.00,12,0,1,1367.040,-8.102,14.211,1054.243,-1.750,0.972
1.352000,863603,1000.00,12,0,1,1370.884,-5.706,14.122,1056.621,0.104,0.965
1.353000,863604,1000.00,12,0,1,1375.376,0.379,14.073,1055.516,0.444,0.966
1.354000,863605,1000.00,12,0,1,1364.662,-8.426,13.958,1055.685,-0.583,0.960
1.355000,863606,1000.00,12,0,1,1364.710,-11.191,13.911,1056.165,0.884,0.955
1.356000,863607,1000.00,12,0,1,1370.235,-3.552,13.840,1054.459,-0.943,0.945
1.357000,863608,1000.00,12,0,1,1363.678,-9.036,13.867,1056.213,0.307,0.945
1.358000,863609,1000.00,12,0,1,1360.435,-13.124,13.981,1055.829,0.814,0.951
1.359000,863610,1000.00,12,0,1,1360.387,-11.423,14.068,1056.525,0.404,0.945
1.360000,863611,1000.00,12,0,1,1364.254,-8.115,14.084,1056.910,1.403,0.956
1.361000,863612,1000.00,12,0,1,1365.936,-4.766,14.094,1057.366,0.977,0.915
1.362000,863613,1000.00,12,0,1,1368.914,-3.054,14.017,1058.303,1.874,0.923
1.363000,863614,1000.00,12,0,1,1374.006,2.064,14.001,1056.741,0.335,0.924
1.364000,863615,1000.00,12,0,1,1375.808,3.491,14.003,1055.805,-1.051,0.908
1.365000,863616,1000.00,12,0,1,1372.157,0.117,14.002,1057.294,0.332,0.889
1.366000,863617,1000.00,12,0,1,1370.860,-1.668,13.985,1056.405,-0.065,0.888
1.367000,863618,1000.00,12,0,1,1369.058,-1.868,13.978,1058.063,0.621,0.873
1.368000,863619,1000.00,12,0,1,1367.689,-2.521,13.980,1056.765,0.478,0.875
1.369000,863620,1000.00,12,0,1,1370.523,0.954,13.980,1057.078,-0.416,0.870
1.370000,863621,1000.00,12,0,1,1372.853,4.453,13.989,1057.150,0.571,0.812
1.371000,863622,1000.00,12,0,1,1367.809,0.880,13.973,1056.069,-0.793,0.806
1.372000,863623,1000.00,12,0,1,1368.458,0.446,13.961,1056.165,-0.603,0.805
1.373000,863624,1000.00,12,0,1,1373.358,5.909,13.984,1055.564,-0.721,0.811
1.374000,863625,1000.00,12,0,1,1377.033,8.513,14.024,1055.853,-0.739,0.801
1.375000,863626,1000.00,12,0,1,1383.302,12.141,14.028,1056.765,0.527,0.803
1.376000,863627,1000.00,12,0,1,1377.393,6.839,13.695,1055.180,-0.786,0.810
1.377000,863628,1000.00,12,0,1,1364.134,-8.028,13.242,1056.213,-0.355,0.806
1.378000,863629,1000.00,12,0,1,1358.489,-13.576,13.093,1055.877,0.085,0.806
1.379000,863630,1000.00,12,0,1,1360.987,-10.569,12.979,1056.093,-0.396,0.806
1.380000,863631,1000.00,12,0,1,1365.936,-4.897,12.870,1056.669,0.490,0.796
1.381000,863632,1000.00,12,0,1,1367.473,-2.743,12.806,1055.973,-0.280,0.793
1.382000,863633,1000.00,12,0,1,1368.290,-2.448,12.811,1053.499,-2.305,0.843
1.383000,863634,1000.00,12,0,1,1368.290,-1.983,12.609,1055.853,-0.809,0.836
1.384000,863635,1000.00,12,0,1,1371.316,0.063,12.192,1057.558,1.735,0.871
1.385000,863636,1000.00,12,0,1,1375.087,4.055,11.581,1056.886,0.672,0.874
1.386000,863637,1000.00,12,0,1,1372.637,2.126,10.006,1056.597,0.261,0.867
1.387000,863638,1000.00,12,0,1,1375.592,3.251,7.555,1056.405,0.153,0.867
1.388000,863639,1000.00,12,0,1,1377.081,6.136,6.701,1052.370,-2.918,0.960
1.389000,863640,1000.00,12,0,1,1375.496,3.714,6.588,1055.685,-1.017,0.970
1.390000,863641,1000.00,12,0,1,1371.508,0.892,6.515,1055.949,1.367,0.988
1.391000,863642,1000.00,12,0,1,1368.482,-2.023,6.444,1054.171,-1.278,0.996
1.392000,863643,1000.00,12,0,1,1366.032,-2.923,6.397,1055.468,0.278,0.997
1.393000,863644,1000.00,12,0,1,1363.341,-4.398,6.400,1056.573,1.539,1.020
1.394000,863645,1000.00,12,0,1,1361.131,-5.281,6.278,1055.949,0.875,1.023
1.395000,863646,1000.00,12,0,1,1360.026,-5.119,6.110,1057.318,1.697,1.042
1.396000,863647,1000.00,12,0,1,1362.308,-2.643,6.096,1055.396,0.452,1.043
1.397000,863648,1000.00,12,0,1,1363.125,-0.721,6.084,1054.724,-1.011,1.053
1.398000,863649,1000.00,12,0,1,1364.927,-0.033,6.060,1054.652,-0.532,1.014
1.399000,863650,1000.00,12,0,1,1365.095,0.563,5.982,1055.877,0.202,1.014
1.400000,863651,1000.00,12,0,1,1363.437,-1.926,5.874,1055.540,0.360,0.990
1.401000,863652,1000.00,12,0,1,1366.248,-0.238,5.761,1056.862,0.815,0.965
1.402000,863653,1000.00,12,0,1,1369.202,2.487,5.715,1056.621,1.077,0.977
1.403000,863654,1000.00,12,0,1,1366.632,-0.117,5.715,1055.132,-0.745,0.981
1.404000,863655,1000.00,12,0,1,1365.791,-1.856,5.595,1055.012,-0.951,0.986
1.405000,863656,1000.00,12,0,1,1368.794,1.089,5.369,1055.853,0.008,0.979
1.406000,863657,1000.00,12,0,1,1367.088,0.627,5.346,1055.636,-0.077,0.969
1.407000,863658,1000.00,12,0,1,1367.209,0.024,5.191,1056.261,0.350,0.970
1.408000,863659,1000.00,12,0,1,1369.635,3.405,4.872,1054.652,-0.620,0.967
1.409000,863660,1000.00,12,0,1,1365.719,0.996,4.599,1056.693,0.403,0.967
1.410000,863661,1000.00,12,0,1,1366.512,0.949,4.455,1058.111,2.539,1.012
1.411000,863662,1000.00,12,0,1,1363.557,0.969,4.406,1056.862,0.920,1.011
1.412000,863663,1000.00,12,0,1,1362.044,-1.305,4.389,1056.765,0.474,0.978
1.413000,863664,1000.00,12,0,1,1362.573,1.020,4.381,1056.117,0.156,0.977
1.414000,863665,1000.00,12,0,1,1357.456,-2.647,4.370,1053.907,-1.908,1.003
1.415000,863666,1000.00,12,0,1,1349.361,-9.141,4.557,1054.892,-1.205,1.016
1.416000,863667,1000.00,12,0,1,1349.217,-8.751,4.716,1055.853,0.279,1.017
1.417000,863668,1000.00,12,0,1,1349.337,-6.048,4.786,1057.294,1.178,1.027
1.418000,863669,1000.00,12,0,1,1348.521,-6.160,4.851,1055.973,0.448,1.026
1.419000,863670,1000.00,12,0,1,1350.442,-3.715,4.878,1055.757,-0.617,1.028
1.420000,863671,1000.00,12,0,1,1350.875,-2.268,4.847,1055.973,0.011,1.025
1.421000,863672,1000.00,12,0,1,1352.292,-1.474,4.850,1055.612,-0.543,1.022
1.422000,863673,1000.00,12,0,1,1364.951,8.684,5.003,1055.036,-0.980,1.028
1.423000,863674,1000.00,12,0,1,1376.961,19.190,5.630,1055.468,-0.658,1.027
1.424000,863675,1000.00,12,0,1,1383.927,21.988,6.318,1056.333,0.214,1.022
1.425000,863676,1000.00,12,0,1,1387.434,21.570,6.803,1058.159,1.677,1.047
1.426000,863677,1000.00,12,0,1,1388.011,18.213,7.209,1055.997,0.179,1.041
1.427000,863678,1000.00,12,0,1,1385.416,12.755,7.344,1053.907,-2.351,1.092
1.428000,863679,1000.00,12,0,1,1383.783,8.490,7.190,1055.997,-0.370,1.093
1.429000,863680,1000.00,12,0,1,1379.916,4.128,7.057,1055.540,0.147,1.091
1.430000,863681,1000.00,12,0,1,1372.950,-2.701,7.033,1058.327,1.495,1.110
1.431000,863682,1000.00,12,0,1,1370.596,-5.109,7.060,1057.942,2.469,1.163
1.432000,863683,1000.00,12,0,1,1366.992,-6.148,7.105,1055.204,-1.122,1.127
1.433000,863684,1000.00,12,0,1,1362.477,-9.513,7.225,1054.387,-1.535,1.142
1.434000,863685,1000.00,12,0,1,1363.149,-7.529,7.303,1055.492,-0.557,1.118
1.435000,863686,1000.00,12,0,1,1363.918,-5.097,7.316,1055.997,0.338,1.115
1.436000,863687,1000.00,12,0,1,1361.107,-6.713,7.372,1057.726,1.494,1.135
1.437000,863688,1000.00,12,0,1,1356.303,-10.361,7.502,1056.261,0.684,1.138
1.438000,863689,1000.00,12,0,1,1353.493,-12.363,7.654,1056.069,-0.445,1.063
1.439000,863690,1000.00,12,0,1,1352.580,-11.950,7.820,1056.621,0.453,1.055
1.440000,863691,1000.00,12,0,1,1347.632,-14.624,8.088,1058.039,1.220,1.051
1.441000,863692,1000.00,12,0,1,1344.461,-16.761,8.424,1056.741,0.407,1.037
1.442000,863693,1000.00,12,0,1,1342.467,-15.895,8.709,1056.381,-0.723,1.042
1.443000,863694,1000.00,12,0,1,1340.474,-15.598,8.962,1055.012,-1.373,1.037
1.444000,863695,1000.00,12,0,1,1341.242,-12.436,9.102,1053.763,-2.708,1.099
1.445000,863696,1000.00,12,0,1,1352.700,-0.952,9.075,1054.507,-1.742,1.100
1.446000,863697,1000.00,12,0,1,1363.461,11.268,9.206,1057.102,0.828,1.104
1.447000,863698,1000.00,12,0,1,1367.473,14.345,9.426,1057.222,1.315,1.111
1.448000,863699,1000.00,12,0,1,1376.913,20.419,9.859,1057.054,0.702,1.113
1.449000,863700,1000.00,12,0,1,1389.260,29.956,10.730,1055.901,-0.113,1.112
1.450000,863701,1000.00,12,0,1,1383.326,23.411,11.226,1057.678,0.845,1.118
1.451000,863702,1000.00,12,0,1,1369.058,6.681,11.266,1056.309,0.560,1.114
1.452000,863703,1000.00,12,0,1,1359.618,-2.487,11.266,1053.162,-2.795,1.173
1.453000,863704,1000.00,12,0,1,1362.044,-0.505,11.266,1056.213,-0.354,1.169
1.454000,863705,1000.00,12,0,1,1360.795,1.345,11.264,1057.654,2.142,1.200
1.455000,863706,1000.00,12,0,1,1353.469,-5.068,11.286,1055.925,-0.043,1.200
1.456000,863707,1000.00,12,0,1,1350.250,-7.317,11.333,1055.396,-0.526,1.202
1.457000,863708,1000.00,12,0,1,1349.337,-6.409,11.369,1056.789,0.511,1.203
1.458000,863709,1000.00,12,0,1,1356.712,-0.430,11.359,1055.901,0.244,1.201
1.459000,863710,1000.00,12,0,1,1361.324,5.274,11.383,1057.270,0.519,1.202
1.460000,863711,1000.00,12,0,1,1366.008,6.278,11.417,1057.702,1.579,1.168
1.461000,863712,1000.00,12,0,1,1372.637,10.643,11.514,1057.414,0.526,1.163
1.462000,863713,1000.00,12,0,1,1374.751,9.565,11.592,1055.781,-0.644,1.165
1.463000,863714,1000.00,12,0,1,1377.249,7.966,11.646,1056.045,-1.028,1.174
1.464000,863715,1000.00,12,0,1,1378.907,6.962,11.681,1056.549,-0.062,1.142
1.465000,863716,1000.00,12,0,1,1381.045,5.534,11.636,1057.822,0.716,1.134
1.466000,863717,1000.00,12,0,1,1378.306,2.107,11.574,1056.405,-0.052,1.133
1.467000,863718,1000.00,12,0,1,1367.857,-8.323,11.602,1055.444,-1.467,1.140
1.468000,863719,1000.00,12,0,1,1361.203,-14.352,11.746,1055.444,-1.048,1.148
1.469000,863720,1000.00,12,0,1,1362.957,-10.737,11.832,1054.748,-1.364,1.161
1.470000,863721,1000.00,12,0,1,1363.269,-7.021,11.869,1054.387,-1.587,1.182
1.471000,863722,1000.00,12,0,1,1360.123,-7.550,11.915,1053.811,-1.495,1.199
1.472000,863723,1000.00,12,0,1,1359.282,-6.163,11.884,1055.781,-0.013,1.191
1.473000,863724,1000.00,12,0,1,1355.390,-6.322,11.605,1055.300,0.645,1.190
1.474000,863725,1000.00,12,0,1,1352.100,-7.762,11.234,1053.931,-1.214,1.202
1.475000,863726,1000.00,12,0,1,1348.617,-7.820,10.868,1053.451,-1.110,1.189
1.476000,863727,1000.00,12,0,1,1357.360,-0.319,10.559,1055.733,0.602,1.192
1.477000,863728,1000.00,12,0,1,1359.714,5.444,10.432,1057.126,2.430,1.195
1.478000,863729,1000.00,12,0,1,1355.198,-0.713,10.363,1057.486,2.135,1.232
1.479000,863730,1000.00,12,0,1,1363.245,4.517,10.366,1056.765,1.373,1.247
1.480000,863731,1000.00,12,0,1,1367.953,9.247,10.441,1057.462,1.295,1.242
1.481000,863732,1000.00,12,0,1,1373.118,9.309,10.499,1056.573,0.746,1.197
1.482000,863733,1000.00,12,0,1,1375.256,10.118,10.561,1055.444,-0.796,1.191
1.483000,863734,1000.00,12,0,1,1377.562,7.467,10.528,1055.324,-0.815,1.177
1.484000,863735,1000.00,12,0,1,1377.393,6.037,10.508,1055.372,-0.604,1.178
1.485000,863736,1000.00,12,0,1,1373.190,-0.289,10.484,1055.012,-0.813,1.182
1.486000,863737,1000.00,12,0,1,1369.971,-4.087,10.457,1054.483,-1.034,1.172
1.487000,863738,1000.00,12,0,1,1369.034,-4.674,10.375,1054.483,-0.961,1.176
1.488000,863739,1000.00,12,0,1,1369.971,-3.039,10.235,1053.955,-0.922,1.182
1.489000,863740,1000.00,12,0,1,1372.133,0.268,10.095,1055.060,-0.147,1.180
1.490000,863741,1000.00,12,0,1,1368.266,-1.292,9.882,1053.763,-0.369,1.169
1.491000,863742,1000.00,12,0,1,1364.566,-3.920,9.610,1053.018,-1.587,1.189
1.492000,863743,1000.00,12,0,1,1363.053,-3.178,9.354,1055.084,0.675,1.188
1.493000,863744,1000.00,12,0,1,1365.647,0.295,9.090,1053.330,-0.195,1.172
1.494000,863745,1000.00,12,0,1,1368.554,4.397,8.940,1054.844,0.077,1.108
1.495000,863746,1000.00,12,0,1,1364.951,1.928,8.943,1054.411,1.009,1.090
1.496000,863747,1000.00,12,0,1,1365.960,1.096,8.802,1055.300,0.477,1.086
1.497000,863748,1000.00,12,0,1,1364.110,0.718,8.565,1056.741,2.449,1.124
1.498000,863749,1000.00,12,0,1,1366.128,-0.339,8.064,1055.805,1.096,1.131
1.499000,863750,1000.00,12,0,1,1366.032,0.348,6.862,1056.765,1.317,1.146
1.500000,863751,1000.00,12,0,1,1370.091,0.509,6.011,1056.693,1.542,1.160
1.501000,863752,1000.00,12,0,1,1371.268,1.773,5.941,1057.246,1.103,1.168
1.502000,863753,1000.00,12,0,1,1368.890,-3.009,5.946,1055.588,0.222,1.099
1.503000,863754,1000.00,12,0,1,1366.512,-5.960,6.005,1055.492,-0.905,1.106
1.504000,863755,1000.00,12,0,1,1366.896,-6.307,6.068,1055.060,-0.395,1.065
1.505000,863756,1000.00,12,0,1,1367.353,-5.396,6.074,1055.540,-0.560,1.068
1.506000,863757,1000.00,12,0,1,1374.775,0.723,5.986,1056.021,0.469,1.067
1.507000,863758,1000.00,12,0,1,1376.649,4.293,5.948,1054.748,-0.680,1.069
1.508000,863759,1000.00,12,0,1,1367.329,-3.665,5.970,1054.604,-0.961,1.077
1.509000,863760,1000.00,12,0,1,1362.284,-8.212,6.036,1054.652,-0.424,1.076
1.510000,863761,1000.00,12,0,1,1366.080,-2.309,5.979,1055.612,0.169,1.053
1.511000,863762,1000.00,12,0,1,1363.630,-1.226,5.789,1056.501,1.324,1.067
1.512000,863763,1000.00,12,0,1,1364.903,0.114,5.629,1058.111,2.150,1.106
1.513000,863764,1000.00,12,0,1,1362.477,1.263,5.518,1058.495,2.577,1.155
1.514000,863765,1000.00,12,0,1,1360.387,-0.950,5.431,1057.150,0.718,1.160
1.515000,863766,1000.00,12,0,1,1360.627,0.837,5.376,1054.940,-1.404,1.172
1.516000,863767,1000.00,12,0,1,1360.675,1.108,5.370,1055.084,-1.706,1.197
1.517000,863768,1000.00,12,0,1,1359.090,-0.200,5.239,1055.588,-0.765,1.184
1.518000,863769,1000.00,12,0,1,1356.519,-2.769,4.846,1055.012,-1.268,1.188
1.519000,863770,1000.00,12,0,1,1354.502,-5.111,4.658,1054.892,-1.365,1.188
1.520000,863771,1000.00,12,0,1,1353.421,-5.996,4.630,1056.837,0.344,1.168
1.521000,863772,1000.00,12,0,1,1354.261,-5.691,4.576,1057.822,1.481,1.167
1.522000,863773,1000.00,12,0,1,1357.480,-2.734,4.509,1056.669,0.285,1.168
1.523000,863774,1000.00,12,0,1,1360.219,-0.507,4.420,1056.333,-0.400,1.166
1.524000,863775,1000.00,12,0,1,1368.073,5.168,4.343,1055.180,-0.993,1.162
1.525000,863776,1000.00,12,0,1,1375.976,11.850,4.522,1057.126,0.101,1.151
1.526000,863777,1000.00,12,0,1,1375.376,10.178,4.746,1055.540,-0.030,1.148
1.527000,863778,1000.00,12,0,1,1372.733,5.713,4.752,1054.363,-2.086,1.134
1.528000,863779,1000.00,12,0,1,1365.359,-0.219,4.751,1056.021,0.051,1.093
1.529000,863780,1000.00,12,0,1,1362.789,-3.388,4.732,1056.117,0.412,1.078
1.530000,863781,1000.00,12,0,1,1370.836,5.238,4.608,1056.789,0.647,1.066
1.531000,863782,1000.00,12,0,1,1373.262,9.550,4.618,1059.504,2.974,1.141
1.532000,863783,1000.00,12,0,1,1363.918,1.641,4.396,1058.207,1.968,1.169
1.533000,863784,1000.00,12,0,1,1358.441,-3.757,4.301,1055.132,-1.472,1.182
1.534000,863785,1000.00,12,0,1,1360.627,-0.382,4.215,1054.964,-1.872,1.208
1.535000,863786,1000.00,12,0,1,1358.537,-0.323,4.215,1055.156,-1.150,1.213
1.536000,863787,1000.00,12,0,1,1356.664,-2.529,4.191,1055.204,-1.186,1.216
1.537000,863788,1000.00,12,0,1,1345.710,-9.760,4.363,1056.765,0.294,1.209
1.538000,863789,1000.00,12,0,1,1337.783,-17.964,5.030,1054.219,-1.301,1.216
1.539000,863790,1000.00,12,0,1,1336.006,-16.458,5.542,1055.540,-1.230,1.228
1.540000,863791,1000.00,12,0,1,1342.780,-9.870,5.712,1055.564,0.222,1.228
1.541000,863792,1000.00,12,0,1,1355.703,3.013,5.701,1056.285,-0.144,1.207
1.542000,863793,1000.00,12,0,1,1371.749,15.762,6.105,1056.333,0.730,1.208
1.543000,863794,1000.00,12,0,1,1385.873,25.422,7.085,1056.813,0.495,1.210
1.544000,863795,1000.00,12,0,1,1384.528,21.066,7.661,1054.267,-1.002,1.218
1.545000,863796,1000.00,12,0,1,1379.051,9.939,7.784,1056.093,-0.462,1.211
1.546000,863797,1000.00,12,0,1,1384.143,11.000,7.936,1056.934,1.557,1.229
1.547000,863798,1000.00,12,0,1,1382.510,9.004,8.037,1055.084,-0.548,1.182
1.548000,863799,1000.00,12,0,1,1375.328,0.272,8.037,1055.252,-0.576,1.175
1.549000,863800,1000.00,12,0,1,1365.455,-7.646,8.109,1055.492,0.192,1.160
1.550000,863801,1000.00,12,0,1,1361.059,-10.991,8.257,1058.015,1.740,1.166
1.551000,863802,1000.00,12,0,1,1360.915,-7.623,8.323,1056.333,1.358,1.171
1.552000,863803,1000.00,12,0,1,1368.362,0.493,8.312,1057.222,0.366,1.172
1.553000,863804,1000.00,12,0,1,1374.319,8.575,8.358,1056.741,1.259,1.178
1.554000,863805,1000.00,12,0,1,1380.540,12.903,8.508,1055.925,-0.691,1.181
1.555000,863806,1000.00,12,0,1,1386.089,16.880,8.804,1054.291,-1.350,1.194
1.556000,863807,1000.00,12,0,1,1380.204,10.059,8.917,1053.739,-2.317,1.236
1.557000,863808,1000.00,12,0,1,1373.166,-0.258,8.897,1054.532,-1.062,1.241
1.558000,863809,1000.00,12,0,1,1366.488,-6.825,8.934,1056.934,1.026,1.242
1.559000,863810,1000.00,12,0,1,1365.431,-10.170,8.974,1055.420,0.293,1.242
1.560000,863811,1000.00,12,0,1,1364.206,-10.253,9.085,1054.387,-1.349,1.256
1.561000,863812,1000.00,12,0,1,1363.485,-12.306,9.248,1057.846,1.616,1.263
1.562000,863813,1000.00,12,0,1,1363.726,-11.526,9.391,1057.174,1.893,1.255
1.563000,863814,1000.00,12,0,1,1363.605,-11.686,9.533,1057.486,0.692,1.205
1.564000,863815,1000.00,12,0,1,1361.203,-12.869,9.705,1056.934,1.085,1.210
1.565000,863816,1000.00,12,0,1,1360.531,-12.781,9.871,1055.853,-0.776,1.199
1.566000,863817,1000.00,12,0,1,1355.030,-14.706,10.086,1056.958,0.423,1.176
1.567000,863818,1000.00,12,0,1,1350.778,-16.757,10.361,1056.069,-0.068,1.171
1.568000,863819,1000.00,12,0,1,1349.097,-14.087,10.543,1055.492,-0.969,1.165
1.569000,863820,1000.00,12,0,1,1350.875,-9.003,10.595,1055.252,-0.710,1.153
1.570000,863821,1000.00,12,0,1,1362.501,3.959,10.576,1055.973,-0.287,1.153
1.571000,863822,1000.00,12,0,1,1371.652,15.580,10.773,1054.291,-0.990,1.142
1.572000,863823,1000.00,12,0,1,1364.999,10.671,10.872,1053.931,-1.896,1.173
1.573000,863824,1000.00,12,0,1,1367.737,10.398,10.970,1057.390,1.510,1.191
1.574000,863825,1000.00,12,0,1,1368.626,13.662,11.115,1057.534,2.147,1.221
1.575000,863826,1000.00,12,0,1,1368.266,10.614,11.090,1057.390,1.054,1.230
1.576000,863827,1000.00,12,0,1,1373.118,13.996,11.173,1056.765,0.757,1.234
1.577000,863828,1000.00,12,0,1,1370.812,11.025,11.252,1055.564,-0.830,1.204
1.578000,863829,1000.00,12,0,1,1367.569,4.630,11.271,1057.342,0.497,1.206
1.579000,863830,1000.00,12,0,1,1366.104,2.189,11.265,1057.846,1.321,1.219
1.580000,863831,1000.00,12,0,1,1366.728,0.303,11.241,1054.724,-1.608,1.237
1.581000,863832,1000.00,12,0,1,1373.670,4.653,11.179,1056.165,-1.100,1.174
1.582000,863833,1000.00,12,0,1,1375.328,5.131,11.200,1056.765,0.531,1.143
1.583000,863834,1000.00,12,0,1,1376.529,2.754,11.194,1055.372,-1.162,1.135
1.584000,863835,1000.00,12,0,1,1373.118,-0.824,11.195,1055.060,-1.257,1.118
1.585000,863836,1000.00,12,0,1,1367.713,-7.591,11.246,1053.643,-2.020,1.143
1.586000,863837,1000.00,12,0,1,1367.713,-7.612,11.292,1053.643,-2.100,1.169
1.587000,863838,1000.00,12,0,1,1366.680,-6.869,11.249,1056.021,0.526,1.170
1.588000,863839,1000.00,12,0,1,1366.464,-6.462,10.997,1057.486,2.052,1.192
1.589000,863840,1000.00,12,0,1,1367.761,-3.251,10.757,1055.612,0.542,1.181
1.590000,863841,1000.00,12,0,1,1366.344,-2.820,10.674,1055.877,-0.018,1.181
1.591000,863842,1000.00,12,0,1,1369.443,0.595,10.666,1056.165,0.859,1.187
1.592000,863843,1000.00,12,0,1,1369.731,3.222,10.440,1056.765,0.819,1.188
1.593000,863844,1000.00,12,0,1,1366.992,0.854,9.802,1054.700,-0.417,1.188
1.594000,863845,1000.00,12,0,1,1366.320,0.859,9.339,1054.964,-1.089,1.189
1.595000,863846,1000.00,12,0,1,1370.451,4.412,9.254,1055.036,-0.122,1.187
1.596000,863847,1000.00,12,0,1,1367.449,2.950,9.132,1056.453,0.480,1.169
1.597000,863848,1000.00,12,0,1,1358.081,-6.368,9.087,1056.837,1.367,1.182
1.598000,863849,1000.00,12,0,1,1361.107,-5.172,9.117,1056.693,0.672,1.183
1.599000,863850,1000.00,12,0,1,1369.154,3.295,9.064,1057.270,1.036,1.192
1.600000,863851,1000.00,12,0,1,1376.192,7.683,8.996,1058.783,2.106,1.204
1.601000,863852,1000.00,12,0,1,1379.099,8.864,9.019,1058.495,1.732,1.213
1.602000,863853,1000.00,12,0,1,1384.191,9.340,9.115,1055.757,-0.881,1.218
1.603000,863854,1000.00,12,0,1,1375.376,1.553,9.036,1054.267,-2.618,1.261
1.604000,863855,1000.00,12,0,1,1372.853,-6.001,8.891,1056.525,-0.387,1.258
1.605000,863856,1000.00,12,0,1,1367.833,-7.524,8.630,1057.006,0.656,1.247
1.606000,863857,1000.00,12,0,1,1358.585,-16.490,8.826,1054.892,-1.272,1.217
1.607000,863858,1000.00,12,0,1,1360.026,-13.573,9.032,1056.381,-0.422,1.209
1.608000,863859,1000.00,12,0,1,1361.828,-7.806,9.048,1056.886,0.927,1.207
1.609000,863860,1000.00,12,0,1,1367.521,-2.079,8.938,1055.564,-0.679,1.210
