Frame_Index,System_Time_s,Human_Readable
0,1775226210.824287,16:23:30.824
1,1775226210.8292735,16:23:30.829
2,1775226210.8413577,16:23:30.841
3,1775226210.8453548,16:23:30.845
4,1775226210.8567834,16:23:30.856
5,1775226210.8609152,16:23:30.860
6,1775226210.8731327,16:23:30.873
7,1775226210.8760862,16:23:30.876
8,1775226210.8884768,16:23:30.888
9,1775226210.8924694,16:23:30.892
10,1775226210.9050076,16:23:30.905
11,1775226210.9274352,16:23:30.927
12,1775226210.9444275,16:23:30.944
13,1775226210.9533212,16:23:30.953
14,1775226210.9563658,16:23:30.956
15,1775226210.9862654,16:23:30.986
16,1775226211.002231,16:23:31.002
17,1775226211.0065253,16:23:31.006
18,1775226211.0185812,16:23:31.018
19,1775226211.0445995,16:23:31.044
20,1775226211.0485737,16:23:31.048
21,1775226211.0515735,16:23:31.051
22,1775226211.0648658,16:23:31.064
23,1775226211.0679982,16:23:31.067
24,1775226211.0814984,16:23:31.081
25,1775226211.0850468,16:23:31.085
26,1775226211.0969915,16:23:31.096
27,1775226211.099979,16:23:31.099
28,1775226211.1130276,16:23:31.113
29,1775226211.116023,16:23:31.116
30,1775226211.1297584,16:23:31.129
31,1775226211.1504643,16:23:31.150
32,1775226211.1584785,16:23:31.158
33,1775226211.1624806,16:23:31.162
34,1775226211.1771107,16:23:31.177
35,1775226211.1811452,16:23:31.181
36,1775226211.1920469,16:23:31.192
37,1775226211.196043,16:23:31.196
38,1775226211.2081854,16:23:31.208
39,1775226211.2121785,16:23:31.212
40,1775226211.2244947,16:23:31.224
41,1775226211.2284935,16:23:31.228
42,1775226211.2406282,16:23:31.240
43,1775226211.2516294,16:23:31.251
44,1775226211.268645,16:23:31.268
45,1775226211.2736433,16:23:31.273
46,1775226211.277697,16:23:31.277
47,1775226211.2883115,16:23:31.288
48,1775226211.2912557,16:23:31.291
49,1775226211.3045197,16:23:31.304
50,1775226211.3206303,16:23:31.320
51,1775226211.3236709,16:23:31.323
52,1775226211.337763,16:23:31.337
53,1775226211.340803,16:23:31.340
54,1775226211.3597534,16:23:31.359
55,1775226211.3757744,16:23:31.375
56,1775226211.384507,16:23:31.384
57,1775226211.3875012,16:23:31.387
58,1775226211.4019554,16:23:31.401
59,1775226211.4049613,16:23:31.404
60,1775226211.4167295,16:23:31.416
61,1775226211.4191134,16:23:31.419
62,1775226211.432271,16:23:31.432
63,1775226211.4493177,16:23:31.449
64,1775226211.453312,16:23:31.453
65,1775226211.4652867,16:23:31.465
66,1775226211.4889443,16:23:31.488
67,1775226211.4929411,16:23:31.492
68,1775226211.497952,16:23:31.497
69,1775226211.501953,16:23:31.501
70,1775226211.5136423,16:23:31.513
71,1775226211.5166302,16:23:31.516
72,1775226211.5291033,16:23:31.529
73,1775226211.5321314,16:23:31.532
74,1775226211.545252,16:23:31.545
75,1775226211.5482943,16:23:31.548
76,1775226211.5612385,16:23:31.561
77,1775226211.5682578,16:23:31.568
78,1775226211.582247,16:23:31.582
79,1775226211.598353,16:23:31.598
80,1775226211.6086197,16:23:31.608
81,1775226211.6125731,16:23:31.612
82,1775226211.6245718,16:23:31.624
83,1775226211.627617,16:23:31.627
84,1775226211.6413114,16:23:31.641
85,1775226211.6443765,16:23:31.644
86,1775226211.6573842,16:23:31.657
87,1775226211.6616611,16:23:31.661
88,1775226211.6752791,16:23:31.675
89,1775226211.6792383,16:23:31.679
90,1775226211.7050393,16:23:31.705
91,1775226211.7079744,16:23:31.707
92,1775226211.7212844,16:23:31.721
93,1775226211.7242785,16:23:31.724
94,1775226211.7372298,16:23:31.737
95,1775226211.7412949,16:23:31.741
96,1775226211.7539933,16:23:31.753
97,1775226211.7570426,16:23:31.757
98,1775226211.76963,16:23:31.769
99,1775226211.7726598,16:23:31.772
100,1775226211.7856863,16:23:31.785
101,1775226211.8136635,16:23:31.813
102,1775226211.8193069,16:23:31.819
103,1775226211.8226225,16:23:31.822
104,1775226211.8314636,16:23:31.831
105,1775226211.8476603,16:23:31.847
106,1775226211.8496594,16:23:31.849
107,1775226211.8638768,16:23:31.863
108,1775226211.8668888,16:23:31.866
109,1775226211.879426,16:23:31.879
110,1775226211.8846564,16:23:31.884
111,1775226211.9017053,16:23:31.901
112,1775226211.909653,16:23:31.909
113,1775226211.9136486,16:23:31.913
114,1775226211.9292617,16:23:31.929
115,1775226211.93224,16:23:31.932
116,1775226211.945398,16:23:31.945
117,1775226211.9483383,16:23:31.948
118,1775226211.960317,16:23:31.960
119,1775226211.9632354,16:23:31.963
120,1775226211.976676,16:23:31.976
121,1775226211.9925995,16:23:31.992
122,1775226211.9955955,16:23:31.995
123,1775226212.0078151,16:23:32.007
124,1775226212.0308616,16:23:32.030
125,1775226212.0338857,16:23:32.033
126,1775226212.0398593,16:23:32.039
127,1775226212.0418093,16:23:32.041
128,1775226212.05685,16:23:32.056
129,1775226212.0609083,16:23:32.060
130,1775226212.072927,16:23:32.072
131,1775226212.0769265,16:23:32.076
132,1775226212.0889735,16:23:32.088
133,1775226212.0920138,16:23:32.092
134,1775226212.1045246,16:23:32.104
135,1775226212.1364982,16:23:32.136
136,1775226212.1529121,16:23:32.152
137,1775226212.1559045,16:23:32.155
138,1775226212.168285,16:23:32.168
139,1775226212.171338,16:23:32.171
140,1775226212.1851642,16:23:32.185
141,1775226212.189188,16:23:32.189
142,1775226212.2012632,16:23:32.201
143,1775226212.205304,16:23:32.205
144,1775226212.2161875,16:23:32.216
145,1775226212.223235,16:23:32.223
146,1775226212.2512445,16:23:32.251
147,1775226212.254237,16:23:32.254
148,1775226212.264203,16:23:32.264
149,1775226212.2671587,16:23:32.267
150,1775226212.2798593,16:23:32.279
151,1775226212.2828145,16:23:32.282
152,1775226212.296173,16:23:32.296
153,1775226212.300191,16:23:32.300
154,1775226212.3122396,16:23:32.312
155,1775226212.3164341,16:23:32.316
156,1775226212.3310173,16:23:32.331
157,1775226212.3340564,16:23:32.334
158,1775226212.3454354,16:23:32.345
159,1775226212.362032,16:23:32.362
160,1775226212.3760757,16:23:32.376
161,1775226212.3801048,16:23:32.380
162,1775226212.3923872,16:23:32.392
163,1775226212.394783,16:23:32.394
164,1775226212.4074903,16:23:32.407
165,1775226212.409536,16:23:32.409
166,1775226212.425128,16:23:32.425
167,1775226212.4281206,16:23:32.428
168,1775226212.4418561,16:23:32.441
169,1775226212.4546614,16:23:32.454
170,1775226212.4684386,16:23:32.468
171,1775226212.4716487,16:23:32.471
172,1775226212.4768703,16:23:32.476
173,1775226212.488843,16:23:32.488
174,1775226212.505059,16:23:32.505
175,1775226212.508037,16:23:32.508
176,1775226212.5213573,16:23:32.521
177,1775226212.5243003,16:23:32.524
178,1775226212.5365636,16:23:32.536
179,1775226212.5396068,16:23:32.539
180,1775226212.5535135,16:23:32.553
181,1775226212.5665216,16:23:32.566
182,1775226212.5825884,16:23:32.582
183,1775226212.5871212,16:23:32.587
184,1775226212.600421,16:23:32.600
185,1775226212.603435,16:23:32.603
186,1775226212.6173556,16:23:32.617
187,1775226212.621306,16:23:32.621
188,1775226212.6323557,16:23:32.632
189,1775226212.6363623,16:23:32.636
190,1775226212.6483083,16:23:32.648
191,1775226212.6733723,16:23:32.673
192,1775226212.689482,16:23:32.689
193,1775226212.696544,16:23:32.696
194,1775226212.6994739,16:23:32.699
195,1775226212.7123356,16:23:32.712
196,1775226212.7163463,16:23:32.716
197,1775226212.728666,16:23:32.728
198,1775226212.7316804,16:23:32.731
199,1775226212.7448018,16:23:32.744
200,1775226212.74785,16:23:32.747
201,1775226212.7612891,16:23:32.761
202,1775226212.7811878,16:23:32.781
203,1775226212.7967708,16:23:32.796
204,1775226212.8082395,16:23:32.808
205,1775226212.811234,16:23:32.811
206,1775226212.8242626,16:23:32.824
207,1775226212.8282328,16:23:32.828
208,1775226212.8401787,16:23:32.840
209,1775226212.8441746,16:23:32.844
210,1775226212.8561788,16:23:32.856
211,1775226212.8601754,16:23:32.860
212,1775226212.8727942,16:23:32.872
213,1775226212.878832,16:23:32.878
214,1775226212.8943572,16:23:32.894
215,1775226212.9103794,16:23:32.910
216,1775226212.9204128,16:23:32.920
217,1775226212.9224124,16:23:32.922
218,1775226212.937439,16:23:32.937
219,1775226212.940428,16:23:32.940
220,1775226212.9534092,16:23:32.953
221,1775226212.956453,16:23:32.956
222,1775226212.968498,16:23:32.968
223,1775226212.9726148,16:23:32.972
224,1775226212.9859385,16:23:32.985
225,1775226212.9915974,16:23:32.991
226,1775226213.011265,16:23:33.011
227,1775226213.0227792,16:23:33.022
228,1775226213.0328526,16:23:33.032
229,1775226213.049349,16:23:33.049
230,1775226213.053394,16:23:33.053
231,1775226213.0643497,16:23:33.064
232,1775226213.068351,16:23:33.068
233,1775226213.080513,16:23:33.080
234,1775226213.0841897,16:23:33.084
235,1775226213.0970025,16:23:33.097
236,1775226213.1014326,16:23:33.101
237,1775226213.1132014,16:23:33.113
238,1775226213.1311965,16:23:33.131
239,1775226213.1450028,16:23:33.145
240,1775226213.149002,16:23:33.149
241,1775226213.1610887,16:23:33.161
242,1775226213.1775277,16:23:33.177
243,1775226213.1805916,16:23:33.180
244,1775226213.1928253,16:23:33.192
245,1775226213.1958709,16:23:33.195
246,1775226213.2085035,16:23:33.208
247,1775226213.2361298,16:23:33.236
248,1775226213.2400775,16:23:33.240
249,1775226213.2441273,16:23:33.244
250,1775226213.2567205,16:23:33.256
251,1775226213.2607102,16:23:33.260
252,1775226213.2732458,16:23:33.273
253,1775226213.276234,16:23:33.276
254,1775226213.2891119,16:23:33.289
255,1775226213.2921026,16:23:33.292
256,1775226213.3045824,16:23:33.304
257,1775226213.319648,16:23:33.319
258,1775226213.3487391,16:23:33.348
259,1775226213.3557434,16:23:33.355
260,1775226213.3587391,16:23:33.358
261,1775226213.3688347,16:23:33.368
262,1775226213.3718188,16:23:33.371
263,1775226213.3848457,16:23:33.384
264,1775226213.38736,16:23:33.387
265,1775226213.3993742,16:23:33.399
266,1775226213.4023733,16:23:33.402
267,1775226213.4163775,16:23:33.416
268,1775226213.4193733,16:23:33.419
269,1775226213.4367027,16:23:33.436
270,1775226213.449722,16:23:33.449
271,1775226213.4638822,16:23:33.463
272,1775226213.4668796,16:23:33.466
273,1775226213.4791634,16:23:33.479
274,1775226213.482173,16:23:33.482
275,1775226213.4959533,16:23:33.495
276,1775226213.4979942,16:23:33.497
277,1775226213.512613,16:23:33.512
278,1775226213.515606,16:23:33.515
279,1775226213.5292196,16:23:33.529
280,1775226213.5322146,16:23:33.532
281,1775226213.5503786,16:23:33.550
282,1775226213.563438,16:23:33.563
283,1775226213.5773513,16:23:33.577
284,1775226213.5813463,16:23:33.581
285,1775226213.5927994,16:23:33.592
286,1775226213.596844,16:23:33.596
287,1775226213.6077955,16:23:33.607
288,1775226213.611855,16:23:33.611
289,1775226213.624267,16:23:33.624
290,1775226213.6292613,16:23:33.629
291,1775226213.6405637,16:23:33.640
292,1775226213.6445599,16:23:33.644
293,1775226213.659555,16:23:33.659
294,1775226213.6769161,16:23:33.676
295,1775226213.6893342,16:23:33.689
296,1775226213.6923013,16:23:33.692
297,1775226213.7042594,16:23:33.704
298,1775226213.7209606,16:23:33.720
299,1775226213.7249768,16:23:33.724
300,1775226213.7372203,16:23:33.737
301,1775226213.7402592,16:23:33.740
302,1775226213.7536683,16:23:33.753
303,1775226213.7576709,16:23:33.757
304,1775226213.7871742,16:23:33.787
305,1775226213.8001952,16:23:33.800
306,1775226213.804236,16:23:33.804
307,1775226213.8163652,16:23:33.816
308,1775226213.8194282,16:23:33.819
309,1775226213.8323379,16:23:33.832
310,1775226213.848251,16:23:33.848
311,1775226213.8522847,16:23:33.852
312,1775226213.865684,16:23:33.865
313,1775226213.8707943,16:23:33.870
314,1775226213.8868346,16:23:33.886
315,1775226213.9068274,16:23:33.906
316,1775226213.913142,16:23:33.913
317,1775226213.940379,16:23:33.940
318,1775226213.946952,16:23:33.946
319,1775226213.9521976,16:23:33.952
320,1775226213.9623888,16:23:33.962
321,1775226213.9653883,16:23:33.965
322,1775226213.9768102,16:23:33.976
323,1775226213.9935768,16:23:33.993
324,1775226214.013815,16:23:34.013
325,1775226214.0237486,16:23:34.023
326,1775226214.0280118,16:23:34.028
327,1775226214.0400016,16:23:34.040
328,1775226214.043971,16:23:34.043
329,1775226214.0562634,16:23:34.056
330,1775226214.0605576,16:23:34.060
331,1775226214.0725884,16:23:34.072
332,1775226214.078614,16:23:34.078
333,1775226214.0896566,16:23:34.089
334,1775226214.103669,16:23:34.103
335,1775226214.1208136,16:23:34.120
336,1775226214.123786,16:23:34.123
337,1775226214.1360655,16:23:34.136
338,1775226214.1401026,16:23:34.140
339,1775226214.153069,16:23:34.153
340,1775226214.1560993,16:23:34.156
341,1775226214.169629,16:23:34.169
342,1775226214.173677,16:23:34.173
343,1775226214.1870372,16:23:34.187
344,1775226214.1916308,16:23:34.191
345,1775226214.2108147,16:23:34.210
346,1775226214.2205944,16:23:34.220
347,1775226214.232143,16:23:34.232
348,1775226214.2485335,16:23:34.248
349,1775226214.2515318,16:23:34.251
350,1775226214.2648427,16:23:34.264
351,1775226214.2683375,16:23:34.268
352,1775226214.280929,16:23:34.280
353,1775226214.2839737,16:23:34.283
354,1775226214.2985947,16:23:34.298
355,1775226214.3305476,16:23:34.330
356,1775226214.3365452,16:23:34.336
357,1775226214.3453963,16:23:34.345
358,1775226214.349387,16:23:34.349
359,1775226214.3599513,16:23:34.359
360,1775226214.3639755,16:23:34.363
361,1775226214.3772187,16:23:34.377
362,1775226214.3926437,16:23:34.392
363,1775226214.396628,16:23:34.396
364,1775226214.4100888,16:23:34.410
365,1775226214.436182,16:23:34.436
366,1775226214.442,16:23:34.441
367,1775226214.4450126,16:23:34.445
368,1775226214.456321,16:23:34.456
369,1775226214.4583657,16:23:34.458
370,1775226214.4718468,16:23:34.471
371,1775226214.4748404,16:23:34.474
372,1775226214.4879093,16:23:34.487
373,1775226214.4912891,16:23:34.491
374,1775226214.5041404,16:23:34.504
375,1775226214.5220206,16:23:34.522
376,1775226214.525003,16:23:34.525
377,1775226214.5467515,16:23:34.546
378,1775226214.5497468,16:23:34.549
379,1775226214.5527496,16:23:34.552
380,1775226214.556093,16:23:34.556
381,1775226214.5674143,16:23:34.567
382,1775226214.570638,16:23:34.570
383,1775226214.5840297,16:23:34.584
384,1775226214.587039,16:23:34.587
385,1775226214.5994115,16:23:34.599
386,1775226214.6024258,16:23:34.602
387,1775226214.6159277,16:23:34.615
388,1775226214.6175444,16:23:34.617
389,1775226214.6325939,16:23:34.632
390,1775226214.647132,16:23:34.647
391,1775226214.658145,16:23:34.658
392,1775226214.6711307,16:23:34.671
393,1775226214.68712,16:23:34.687
394,1775226214.6959066,16:23:34.695
395,1775226214.6979039,16:23:34.697
396,1775226214.7111378,16:23:34.711
397,1775226214.7131393,16:23:34.713
398,1775226214.7279649,16:23:34.727
399,1775226214.7300055,16:23:34.730
400,1775226214.7462072,16:23:34.746
401,1775226214.7606645,16:23:34.760
402,1775226214.7758574,16:23:34.775
403,1775226214.7915573,16:23:34.791
404,1775226214.7945669,16:23:34.794
405,1775226214.8078165,16:23:34.807
406,1775226214.809817,16:23:34.809
407,1775226214.823247,16:23:34.823
408,1775226214.8252537,16:23:34.825
409,1775226214.839405,16:23:34.839
410,1775226214.841451,16:23:34.841
411,1775226214.8556418,16:23:34.855
412,1775226214.868185,16:23:34.868
413,1775226214.8711848,16:23:34.871
414,1775226214.8741837,16:23:34.874
415,1775226214.887932,16:23:34.887
416,1775226214.890453,16:23:34.890
417,1775226214.9044771,16:23:34.904
418,1775226214.9202898,16:23:34.920
419,1775226214.9243429,16:23:34.924
420,1775226214.9375055,16:23:34.937
421,1775226214.9394956,16:23:34.939
422,1775226214.9547467,16:23:34.954
423,1775226214.9870148,16:23:34.987
424,1775226214.9918423,16:23:34.991
425,1775226215.0009928,16:23:35.000
426,1775226215.0042157,16:23:35.004
427,1775226215.0174465,16:23:35.017
428,1775226215.0214314,16:23:35.021
429,1775226215.0331082,16:23:35.033
430,1775226215.0373986,16:23:35.037
431,1775226215.048631,16:23:35.048
432,1775226215.065811,16:23:35.065
433,1775226215.0701537,16:23:35.070
434,1775226215.0977728,16:23:35.097
435,1775226215.1017146,16:23:35.101
436,1775226215.1126926,16:23:35.112
437,1775226215.116731,16:23:35.116
438,1775226215.129475,16:23:35.129
439,1775226215.1325161,16:23:35.132
440,1775226215.1452498,16:23:35.145
441,1775226215.148282,16:23:35.148
442,1775226215.1606944,16:23:35.160
443,1775226215.1646798,16:23:35.164
444,1775226215.176034,16:23:35.176
445,1775226215.208052,16:23:35.208
446,1775226215.2120554,16:23:35.212
447,1775226215.2239554,16:23:35.223
448,1775226215.226976,16:23:35.226
449,1775226215.2406967,16:23:35.240
450,1775226215.2436457,16:23:35.243
451,1775226215.256351,16:23:35.256
452,1775226215.2593396,16:23:35.259
453,1775226215.2719383,16:23:35.271
454,1775226215.274928,16:23:35.274
455,1775226215.288968,16:23:35.288
456,1775226215.305166,16:23:35.305
457,1775226215.3163588,16:23:35.316
458,1775226215.3207932,16:23:35.320
459,1775226215.3362355,16:23:35.336
460,1775226215.3402386,16:23:35.340
461,1775226215.352617,16:23:35.352
462,1775226215.3557951,16:23:35.355
463,1775226215.3681357,16:23:35.368
464,1775226215.3712215,16:23:35.371
465,1775226215.3847609,16:23:35.384
466,1775226215.388792,16:23:35.388
467,1775226215.4064105,16:23:35.406
468,1775226215.4248912,16:23:35.424
469,1775226215.4318893,16:23:35.431
470,1775226215.4349368,16:23:35.434
471,1775226215.4480352,16:23:35.448
472,1775226215.4640276,16:23:35.464
473,1775226215.4680128,16:23:35.468
474,1775226215.4820979,16:23:35.482
475,1775226215.4850898,16:23:35.485
476,1775226215.496524,16:23:35.496
477,1775226215.499515,16:23:35.499
478,1775226215.5131598,16:23:35.513
479,1775226215.539721,16:23:35.539
480,1775226215.5450783,16:23:35.545
481,1775226215.5480816,16:23:35.548
482,1775226215.5608842,16:23:35.560
483,1775226215.5638773,16:23:35.563
484,1775226215.5764043,16:23:35.576
485,1775226215.591828,16:23:35.591
486,1775226215.5958376,16:23:35.595
487,1775226215.607918,16:23:35.607
488,1775226215.612913,16:23:35.612
489,1775226215.642357,16:23:35.642
490,1775226215.6564915,16:23:35.656
491,1775226215.6595402,16:23:35.659
492,1775226215.6723726,16:23:35.672
493,1775226215.6754477,16:23:35.675
494,1775226215.6881304,16:23:35.688
495,1775226215.6917028,16:23:35.691
496,1775226215.704273,16:23:35.704
497,1775226215.7073002,16:23:35.707
498,1775226215.7212756,16:23:35.721
499,1775226215.746319,16:23:35.746
500,1775226215.7522805,16:23:35.752
501,1775226215.7562728,16:23:35.756
502,1775226215.7689984,16:23:35.768
503,1775226215.771987,16:23:35.771
504,1775226215.7846863,16:23:35.784
505,1775226215.787758,16:23:35.787
506,1775226215.800816,16:23:35.800
507,1775226215.8043923,16:23:35.804
508,1775226215.8164246,16:23:35.816
509,1775226215.82288,16:23:35.822
510,1775226215.8400204,16:23:35.840
511,1775226215.8590221,16:23:35.859
512,1775226215.8650255,16:23:35.865
513,1775226215.8679748,16:23:35.867
514,1775226215.880966,16:23:35.880
515,1775226215.8840127,16:23:35.884
516,1775226215.8968549,16:23:35.896
517,1775226215.8989072,16:23:35.898
518,1775226215.9123259,16:23:35.912
519,1775226215.916369,16:23:35.916
520,1775226215.9283257,16:23:35.928
521,1775226215.9323719,16:23:35.932
522,1775226215.9463239,16:23:35.946
523,1775226215.9676013,16:23:35.967
524,1775226215.972703,16:23:35.972
525,1775226215.9766471,16:23:35.976
526,1775226215.9796264,16:23:35.979
527,1775226215.9922163,16:23:35.992
528,1775226216.0090172,16:23:36.009
529,1775226216.0124292,16:23:36.012
530,1775226216.0243397,16:23:36.024
531,1775226216.028342,16:23:36.028
532,1775226216.040139,16:23:36.040
533,1775226216.044145,16:23:36.044
534,1775226216.0628123,16:23:36.062
535,1775226216.0816095,16:23:36.081
536,1775226216.0886114,16:23:36.088
537,1775226216.091605,16:23:36.091
538,1775226216.104143,16:23:36.104
539,1775226216.1071742,16:23:36.107
540,1775226216.1202357,16:23:36.120
