# FW/GUI: v9.6.1-multi17-dual (PyQt5)
# StartTime: 2026-04-03 16:26:11
# Slot: 13
# DeviceID: 13
# Label: EMG13
# IP: 192.168.137.206
# TCP: 3333
# DeviceFW: EMG_FW_v9.6_MULTI17_DUALCH_RUNTIMECFG_CHEN
# EMG column notes: EMG_t_s=seconds since this Start; sample_idx=device sample index (ADS frame index); fs=sample rate (SPS); gain=gain; flags=0x01(TEST) 0x02(SHORT) 0x04(RLD); emg_valid=1 valid / 0 invalid (spike-guard decision); ch1_raw_uV=raw uV (after spike guard); ch1_filt_uV=filtered uV; ch1_env_uV=envelope (RMS) uV
EMG_t_s,sample_idx,fs,gain,flags,emg_valid,ch1_raw_uV,ch1_filt_uV,ch1_env_uV,ch2_raw_uV,ch2_filt_uV,ch2_env_uV
0.000000,1025371,1000.00,12,0,1,-41.195,-3.025,2.266,1087.752,-1.603,1.121
0.001000,1025372,1000.00,12,0,1,-45.807,-6.000,2.411,1089.073,1.064,1.091
0.002000,1025373,1000.00,12,0,1,-45.928,-7.745,2.636,1089.770,0.953,1.071
0.003000,1025374,1000.00,12,0,1,-41.460,-2.892,2.662,1088.665,0.420,1.072
0.004000,1025375,1000.00,12,0,1,-35.815,1.152,2.648,1088.184,-0.544,1.068
0.005000,1025376,1000.00,12,0,1,-33.629,2.628,2.669,1089.001,0.272,1.066
0.006000,1025377,1000.00,12,0,1,-34.422,0.281,2.659,1090.731,1.779,1.085
0.007000,1025378,1000.00,12,0,1,-33.989,-0.626,2.659,1089.842,1.050,1.095
0.008000,1025379,1000.00,12,0,1,-30.506,1.789,2.670,1089.674,0.346,1.096
0.009000,1025380,1000.00,12,0,1,-27.960,3.805,2.720,1089.289,0.172,1.095
0.010000,1025381,1000.00,12,0,1,-28.921,2.814,2.742,1088.425,-0.651,1.091
0.011000,1025382,1000.00,12,0,1,-33.293,-1.016,2.737,1089.770,0.281,1.089
0.012000,1025383,1000.00,12,0,1,-35.214,-2.366,2.702,1090.154,1.208,1.101
0.013000,1025384,1000.00,12,0,1,-34.277,-0.100,2.689,1088.257,-0.725,1.067
0.014000,1025385,1000.00,12,0,1,-32.524,2.773,2.707,1089.842,0.315,1.060
0.015000,1025386,1000.00,12,0,1,-32.980,3.556,2.753,1089.193,0.589,1.063
0.016000,1025387,1000.00,12,0,1,-32.188,4.309,2.820,1089.482,-0.006,1.060
0.017000,1025388,1000.00,12,0,1,-34.013,3.605,2.834,1089.482,0.652,1.051
0.018000,1025389,1000.00,12,0,1,-40.931,-2.456,2.821,1088.761,-0.386,1.050
0.019000,1025390,1000.00,12,0,1,-40.571,-3.159,2.855,1091.115,1.409,1.068
0.020000,1025391,1000.00,12,0,1,-44.078,-3.987,2.900,1090.635,1.582,1.091
0.021000,1025392,1000.00,12,0,1,-41.243,-3.872,2.952,1089.073,-0.717,1.089
0.022000,1025393,1000.00,12,0,1,-39.442,-0.254,2.923,1089.337,-0.371,1.084
0.023000,1025394,1000.00,12,0,1,-37.640,-1.121,2.927,1091.523,1.207,1.055
0.024000,1025395,1000.00,12,0,1,-35.406,0.702,2.899,1092.172,2.034,1.093
0.025000,1025396,1000.00,12,0,1,-34.494,-0.111,2.897,1089.241,-0.877,1.093
0.026000,1025397,1000.00,12,0,1,-33.076,-0.167,2.896,1087.536,-2.852,1.164
0.027000,1025398,1000.00,12,0,1,-31.972,0.127,2.870,1088.689,-1.533,1.148
0.028000,1025399,1000.00,12,0,1,-28.969,1.390,2.812,1089.578,-0.327,1.149
0.029000,1025400,1000.00,12,0,1,-28.561,2.212,2.820,1089.361,-0.393,1.148
0.030000,1025401,1000.00,12,0,1,-28.008,1.408,2.811,1090.611,0.481,1.147
0.031000,1025402,1000.00,12,0,1,-31.972,-0.568,2.796,1093.133,2.745,1.210
0.032000,1025403,1000.00,12,0,1,-35.791,-4.356,2.857,1090.394,0.699,1.211
0.033000,1025404,1000.00,12,0,1,-34.277,-1.295,2.798,1089.001,-1.670,1.223
0.034000,1025405,1000.00,12,0,1,-34.446,0.597,2.759,1092.364,1.537,1.240
0.035000,1025406,1000.00,12,0,1,-38.145,-1.358,2.757,1090.875,0.959,1.201
0.036000,1025407,1000.00,12,0,1,-37.232,0.065,2.757,1090.659,-0.498,1.161
0.037000,1025408,1000.00,12,0,1,-39.802,0.106,2.740,1091.788,1.154,1.144
0.038000,1025409,1000.00,12,0,1,-42.276,-2.334,2.747,1091.595,0.574,1.110
0.039000,1025410,1000.00,12,0,1,-40.379,0.079,2.745,1089.650,-0.985,1.077
0.040000,1025411,1000.00,12,0,1,-40.018,0.921,2.747,1090.563,-0.826,1.075
0.041000,1025412,1000.00,12,0,1,-37.256,1.981,2.746,1091.043,0.297,1.074
0.042000,1025413,1000.00,12,0,1,-37.280,2.055,2.742,1090.803,-0.338,1.074
0.043000,1025414,1000.00,12,0,1,-35.382,1.018,2.697,1089.265,-1.400,1.084
0.044000,1025415,1000.00,12,0,1,-35.406,0.817,2.688,1088.521,-2.282,1.123
0.045000,1025416,1000.00,12,0,1,-34.878,-1.234,2.690,1090.010,-0.776,1.128
0.046000,1025417,1000.00,12,0,1,-33.293,-0.355,2.663,1089.530,-0.551,1.128
0.047000,1025418,1000.00,12,0,1,-29.017,1.790,2.552,1090.274,-0.506,1.113
0.048000,1025419,1000.00,12,0,1,-28.753,2.141,2.521,1091.403,1.073,1.122
0.049000,1025420,1000.00,12,0,1,-30.891,-0.972,2.505,1090.755,0.241,1.122
0.050000,1025421,1000.00,12,0,1,-31.972,-1.827,2.481,1090.731,0.051,1.099
0.051000,1025422,1000.00,12,0,1,-32.812,-1.742,2.345,1090.827,0.208,1.089
0.052000,1025423,1000.00,12,0,1,-32.092,-0.402,2.074,1091.884,0.892,1.088
0.053000,1025424,1000.00,12,0,1,-29.329,3.336,2.087,1091.307,0.713,1.091
0.054000,1025425,1000.00,12,0,1,-33.100,1.688,2.094,1089.722,-1.037,1.098
0.055000,1025426,1000.00,12,0,1,-35.599,-0.669,2.063,1089.554,-1.112,1.109
0.056000,1025427,1000.00,12,0,1,-38.481,-1.175,2.070,1089.145,-1.077,1.090
0.057000,1025428,1000.00,12,0,1,-40.739,-2.674,2.102,1090.875,0.223,1.081
0.058000,1025429,1000.00,12,0,1,-38.337,0.269,2.087,1089.554,-0.003,1.080
0.059000,1025430,1000.00,12,0,1,-40.403,-0.060,2.017,1088.617,-1.597,1.103
0.060000,1025431,1000.00,12,0,1,-40.403,-1.495,1.988,1088.521,-0.948,1.107
0.061000,1025432,1000.00,12,0,1,-38.505,0.759,1.986,1088.208,-1.226,1.120
0.062000,1025433,1000.00,12,0,1,-38.769,-0.559,1.959,1089.482,0.012,1.107
0.063000,1025434,1000.00,12,0,1,-36.175,0.310,1.960,1089.049,0.163,1.102
0.064000,1025435,1000.00,12,0,1,-33.917,1.501,1.932,1088.905,-0.450,1.103
0.065000,1025436,1000.00,12,0,1,-32.116,1.222,1.873,1088.689,-0.159,1.100
0.066000,1025437,1000.00,12,0,1,-28.008,3.269,1.830,1091.115,1.322,1.116
0.067000,1025438,1000.00,12,0,1,-26.351,3.673,1.833,1088.737,0.375,1.113
0.068000,1025439,1000.00,12,0,1,-29.714,-0.443,1.801,1089.890,-0.343,1.113
0.069000,1025440,1000.00,12,0,1,-32.356,-3.756,1.824,1090.707,1.762,1.123
0.070000,1025441,1000.00,12,0,1,-29.473,-1.113,1.742,1089.073,-0.434,1.102
0.071000,1025442,1000.00,12,0,1,-29.329,0.629,1.656,1088.929,-0.543,1.100
0.072000,1025443,1000.00,12,0,1,-29.593,0.398,1.656,1089.073,-0.117,1.099
0.073000,1025444,1000.00,12,0,1,-26.159,4.325,1.758,1089.602,0.201,1.086
0.074000,1025445,1000.00,12,0,1,-28.008,4.233,1.855,1090.322,1.159,1.060
0.075000,1025446,1000.00,12,0,1,-33.149,-0.342,1.855,1089.986,0.703,1.058
0.076000,1025447,1000.00,12,0,1,-35.406,-1.546,1.868,1089.313,0.172,0.978
0.077000,1025448,1000.00,12,0,1,-36.728,-1.519,1.880,1088.353,-0.717,0.959
0.078000,1025449,1000.00,12,0,1,-37.160,-1.257,1.878,1089.073,-0.099,0.958
0.079000,1025450,1000.00,12,0,1,-34.157,1.482,1.864,1089.818,0.837,0.964
0.080000,1025451,1000.00,12,0,1,-36.127,0.492,1.855,1089.842,0.771,0.968
0.081000,1025452,1000.00,12,0,1,-35.719,-1.223,1.861,1089.794,0.588,0.890
0.082000,1025453,1000.00,12,0,1,-35.286,-0.597,1.758,1088.545,-0.424,0.887
0.083000,1025454,1000.00,12,0,1,-38.481,-4.676,1.869,1087.800,-1.347,0.876
0.084000,1025455,1000.00,12,0,1,-37.736,-5.359,2.015,1086.863,-1.736,0.883
0.085000,1025456,1000.00,12,0,1,-35.046,-2.987,2.050,1090.202,0.633,0.877
0.086000,1025457,1000.00,12,0,1,-33.437,-2.324,2.076,1089.169,1.073,0.887
0.087000,1025458,1000.00,12,0,1,-31.323,-0.982,2.081,1090.394,0.445,0.875
0.088000,1025459,1000.00,12,0,1,-32.812,-2.201,2.078,1090.514,1.711,0.904
0.089000,1025460,1000.00,12,0,1,-31.035,-1.540,2.089,1090.563,0.563,0.896
0.090000,1025461,1000.00,12,0,1,-33.557,-1.832,2.101,1092.196,2.127,0.938
0.091000,1025462,1000.00,12,0,1,-31.875,-1.280,2.090,1089.025,-0.344,0.939
0.092000,1025463,1000.00,12,0,1,-32.116,1.416,2.080,1088.401,-2.099,0.983
0.093000,1025464,1000.00,12,0,1,-33.437,0.269,2.075,1089.313,-0.170,0.964
0.094000,1025465,1000.00,12,0,1,-38.049,-1.372,2.081,1087.728,-1.640,0.937
0.095000,1025466,1000.00,12,0,1,-37.376,-0.687,2.076,1088.977,-0.590,0.934
0.096000,1025467,1000.00,12,0,1,-35.791,3.284,2.127,1090.851,1.557,0.957
0.097000,1025468,1000.00,12,0,1,-37.977,2.100,2.132,1090.490,1.251,0.970
0.098000,1025469,1000.00,12,0,1,-42.421,-1.302,2.119,1088.977,-0.274,0.959
0.099000,1025470,1000.00,12,0,1,-42.877,-1.618,2.127,1087.656,-1.458,0.980
0.100000,1025471,1000.00,12,0,1,-44.582,-2.107,2.132,1088.449,-0.798,0.987
0.101000,1025472,1000.00,12,0,1,-42.781,-1.310,2.126,1089.073,0.225,0.987
0.102000,1025473,1000.00,12,0,1,-39.706,1.576,2.137,1089.530,0.411,0.981
0.103000,1025474,1000.00,12,0,1,-38.553,1.637,2.097,1090.779,1.427,0.996
0.104000,1025475,1000.00,12,0,1,-38.553,0.256,2.083,1090.587,1.231,1.000
0.105000,1025476,1000.00,12,0,1,-36.752,0.475,2.082,1091.115,1.030,0.999
0.106000,1025477,1000.00,12,0,1,-33.653,2.002,2.095,1088.473,-0.810,0.994
0.107000,1025478,1000.00,12,0,1,-25.798,7.175,2.297,1089.578,-1.091,1.005
0.108000,1025479,1000.00,12,0,1,-24.285,8.229,2.574,1091.019,1.250,1.021
0.109000,1025480,1000.00,12,0,1,-24.429,5.300,2.681,1090.731,0.389,0.997
0.110000,1025481,1000.00,12,0,1,-30.819,0.144,2.673,1090.442,0.151,0.988
0.111000,1025482,1000.00,12,0,1,-39.130,-8.021,2.902,1090.851,0.298,0.973
0.112000,1025483,1000.00,12,0,1,-40.859,-8.120,3.120,1091.812,1.055,0.985
0.113000,1025484,1000.00,12,0,1,-37.592,-2.783,3.144,1090.250,-0.010,0.985
0.114000,1025485,1000.00,12,0,1,-39.850,-1.830,3.148,1088.761,-1.844,1.017
0.115000,1025486,1000.00,12,0,1,-38.817,-0.417,3.143,1091.836,0.869,1.024
0.116000,1025487,1000.00,12,0,1,-45.519,-2.681,3.132,1092.076,1.820,1.039
0.117000,1025488,1000.00,12,0,1,-46.432,-4.503,3.154,1090.370,-0.333,1.039
0.118000,1025489,1000.00,12,0,1,-44.943,0.084,3.153,1089.962,-0.717,1.042
0.119000,1025490,1000.00,12,0,1,-43.333,1.236,3.113,1091.667,0.644,1.016
0.120000,1025491,1000.00,12,0,1,-45.303,0.491,3.110,1089.434,-0.635,1.018
0.121000,1025492,1000.00,12,0,1,-45.039,-0.676,3.110,1088.809,-2.109,1.058
0.122000,1025493,1000.00,12,0,1,-39.802,3.241,3.143,1089.001,-1.101,1.070
0.123000,1025494,1000.00,12,0,1,-35.094,6.514,3.218,1091.091,0.267,1.070
0.124000,1025495,1000.00,12,0,1,-33.605,5.516,3.256,1091.091,0.951,1.066
0.125000,1025496,1000.00,12,0,1,-37.088,0.992,3.259,1089.025,-1.359,1.078
0.126000,1025497,1000.00,12,0,1,-35.190,-0.554,3.253,1089.722,-1.057,1.088
0.127000,1025498,1000.00,12,0,1,-29.930,4.072,3.296,1090.322,0.056,1.084
0.128000,1025499,1000.00,12,0,1,-28.609,3.930,3.338,1090.010,-0.535,1.086
0.129000,1025500,1000.00,12,0,1,-31.755,0.612,3.333,1089.241,-0.901,1.087
0.130000,1025501,1000.00,12,0,1,-33.413,-1.732,3.341,1088.016,-2.013,1.119
0.131000,1025502,1000.00,12,0,1,-34.037,-1.221,3.341,1088.281,-1.541,1.137
0.132000,1025503,1000.00,12,0,1,-34.734,-0.952,3.343,1090.154,0.357,1.136
0.133000,1025504,1000.00,12,0,1,-36.007,-0.617,3.278,1090.154,0.869,1.127
0.134000,1025505,1000.00,12,0,1,-37.568,-0.620,3.190,1089.938,0.318,1.101
0.135000,1025506,1000.00,12,0,1,-37.929,0.282,3.162,1090.635,1.065,1.107
0.136000,1025507,1000.00,12,0,1,-39.466,0.536,3.146,1089.289,0.115,1.097
0.137000,1025508,1000.00,12,0,1,-41.580,-0.727,3.145,1090.418,0.483,1.097
0.138000,1025509,1000.00,12,0,1,-40.475,0.699,3.131,1088.953,0.195,1.071
0.139000,1025510,1000.00,12,0,1,-38.529,2.747,3.147,1090.923,0.628,1.071
0.140000,1025511,1000.00,12,0,1,-40.307,0.999,3.140,1089.890,1.189,1.042
0.141000,1025512,1000.00,12,0,1,-38.409,0.759,3.136,1089.650,-0.474,1.043
0.142000,1025513,1000.00,12,0,1,-38.673,0.559,3.131,1089.410,0.221,1.000
0.143000,1025514,1000.00,12,0,1,-37.064,-0.662,3.132,1089.458,-0.349,1.001
0.144000,1025515,1000.00,12,0,1,-34.085,1.281,3.131,1090.779,0.937,0.983
0.145000,1025516,1000.00,12,0,1,-32.356,0.943,3.133,1090.106,0.550,0.982
0.146000,1025517,1000.00,12,0,1,-29.041,2.074,3.112,1089.169,-0.863,0.965
0.147000,1025518,1000.00,12,0,1,-27.624,2.409,3.116,1089.914,-0.033,0.949
0.148000,1025519,1000.00,12,0,1,-29.930,-0.905,3.114,1090.755,0.580,0.952
0.149000,1025520,1000.00,12,0,1,-32.956,-3.946,3.155,1090.923,0.817,0.936
0.150000,1025521,1000.00,12,0,1,-33.797,-4.493,3.204,1089.650,-0.466,0.932
0.151000,1025522,1000.00,12,0,1,-38.721,-6.583,3.332,1091.331,0.548,0.934
0.152000,1025523,1000.00,12,0,1,-41.171,-8.007,3.512,1090.851,0.828,0.940
0.153000,1025524,1000.00,12,0,1,-38.001,-2.447,3.521,1088.473,-1.739,0.950
0.154000,1025525,1000.00,12,0,1,-31.731,4.786,3.586,1089.722,-0.777,0.941
0.155000,1025526,1000.00,12,0,1,-27.263,10.113,3.860,1089.818,0.151,0.930
0.156000,1025527,1000.00,12,0,1,-31.371,6.978,3.974,1090.635,0.288,0.923
0.157000,1025528,1000.00,12,0,1,-44.751,-4.825,3.902,1089.938,0.422,0.912
0.158000,1025529,1000.00,12,0,1,-51.380,-11.230,4.049,1087.968,-1.724,0.928
0.159000,1025530,1000.00,12,0,1,-43.165,-2.857,4.000,1089.001,-0.773,0.933
0.160000,1025531,1000.00,12,0,1,-43.525,-0.044,3.999,1090.130,0.729,0.938
0.161000,1025532,1000.00,12,0,1,-42.805,-2.121,3.847,1089.890,0.408,0.939
0.162000,1025533,1000.00,12,0,1,-37.809,2.882,3.694,1091.235,1.277,0.944
0.163000,1025534,1000.00,12,0,1,-34.085,4.339,3.724,1090.563,0.970,0.954
0.164000,1025535,1000.00,12,0,1,-33.149,3.727,3.752,1089.890,-0.301,0.919
0.165000,1025536,1000.00,12,0,1,-30.698,3.278,3.780,1090.851,0.538,0.914
0.166000,1025537,1000.00,12,0,1,-32.044,1.214,3.765,1090.635,0.419,0.879
0.167000,1025538,1000.00,12,0,1,-32.716,-1.523,3.717,1089.289,-0.991,0.889
0.168000,1025539,1000.00,12,0,1,-32.908,-1.741,3.725,1089.866,-0.677,0.888
0.169000,1025540,1000.00,12,0,1,-30.530,-0.207,3.721,1091.764,1.115,0.897
0.170000,1025541,1000.00,12,0,1,-32.116,-0.329,3.721,1090.010,-0.022,0.893
0.171000,1025542,1000.00,12,0,1,-32.788,-1.179,3.723,1091.115,-0.094,0.842
0.172000,1025543,1000.00,12,0,1,-31.251,1.569,3.702,1089.602,-0.181,0.828
0.173000,1025544,1000.00,12,0,1,-30.987,3.006,3.610,1089.650,-1.299,0.847
0.174000,1025545,1000.00,12,0,1,-34.013,1.368,3.530,1090.563,0.500,0.839
0.175000,1025546,1000.00,12,0,1,-39.106,-1.969,3.539,1090.370,0.064,0.817
0.176000,1025547,1000.00,12,0,1,-41.195,-3.100,3.565,1089.962,-0.155,0.803
0.177000,1025548,1000.00,12,0,1,-40.739,-0.950,3.521,1089.962,-0.148,0.804
0.178000,1025549,1000.00,12,0,1,-39.826,0.479,3.477,1089.482,-0.452,0.803
0.179000,1025550,1000.00,12,0,1,-42.925,-1.259,3.480,1089.289,-0.555,0.796
0.180000,1025551,1000.00,12,0,1,-42.685,-2.307,3.487,1089.866,-0.070,0.744
0.181000,1025552,1000.00,12,0,1,-44.126,-2.529,3.501,1091.571,1.459,0.740
0.182000,1025553,1000.00,12,0,1,-41.820,-2.475,3.516,1089.602,0.048,0.739
0.183000,1025554,1000.00,12,0,1,-37.809,1.261,3.520,1087.128,-2.661,0.820
0.184000,1025555,1000.00,12,0,1,-37.496,0.208,3.519,1088.208,-1.630,0.850
0.185000,1025556,1000.00,12,0,1,-38.673,-2.231,3.532,1088.809,-0.385,0.839
0.186000,1025557,1000.00,12,0,1,-34.614,-0.176,3.532,1089.073,-0.372,0.840
0.187000,1025558,1000.00,12,0,1,-34.302,0.475,3.531,1087.320,-1.311,0.858
0.188000,1025559,1000.00,12,0,1,-33.365,-0.306,3.530,1088.689,-0.823,0.865
0.189000,1025560,1000.00,12,0,1,-33.797,0.092,3.508,1088.833,0.474,0.863
0.190000,1025561,1000.00,12,0,1,-34.494,-0.762,3.507,1089.001,-0.086,0.847
0.191000,1025562,1000.00,12,0,1,-34.974,-0.104,3.506,1088.689,0.267,0.845
0.192000,1025563,1000.00,12,0,1,-34.350,1.347,3.510,1089.217,0.309,0.845
0.193000,1025564,1000.00,12,0,1,-35.767,1.660,3.516,1087.392,-0.584,0.848
0.194000,1025565,1000.00,12,0,1,-35.455,2.581,3.531,1086.767,-1.605,0.868
0.195000,1025566,1000.00,12,0,1,-35.479,4.011,3.573,1089.386,1.062,0.877
0.196000,1025567,1000.00,12,0,1,-36.848,3.386,3.593,1089.746,1.982,0.913
0.197000,1025568,1000.00,12,0,1,-44.799,-2.329,3.592,1090.442,1.793,0.947
0.198000,1025569,1000.00,12,0,1,-47.969,-5.763,3.681,1090.370,2.142,0.991
0.199000,1025570,1000.00,12,0,1,-46.528,-2.765,3.660,1089.722,0.843,0.992
0.200000,1025571,1000.00,12,0,1,-42.300,0.895,3.606,1089.962,1.061,1.001
0.201000,1025572,1000.00,12,0,1,-35.647,6.248,3.595,1091.980,2.320,1.050
0.202000,1025573,1000.00,12,0,1,-37.328,4.362,3.467,1091.595,2.230,1.090
0.203000,1025574,1000.00,12,0,1,-40.331,-1.544,3.456,1089.770,-0.161,1.063
0.204000,1025575,1000.00,12,0,1,-37.833,-0.571,3.390,1088.233,-1.545,1.079
0.205000,1025576,1000.00,12,0,1,-35.887,0.082,3.074,1089.578,-0.684,1.083
0.206000,1025577,1000.00,12,0,1,-34.446,-0.042,2.911,1090.707,0.800,1.089
0.207000,1025578,1000.00,12,0,1,-33.100,0.213,2.830,1091.355,0.984,1.096
0.208000,1025579,1000.00,12,0,1,-35.455,-2.100,2.362,1091.307,0.880,1.076
0.209000,1025580,1000.00,12,0,1,-39.970,-6.190,2.486,1090.755,0.094,1.070
0.210000,1025581,1000.00,12,0,1,-34.518,-1.680,2.497,1089.049,-1.398,1.083
0.211000,1025582,1000.00,12,0,1,-26.327,7.654,2.705,1086.959,-3.163,1.171
0.212000,1025583,1000.00,12,0,1,-31.419,4.451,2.747,1087.920,-2.324,1.202
0.213000,1025584,1000.00,12,0,1,-37.905,-2.228,2.697,1089.674,0.017,1.194
0.214000,1025585,1000.00,12,0,1,-39.202,-1.724,2.656,1089.938,0.311,1.195
0.215000,1025586,1000.00,12,0,1,-38.241,0.525,2.616,1089.001,-0.374,1.193
0.216000,1025587,1000.00,12,0,1,-39.970,0.844,2.613,1088.184,-1.186,1.204
0.217000,1025588,1000.00,12,0,1,-42.252,-0.755,2.606,1090.322,0.590,1.198
0.218000,1025589,1000.00,12,0,1,-39.514,1.898,2.609,1090.106,1.084,1.204
0.219000,1025590,1000.00,12,0,1,-36.656,4.956,2.701,1089.746,0.027,1.194
0.220000,1025591,1000.00,12,0,1,-36.680,3.905,2.756,1090.659,1.015,1.202
0.221000,1025592,1000.00,12,0,1,-36.439,2.582,2.776,1091.595,1.584,1.223
0.222000,1025593,1000.00,12,0,1,-36.127,1.342,2.773,1090.082,0.359,1.224
0.223000,1025594,1000.00,12,0,1,-34.686,0.728,2.742,1089.698,-0.645,1.213
0.224000,1025595,1000.00,12,0,1,-33.797,0.100,2.735,1089.121,-0.704,1.215
0.225000,1025596,1000.00,12,0,1,-32.452,-0.590,2.723,1089.169,-0.942,1.223
0.226000,1025597,1000.00,12,0,1,-31.996,-1.192,2.692,1089.097,-0.612,1.226
0.227000,1025598,1000.00,12,0,1,-30.146,-1.019,2.693,1090.875,0.636,1.229
0.228000,1025599,1000.00,12,0,1,-29.762,-0.733,2.694,1091.932,1.919,1.257
0.229000,1025600,1000.00,12,0,1,-29.810,-1.437,2.696,1087.176,-1.997,1.286
0.230000,1025601,1000.00,12,0,1,-29.882,-1.022,2.680,1086.983,-3.308,1.368
0.231000,1025602,1000.00,12,0,1,-33.821,-3.397,2.699,1087.248,-1.375,1.366
0.232000,1025603,1000.00,12,0,1,-38.217,-6.383,2.824,1088.953,-0.553,1.369
0.233000,1025604,1000.00,12,0,1,-39.442,-5.432,2.921,1090.370,1.707,1.338
0.234000,1025605,1000.00,12,0,1,-39.946,-3.487,2.963,1089.001,0.205,1.318
0.235000,1025606,1000.00,12,0,1,-40.979,-2.281,2.963,1087.992,-0.846,1.322
0.236000,1025607,1000.00,12,0,1,-37.160,2.016,2.977,1090.563,1.227,1.333
0.237000,1025608,1000.00,12,0,1,-41.796,0.793,2.978,1090.490,1.765,1.343
0.238000,1025609,1000.00,12,0,1,-45.807,-4.088,3.034,1091.091,1.348,1.352
0.239000,1025610,1000.00,12,0,1,-46.024,-2.618,3.056,1088.233,-0.446,1.351
0.240000,1025611,1000.00,12,0,1,-44.606,-1.519,3.062,1088.953,-1.105,1.360
0.241000,1025612,1000.00,12,0,1,-38.433,3.429,3.100,1089.794,0.789,1.364
0.242000,1025613,1000.00,12,0,1,-35.455,5.832,3.202,1088.881,-0.449,1.365
0.243000,1025614,1000.00,12,0,1,-36.704,2.387,3.211,1089.337,-0.119,1.363
0.244000,1025615,1000.00,12,0,1,-34.037,2.516,3.210,1089.938,0.677,1.347
0.245000,1025616,1000.00,12,0,1,-28.921,5.368,3.250,1090.851,1.095,1.348
0.246000,1025617,1000.00,12,0,1,-28.873,4.187,3.268,1089.434,0.324,1.319
0.247000,1025618,1000.00,12,0,1,-28.849,1.658,3.260,1089.602,-0.456,1.296
0.248000,1025619,1000.00,12,0,1,-27.936,1.890,3.168,1089.650,0.359,1.261
0.249000,1025620,1000.00,12,0,1,-31.996,-1.827,3.154,1089.794,-0.096,1.255
0.250000,1025621,1000.00,12,0,1,-37.736,-6.797,3.295,1091.259,1.371,1.261
0.251000,1025622,1000.00,12,0,1,-36.319,-4.789,3.246,1092.532,2.266,1.260
0.252000,1025623,1000.00,12,0,1,-36.295,-1.741,3.196,1091.475,1.239,1.232
0.253000,1025624,1000.00,12,0,1,-39.106,-2.934,3.215,1091.091,0.217,1.232
0.254000,1025625,1000.00,12,0,1,-37.088,0.196,3.215,1090.971,0.189,1.213
0.255000,1025626,1000.00,12,0,1,-37.496,2.317,3.231,1091.764,0.516,1.211
0.256000,1025627,1000.00,12,0,1,-40.451,0.132,3.231,1089.289,-1.159,1.217
0.257000,1025628,1000.00,12,0,1,-42.012,-0.317,3.231,1090.226,-1.341,1.224
0.258000,1025629,1000.00,12,0,1,-43.261,-0.834,3.220,1089.337,-0.824,1.223
0.259000,1025630,1000.00,12,0,1,-41.412,0.641,3.100,1089.482,-1.584,1.243
0.260000,1025631,1000.00,12,0,1,-38.529,3.144,3.123,1092.076,1.221,1.240
0.261000,1025632,1000.00,12,0,1,-34.518,5.156,3.018,1089.842,-0.235,1.157
0.262000,1025633,1000.00,12,0,1,-36.391,2.789,2.978,1089.193,-1.865,1.140
0.263000,1025634,1000.00,12,0,1,-35.238,0.405,2.962,1087.896,-1.800,1.168
0.264000,1025635,1000.00,12,0,1,-31.275,3.061,2.984,1087.080,-3.058,1.245
0.265000,1025636,1000.00,12,0,1,-25.102,5.881,3.097,1088.184,-1.232,1.256
0.266000,1025637,1000.00,12,0,1,-22.796,6.745,3.238,1088.040,-1.014,1.253
0.267000,1025638,1000.00,12,0,1,-28.392,-0.098,3.236,1090.298,0.741,1.254
0.268000,1025639,1000.00,12,0,1,-33.317,-6.118,3.339,1089.193,0.720,1.249
0.269000,1025640,1000.00,12,0,1,-30.867,-3.838,3.310,1090.202,0.359,1.250
0.270000,1025641,1000.00,12,0,1,-30.795,-1.969,3.275,1089.241,0.707,1.246
0.271000,1025642,1000.00,12,0,1,-33.221,-3.399,3.290,1088.569,-0.934,1.233
0.272000,1025643,1000.00,12,0,1,-36.800,-4.761,3.353,1088.833,-0.021,1.231
0.273000,1025644,1000.00,12,0,1,-39.322,-5.285,3.433,1088.329,-0.522,1.230
0.274000,1025645,1000.00,12,0,1,-37.376,-1.750,3.442,1087.824,-0.828,1.232
0.275000,1025646,1000.00,12,0,1,-39.658,-0.814,3.443,1088.521,-0.082,1.225
0.276000,1025647,1000.00,12,0,1,-40.787,-1.689,3.447,1091.211,2.156,1.259
0.277000,1025648,1000.00,12,0,1,-42.781,-1.200,3.449,1090.394,2.056,1.289
0.278000,1025649,1000.00,12,0,1,-44.751,-2.985,3.473,1089.794,0.409,1.262
0.279000,1025650,1000.00,12,0,1,-46.984,-3.786,3.508,1089.890,0.936,1.237
0.280000,1025651,1000.00,12,0,1,-47.032,-4.128,3.553,1087.440,-1.299,1.159
0.281000,1025652,1000.00,12,0,1,-39.850,1.714,3.529,1086.839,-2.053,1.179
0.282000,1025653,1000.00,12,0,1,-33.773,6.977,3.551,1088.569,-0.089,1.177
0.283000,1025654,1000.00,12,0,1,-37.857,1.912,3.478,1088.401,0.206,1.152
0.284000,1025655,1000.00,12,0,1,-36.487,-0.310,3.443,1089.241,0.536,1.154
0.285000,1025656,1000.00,12,0,1,-36.559,0.020,3.428,1089.337,1.037,1.157
0.286000,1025657,1000.00,12,0,1,-37.544,-2.887,3.440,1090.034,1.072,1.154
0.287000,1025658,1000.00,12,0,1,-39.250,-3.882,3.482,1087.920,-0.238,1.127
0.288000,1025659,1000.00,12,0,1,-38.049,-3.293,3.465,1088.809,-0.509,1.113
0.289000,1025660,1000.00,12,0,1,-40.163,-3.161,3.474,1089.289,0.880,1.119
0.290000,1025661,1000.00,12,0,1,-38.986,-2.151,3.481,1090.971,1.457,1.127
0.291000,1025662,1000.00,12,0,1,-38.265,1.070,3.450,1090.611,1.727,1.147
0.292000,1025663,1000.00,12,0,1,-38.889,1.468,3.357,1088.521,-0.774,1.151
0.293000,1025664,1000.00,12,0,1,-37.496,3.895,3.385,1089.554,-0.213,1.151
0.294000,1025665,1000.00,12,0,1,-39.730,3.867,3.410,1088.233,-0.500,1.149
0.295000,1025666,1000.00,12,0,1,-42.661,1.344,3.330,1087.656,-1.814,1.167
0.296000,1025667,1000.00,12,0,1,-47.945,-1.333,3.282,1090.034,0.853,1.173
0.297000,1025668,1000.00,12,0,1,-46.336,-0.665,3.275,1089.073,0.363,1.172
0.298000,1025669,1000.00,12,0,1,-42.829,4.500,3.326,1088.136,-0.931,1.178
0.299000,1025670,1000.00,12,0,1,-41.292,4.797,3.384,1090.394,1.045,1.187
0.300000,1025671,1000.00,12,0,1,-38.097,6.480,3.372,1090.370,1.502,1.191
0.301000,1025672,1000.00,12,0,1,-36.415,6.460,3.427,1090.803,1.049,1.156
0.302000,1025673,1000.00,12,0,1,-36.079,4.267,3.471,1091.139,1.579,1.164
0.303000,1025674,1000.00,12,0,1,-33.893,3.853,3.489,1090.010,0.177,1.164
0.304000,1025675,1000.00,12,0,1,-35.238,1.102,3.493,1091.884,1.220,1.177
0.305000,1025676,1000.00,12,0,1,-34.422,-0.801,3.479,1091.043,1.099,1.185
0.306000,1025677,1000.00,12,0,1,-32.692,0.093,3.479,1088.929,-1.633,1.196
0.307000,1025678,1000.00,12,0,1,-30.650,0.593,3.480,1088.713,-1.626,1.203
0.308000,1025679,1000.00,12,0,1,-30.290,0.726,3.479,1088.473,-1.602,1.218
0.309000,1025680,1000.00,12,0,1,-31.972,-1.054,3.481,1090.370,-0.079,1.198
0.310000,1025681,1000.00,12,0,1,-33.893,-2.430,3.470,1091.019,1.069,1.195
0.311000,1025682,1000.00,12,0,1,-34.878,-2.297,3.408,1090.346,0.010,1.194
0.312000,1025683,1000.00,12,0,1,-37.953,-3.318,3.417,1089.698,-0.497,1.167
0.313000,1025684,1000.00,12,0,1,-36.776,-1.484,3.423,1087.584,-2.198,1.181
0.314000,1025685,1000.00,12,0,1,-32.356,4.233,3.448,1087.464,-2.455,1.152
0.315000,1025686,1000.00,12,0,1,-32.908,4.976,3.420,1088.377,-0.950,1.147
0.316000,1025687,1000.00,12,0,1,-38.793,-0.150,3.284,1088.689,-0.504,1.140
0.317000,1025688,1000.00,12,0,1,-41.460,-2.810,3.308,1088.281,-0.582,1.138
0.318000,1025689,1000.00,12,0,1,-40.403,-1.323,3.198,1089.361,0.185,1.134
0.319000,1025690,1000.00,12,0,1,-39.130,-0.092,3.152,1089.554,0.812,1.138
0.320000,1025691,1000.00,12,0,1,-39.970,-1.225,3.144,1089.626,0.490,1.136
0.321000,1025692,1000.00,12,0,1,-39.130,-1.767,3.117,1090.298,1.117,1.139
0.322000,1025693,1000.00,12,0,1,-36.680,-0.449,3.044,1089.434,0.405,1.141
0.323000,1025694,1000.00,12,0,1,-34.277,0.367,2.952,1089.962,0.337,1.140
0.324000,1025695,1000.00,12,0,1,-31.611,1.155,2.946,1088.617,-0.222,1.134
0.325000,1025696,1000.00,12,0,1,-31.203,0.398,2.944,1088.785,-0.847,1.140
0.326000,1025697,1000.00,12,0,1,-27.912,1.190,2.939,1092.316,2.530,1.155
0.327000,1025698,1000.00,12,0,1,-30.122,-0.242,2.934,1091.836,2.429,1.170
0.328000,1025699,1000.00,12,0,1,-35.094,-6.002,3.025,1089.962,-0.116,1.169
0.329000,1025700,1000.00,12,0,1,-37.544,-7.151,3.145,1088.953,-0.911,1.168
0.330000,1025701,1000.00,12,0,1,-38.217,-6.263,3.214,1088.809,-1.153,1.165
0.331000,1025702,1000.00,12,0,1,-36.319,-2.797,3.230,1089.458,-0.320,1.129
0.332000,1025703,1000.00,12,0,1,-37.953,-1.524,3.083,1089.289,-0.268,1.130
0.333000,1025704,1000.00,12,0,1,-38.481,-1.224,3.076,1089.890,0.080,1.129
0.334000,1025705,1000.00,12,0,1,-38.889,0.882,3.078,1088.545,-0.590,1.130
0.335000,1025706,1000.00,12,0,1,-39.658,0.997,3.081,1090.082,-0.024,1.120
0.336000,1025707,1000.00,12,0,1,-38.265,3.186,3.087,1089.818,0.774,1.116
0.337000,1025708,1000.00,12,0,1,-39.946,2.599,3.060,1090.010,-0.019,1.115
0.338000,1025709,1000.00,12,0,1,-43.261,-0.744,3.026,1090.082,0.604,1.116
0.339000,1025710,1000.00,12,0,1,-45.423,-2.607,3.016,1087.560,-1.718,1.135
0.340000,1025711,1000.00,12,0,1,-43.285,-1.376,3.007,1087.608,-2.033,1.153
0.341000,1025712,1000.00,12,0,1,-40.018,1.507,3.010,1089.386,0.186,1.127
0.342000,1025713,1000.00,12,0,1,-36.920,2.823,3.030,1089.602,0.432,1.123
0.343000,1025714,1000.00,12,0,1,-36.199,2.369,2.998,1090.322,0.887,1.130
0.344000,1025715,1000.00,12,0,1,-36.079,0.503,2.948,1087.872,-0.846,1.134
0.345000,1025716,1000.00,12,0,1,-35.190,0.097,2.942,1089.770,-0.238,1.105
0.346000,1025717,1000.00,12,0,1,-35.455,-0.882,2.939,1090.322,1.507,1.119
0.347000,1025718,1000.00,12,0,1,-33.076,0.138,2.937,1088.737,-0.634,1.122
0.348000,1025719,1000.00,12,0,1,-34.037,0.176,2.868,1090.226,0.538,1.116
0.349000,1025720,1000.00,12,0,1,-33.917,-0.622,2.788,1089.626,0.629,1.110
0.350000,1025721,1000.00,12,0,1,-34.085,0.773,2.635,1089.650,-0.153,1.090
0.351000,1025722,1000.00,12,0,1,-34.398,0.768,2.474,1088.809,-0.138,1.080
0.352000,1025723,1000.00,12,0,1,-34.878,1.765,2.412,1086.647,-2.363,1.108
0.353000,1025724,1000.00,12,0,1,-38.169,0.112,2.350,1089.049,-0.319,1.109
0.354000,1025725,1000.00,12,0,1,-39.178,-0.204,2.345,1088.617,0.427,1.097
0.355000,1025726,1000.00,12,0,1,-41.123,0.093,2.342,1088.761,-0.343,1.087
0.356000,1025727,1000.00,12,0,1,-41.868,-0.404,2.343,1091.259,2.258,1.109
0.357000,1025728,1000.00,12,0,1,-42.012,0.757,2.344,1090.875,1.938,1.119
0.358000,1025729,1000.00,12,0,1,-43.862,-0.791,2.344,1090.010,0.512,1.098
0.359000,1025730,1000.00,12,0,1,-43.141,-0.573,2.341,1089.145,-0.174,1.098
0.360000,1025731,1000.00,12,0,1,-40.595,1.422,2.324,1090.514,0.460,1.090
0.361000,1025732,1000.00,12,0,1,-40.211,0.983,2.306,1089.674,0.419,1.092
0.362000,1025733,1000.00,12,0,1,-41.700,-1.589,2.269,1089.842,-0.377,1.091
0.363000,1025734,1000.00,12,0,1,-39.010,-1.001,2.263,1087.728,-1.289,1.061
0.364000,1025735,1000.00,12,0,1,-34.398,2.394,2.209,1088.857,-1.351,1.021
0.365000,1025736,1000.00,12,0,1,-29.930,4.633,2.194,1088.929,0.043,1.012
0.366000,1025737,1000.00,12,0,1,-33.149,1.357,2.202,1088.929,-0.670,1.014
0.367000,1025738,1000.00,12,0,1,-36.608,-3.875,2.234,1088.281,-0.581,1.014
0.368000,1025739,1000.00,12,0,1,-31.875,0.061,2.226,1089.289,-0.121,1.014
0.369000,1025740,1000.00,12,0,1,-30.602,2.597,2.256,1088.713,0.043,1.007
0.370000,1025741,1000.00,12,0,1,-29.714,2.488,2.277,1089.337,0.057,1.005
0.371000,1025742,1000.00,12,0,1,-32.716,1.555,2.274,1088.785,0.136,0.992
0.372000,1025743,1000.00,12,0,1,-40.931,-5.259,2.392,1088.545,-0.446,0.993
0.373000,1025744,1000.00,12,0,1,-43.742,-6.602,2.567,1091.235,1.769,1.023
0.374000,1025745,1000.00,12,0,1,-37.857,0.518,2.563,1090.442,1.742,1.052
0.375000,1025746,1000.00,12,0,1,-37.448,3.659,2.614,1090.923,0.805,1.051
0.376000,1025747,1000.00,12,0,1,-40.763,0.526,2.610,1088.160,-0.478,0.990
0.377000,1025748,1000.00,12,0,1,-40.283,1.125,2.614,1087.824,-2.228,0.981
0.378000,1025749,1000.00,12,0,1,-39.322,2.349,2.495,1089.049,0.067,0.981
0.379000,1025750,1000.00,12,0,1,-42.925,-1.006,2.285,1089.674,0.226,0.973
0.380000,1025751,1000.00,12,0,1,-45.255,-4.179,2.188,1090.082,0.795,0.966
0.381000,1025752,1000.00,12,0,1,-44.775,-4.005,2.225,1087.944,-0.929,0.973
0.382000,1025753,1000.00,12,0,1,-44.342,-3.898,2.282,1087.632,-1.757,1.004
0.383000,1025754,1000.00,12,0,1,-40.931,-1.999,2.293,1087.007,-1.351,1.022
0.384000,1025755,1000.00,12,0,1,-38.673,-0.041,2.290,1086.407,-2.137,1.062
0.385000,1025756,1000.00,12,0,1,-37.376,-0.349,2.286,1090.442,1.532,1.084
0.386000,1025757,1000.00,12,0,1,-34.446,1.497,2.251,1089.313,1.595,1.102
0.387000,1025758,1000.00,12,0,1,-30.843,3.872,2.287,1088.617,-0.358,1.103
0.388000,1025759,1000.00,12,0,1,-31.155,3.431,2.336,1088.761,0.490,1.102
0.389000,1025760,1000.00,12,0,1,-34.998,-0.427,2.307,1089.313,0.453,1.077
0.390000,1025761,1000.00,12,0,1,-36.920,-2.010,2.317,1089.001,0.562,1.041
0.391000,1025762,1000.00,12,0,1,-36.295,-0.219,2.307,1090.154,0.996,1.050
0.392000,1025763,1000.00,12,0,1,-35.286,1.953,2.289,1091.115,2.070,1.088
0.393000,1025764,1000.00,12,0,1,-38.938,0.535,2.265,1089.193,0.261,1.082
0.394000,1025765,1000.00,12,0,1,-40.499,-0.635,2.266,1088.233,-1.173,1.088
0.395000,1025766,1000.00,12,0,1,-43.237,-0.721,2.268,1088.881,-0.251,1.088
0.396000,1025767,1000.00,12,0,1,-44.919,-1.931,2.281,1088.040,-0.817,1.073
0.397000,1025768,1000.00,12,0,1,-43.934,0.220,2.281,1090.490,0.878,1.076
0.398000,1025769,1000.00,12,0,1,-45.327,-0.265,2.282,1089.410,0.907,1.081
0.399000,1025770,1000.00,12,0,1,-48.618,-3.296,2.327,1088.473,-0.984,1.087
0.400000,1025771,1000.00,12,0,1,-51.308,-5.598,2.456,1088.473,-0.383,1.088
0.401000,1025772,1000.00,12,0,1,-48.546,-3.809,2.512,1086.743,-1.820,1.118
0.402000,1025773,1000.00,12,0,1,-43.333,1.034,2.504,1088.497,-0.648,1.070
0.403000,1025774,1000.00,12,0,1,-43.405,0.394,2.504,1088.112,0.172,1.070
0.404000,1025775,1000.00,12,0,1,-38.577,2.129,2.522,1088.593,-0.368,1.069
0.405000,1025776,1000.00,12,0,1,-28.032,10.329,2.914,1088.329,0.328,1.069
0.406000,1025777,1000.00,12,0,1,-22.267,13.654,3.496,1087.704,-0.834,1.027
0.407000,1025778,1000.00,12,0,1,-32.188,3.510,3.529,1091.259,2.156,1.036
0.408000,1025779,1000.00,12,0,1,-37.136,-4.659,3.588,1090.875,2.510,1.093
0.409000,1025780,1000.00,12,0,1,-36.896,-2.741,3.608,1088.881,-0.369,1.094
0.410000,1025781,1000.00,12,0,1,-38.289,-3.312,3.633,1088.953,-0.216,1.092
0.411000,1025782,1000.00,12,0,1,-40.811,-3.862,3.671,1089.434,0.130,1.091
0.412000,1025783,1000.00,12,0,1,-40.691,-2.369,3.680,1089.169,0.043,1.089
0.413000,1025784,1000.00,12,0,1,-39.922,0.414,3.677,1089.169,-0.150,1.074
0.414000,1025785,1000.00,12,0,1,-42.445,0.095,3.662,1087.368,-1.320,1.073
0.415000,1025786,1000.00,12,0,1,-45.207,-1.516,3.609,1087.800,-1.387,1.091
0.416000,1025787,1000.00,12,0,1,-47.777,-2.063,3.616,1088.593,0.079,1.087
0.417000,1025788,1000.00,12,0,1,-48.810,-2.397,3.590,1088.401,-0.171,1.084
0.418000,1025789,1000.00,12,0,1,-45.663,1.030,3.593,1089.602,0.786,1.090
0.419000,1025790,1000.00,12,0,1,-42.156,4.198,3.623,1089.650,1.151,1.102
0.420000,1025791,1000.00,12,0,1,-43.910,2.171,3.619,1088.809,0.003,1.102
0.421000,1025792,1000.00,12,0,1,-40.979,2.033,3.624,1089.962,0.843,1.108
0.422000,1025793,1000.00,12,0,1,-38.457,3.897,3.589,1088.545,0.004,1.106
0.423000,1025794,1000.00,12,0,1,-37.184,2.292,3.481,1087.728,-1.348,1.094
0.424000,1025795,1000.00,12,0,1,-36.367,1.561,3.487,1089.001,0.055,1.066
0.425000,1025796,1000.00,12,0,1,-35.286,0.538,3.449,1087.752,-0.642,1.064
0.426000,1025797,1000.00,12,0,1,-34.374,0.266,3.449,1088.593,-0.557,1.065
0.427000,1025798,1000.00,12,0,1,-34.446,-0.544,3.446,1088.857,0.475,1.020
0.428000,1025799,1000.00,12,0,1,-36.704,-2.660,3.450,1089.289,0.221,1.020
0.429000,1025800,1000.00,12,0,1,-38.817,-4.162,3.497,1089.746,0.966,1.029
0.430000,1025801,1000.00,12,0,1,-41.171,-4.863,3.515,1089.674,0.566,1.026
0.431000,1025802,1000.00,12,0,1,-42.733,-4.566,3.528,1088.233,-0.552,1.020
0.432000,1025803,1000.00,12,0,1,-41.820,-1.891,3.495,1087.848,-1.193,1.004
0.433000,1025804,1000.00,12,0,1,-40.715,1.285,3.489,1087.752,-0.854,0.993
0.434000,1025805,1000.00,12,0,1,-40.066,3.073,3.516,1085.975,-2.073,0.990
0.435000,1025806,1000.00,12,0,1,-44.751,0.731,3.517,1086.839,-1.527,0.990
0.436000,1025807,1000.00,12,0,1,-48.498,-2.705,3.531,1087.800,0.249,0.964
0.437000,1025808,1000.00,12,0,1,-46.048,0.359,3.489,1088.761,0.773,0.969
0.438000,1025809,1000.00,12,0,1,-43.261,3.478,3.490,1088.497,0.997,0.977
0.439000,1025810,1000.00,12,0,1,-45.615,1.236,3.494,1087.896,0.029,0.975
0.440000,1025811,1000.00,12,0,1,-46.312,-1.014,3.485,1088.569,0.649,0.976
0.441000,1025812,1000.00,12,0,1,-45.495,-0.766,3.487,1089.217,1.228,0.981
0.442000,1025813,1000.00,12,0,1,-43.189,-0.185,3.476,1089.530,1.280,0.954
0.443000,1025814,1000.00,12,0,1,-40.979,0.809,3.477,1090.154,1.590,0.979
0.444000,1025815,1000.00,12,0,1,-38.962,1.011,3.479,1090.274,1.465,0.987
0.445000,1025816,1000.00,12,0,1,-34.758,3.079,3.504,1090.130,1.009,0.997
0.446000,1025817,1000.00,12,0,1,-38.601,-0.194,3.494,1088.593,-0.400,0.992
0.447000,1025818,1000.00,12,0,1,-43.646,-6.564,3.615,1088.617,-0.830,0.991
0.448000,1025819,1000.00,12,0,1,-40.235,-3.136,3.642,1089.169,0.010,0.983
0.449000,1025820,1000.00,12,0,1,-37.736,0.809,3.614,1089.530,0.189,0.973
0.450000,1025821,1000.00,12,0,1,-41.147,-1.181,3.530,1088.233,-0.692,0.976
0.451000,1025822,1000.00,12,0,1,-46.456,-4.660,3.550,1089.121,-0.415,0.944
0.452000,1025823,1000.00,12,0,1,-53.758,-8.661,3.753,1088.833,0.066,0.939
0.453000,1025824,1000.00,12,0,1,-56.593,-9.071,3.965,1088.521,-0.686,0.944
0.454000,1025825,1000.00,12,0,1,-58.370,-6.653,4.064,1089.386,0.305,0.943
0.455000,1025826,1000.00,12,0,1,-56.136,-2.794,3.813,1089.986,0.853,0.950
0.456000,1025827,1000.00,12,0,1,-52.773,2.919,3.314,1089.121,0.072,0.943
0.457000,1025828,1000.00,12,0,1,-51.909,4.428,3.336,1088.425,-0.725,0.898
0.458000,1025829,1000.00,12,0,1,-51.452,4.637,3.335,1087.920,-1.067,0.838
0.459000,1025830,1000.00,12,0,1,-49.242,5.766,3.412,1089.482,0.162,0.837
0.460000,1025831,1000.00,12,0,1,-40.835,10.999,3.720,1089.626,0.736,0.843
0.461000,1025832,1000.00,12,0,1,-34.061,15.497,4.283,1087.752,-1.127,0.858
0.462000,1025833,1000.00,12,0,1,-35.719,10.622,4.526,1088.641,-0.719,0.864
0.463000,1025834,1000.00,12,0,1,-36.367,5.867,4.602,1090.611,1.435,0.887
0.464000,1025835,1000.00,12,0,1,-35.334,4.412,4.644,1088.833,-0.007,0.867
0.465000,1025836,1000.00,12,0,1,-32.764,4.043,4.674,1088.929,-0.662,0.850
0.466000,1025837,1000.00,12,0,1,-31.707,3.670,4.693,1088.809,-0.125,0.850
0.467000,1025838,1000.00,12,0,1,-37.376,-2.201,4.692,1088.353,-0.866,0.858
0.468000,1025839,1000.00,12,0,1,-39.850,-5.702,4.758,1089.674,0.377,0.853
0.469000,1025840,1000.00,12,0,1,-39.370,-3.716,4.750,1089.241,0.383,0.839
0.470000,1025841,1000.00,12,0,1,-41.508,-4.222,4.778,1089.361,-0.041,0.839
0.471000,1025842,1000.00,12,0,1,-46.360,-6.612,4.860,1086.815,-1.469,0.856
0.472000,1025843,1000.00,12,0,1,-48.738,-7.018,4.929,1089.193,-0.551,0.860
0.473000,1025844,1000.00,12,0,1,-50.539,-5.642,4.983,1089.722,1.563,0.867
0.474000,1025845,1000.00,12,0,1,-50.131,-3.509,5.003,1089.458,0.174,0.867
0.475000,1025846,1000.00,12,0,1,-50.780,-1.623,5.007,1090.611,1.543,0.890
0.476000,1025847,1000.00,12,0,1,-55.584,-4.466,5.047,1089.217,0.332,0.887
0.477000,1025848,1000.00,12,0,1,-59.139,-6.929,5.141,1088.040,-1.210,0.901
0.478000,1025849,1000.00,12,0,1,-59.043,-5.660,5.189,1087.992,-0.886,0.909
0.479000,1025850,1000.00,12,0,1,-56.665,-2.984,5.173,1089.145,-0.077,0.899
0.480000,1025851,1000.00,12,0,1,-47.585,4.258,5.162,1089.241,0.535,0.899
0.481000,1025852,1000.00,12,0,1,-35.118,14.068,5.494,1090.971,1.290,0.914
0.482000,1025853,1000.00,12,0,1,-34.662,12.843,5.781,1089.794,1.007,0.909
0.483000,1025854,1000.00,12,0,1,-40.283,3.396,5.798,1091.091,0.725,0.907
0.484000,1025855,1000.00,12,0,1,-40.355,0.611,5.782,1089.554,0.520,0.861
0.485000,1025856,1000.00,12,0,1,-37.472,1.884,5.787,1089.145,-1.196,0.851
0.486000,1025857,1000.00,12,0,1,-35.671,2.494,5.785,1087.920,-1.219,0.867
0.487000,1025858,1000.00,12,0,1,-32.884,3.843,5.811,1089.770,-0.488,0.863
0.488000,1025859,1000.00,12,0,1,-33.965,3.087,5.806,1088.953,0.069,0.852
0.489000,1025860,1000.00,12,0,1,-40.163,-2.416,5.814,1088.809,-0.982,0.863
0.490000,1025861,1000.00,12,0,1,-43.069,-4.624,5.848,1089.073,-0.087,0.858
0.491000,1025862,1000.00,12,0,1,-42.973,-2.362,5.857,1088.425,-0.672,0.846
0.492000,1025863,1000.00,12,0,1,-44.174,-1.449,5.861,1087.968,-1.080,0.840
0.493000,1025864,1000.00,12,0,1,-44.847,-0.520,5.860,1088.641,-0.216,0.810
0.494000,1025865,1000.00,12,0,1,-43.886,1.676,5.863,1090.923,1.559,0.814
0.495000,1025866,1000.00,12,0,1,-49.290,-1.205,5.849,1090.058,1.454,0.827
0.496000,1025867,1000.00,12,0,1,-57.265,-8.073,5.960,1089.410,-0.190,0.825
0.497000,1025868,1000.00,12,0,1,-56.425,-6.847,5.966,1090.130,0.839,0.826
0.498000,1025869,1000.00,12,0,1,-53.446,-2.404,5.959,1089.650,0.193,0.826
0.499000,1025870,1000.00,12,0,1,-52.461,-1.727,5.963,1089.193,-0.310,0.827
0.500000,1025871,1000.00,12,0,1,-51.500,-1.416,5.964,1088.353,-0.956,0.832
0.501000,1025872,1000.00,12,0,1,-48.185,0.161,5.928,1088.569,-0.911,0.840
0.502000,1025873,1000.00,12,0,1,-46.192,1.104,5.802,1089.169,-0.052,0.840
0.503000,1025874,1000.00,12,0,1,-47.801,-1.756,5.664,1090.034,0.563,0.838
0.504000,1025875,1000.00,12,0,1,-43.934,-0.455,5.585,1090.346,0.967,0.848
0.505000,1025876,1000.00,12,0,1,-43.117,0.878,5.573,1089.770,0.251,0.840
0.506000,1025877,1000.00,12,0,1,-45.207,-2.399,5.568,1089.410,-0.193,0.841
0.507000,1025878,1000.00,12,0,1,-44.006,-1.189,5.535,1090.202,0.393,0.836
0.508000,1025879,1000.00,12,0,1,-45.735,-1.368,5.499,1090.563,0.833,0.831
0.509000,1025880,1000.00,12,0,1,-46.816,-1.908,5.445,1091.643,1.390,0.853
0.510000,1025881,1000.00,12,0,1,-46.024,0.795,5.219,1089.530,-0.042,0.847
0.511000,1025882,1000.00,12,0,1,-43.670,4.062,4.772,1088.713,-1.609,0.863
0.512000,1025883,1000.00,12,0,1,-44.246,5.538,4.596,1088.689,-0.936,0.867
0.513000,1025884,1000.00,12,0,1,-48.209,2.739,4.537,1089.650,-0.335,0.844
0.514000,1025885,1000.00,12,0,1,-52.029,0.331,4.495,1090.106,0.515,0.847
0.515000,1025886,1000.00,12,0,1,-49.170,3.082,4.479,1089.482,-0.170,0.842
0.516000,1025887,1000.00,12,0,1,-47.297,6.151,4.533,1089.530,-0.276,0.843
0.517000,1025888,1000.00,12,0,1,-50.227,2.922,4.541,1088.184,-1.037,0.847
0.518000,1025889,1000.00,12,0,1,-49.555,1.952,4.478,1088.641,-1.143,0.860
0.519000,1025890,1000.00,12,0,1,-48.762,2.307,4.459,1087.872,-0.881,0.868
0.520000,1025891,1000.00,12,0,1,-51.813,-1.897,4.427,1088.785,-0.766,0.874
0.521000,1025892,1000.00,12,0,1,-54.383,-5.579,4.398,1090.082,1.125,0.864
0.522000,1025893,1000.00,12,0,1,-52.894,-5.398,4.352,1089.986,0.717,0.867
0.523000,1025894,1000.00,12,0,1,-51.476,-4.223,4.320,1090.082,0.660,0.843
0.524000,1025895,1000.00,12,0,1,-50.732,-4.355,4.335,1090.034,0.565,0.847
0.525000,1025896,1000.00,12,0,1,-51.332,-4.770,4.382,1090.034,0.329,0.819
0.526000,1025897,1000.00,12,0,1,-46.192,-1.135,4.339,1088.689,-0.606,0.822
0.527000,1025898,1000.00,12,0,1,-42.300,3.691,4.259,1089.530,-0.430,0.807
0.528000,1025899,1000.00,12,0,1,-38.817,5.789,4.262,1090.442,1.019,0.810
0.529000,1025900,1000.00,12,0,1,-40.331,5.511,4.312,1090.250,0.505,0.813
0.530000,1025901,1000.00,12,0,1,-42.733,2.611,4.286,1089.842,0.207,0.810
0.531000,1025902,1000.00,12,0,1,-47.008,0.413,3.797,1089.049,-0.540,0.793
0.532000,1025903,1000.00,12,0,1,-48.834,-0.756,3.336,1088.329,-1.109,0.795
0.533000,1025904,1000.00,12,0,1,-46.024,3.263,3.333,1088.617,-0.742,0.796
0.534000,1025905,1000.00,12,0,1,-48.498,3.159,3.362,1088.809,-0.287,0.793
0.535000,1025906,1000.00,12,0,1,-54.743,-2.316,3.367,1088.929,-0.126,0.775
0.536000,1025907,1000.00,12,0,1,-57.025,-3.561,3.386,1089.794,0.600,0.761
0.537000,1025908,1000.00,12,0,1,-50.708,1.954,3.354,1089.626,0.652,0.763
0.538000,1025909,1000.00,12,0,1,-44.558,8.173,3.521,1090.154,0.653,0.769
0.539000,1025910,1000.00,12,0,1,-45.928,5.439,3.587,1087.248,-1.240,0.776
0.540000,1025911,1000.00,12,0,1,-43.285,4.492,3.584,1089.001,-0.965,0.788
0.541000,1025912,1000.00,12,0,1,-42.204,4.377,3.622,1090.394,1.640,0.816
0.542000,1025913,1000.00,12,0,1,-41.195,1.804,3.625,1090.130,0.564,0.805
0.543000,1025914,1000.00,12,0,1,-43.069,-0.946,3.627,1090.803,1.158,0.821
0.544000,1025915,1000.00,12,0,1,-39.034,-0.758,3.620,1089.530,0.107,0.791
0.545000,1025916,1000.00,12,0,1,-38.337,0.443,3.617,1089.842,-0.316,0.765
0.546000,1025917,1000.00,12,0,1,-41.700,-4.443,3.489,1089.121,-0.208,0.765
0.547000,1025918,1000.00,12,0,1,-42.493,-5.220,3.432,1090.010,-0.245,0.757
0.548000,1025919,1000.00,12,0,1,-42.709,-4.406,3.472,1091.163,1.470,0.785
0.549000,1025920,1000.00,12,0,1,-43.213,-3.879,3.506,1089.554,-0.181,0.784
0.550000,1025921,1000.00,12,0,1,-41.700,-1.043,3.504,1089.434,-0.616,0.777
0.551000,1025922,1000.00,12,0,1,-44.270,-1.227,3.508,1089.025,-0.488,0.769
0.552000,1025923,1000.00,12,0,1,-45.471,-1.479,3.511,1089.458,-0.424,0.772
0.553000,1025924,1000.00,12,0,1,-45.807,0.283,3.502,1088.785,-0.384,0.769
0.554000,1025925,1000.00,12,0,1,-48.906,-0.955,3.504,1088.809,-0.788,0.765
0.555000,1025926,1000.00,12,0,1,-50.972,-2.083,3.514,1088.641,-0.365,0.766
0.556000,1025927,1000.00,12,0,1,-50.179,-0.341,3.498,1089.890,0.330,0.767
0.557000,1025928,1000.00,12,0,1,-51.933,-1.053,3.497,1089.626,0.667,0.771
0.558000,1025929,1000.00,12,0,1,-51.668,-1.497,3.499,1089.794,0.175,0.762
0.559000,1025930,1000.00,12,0,1,-45.783,3.052,3.515,1090.082,0.669,0.742
0.560000,1025931,1000.00,12,0,1,-44.414,4.016,3.559,1089.073,-0.350,0.744
0.561000,1025932,1000.00,12,0,1,-45.015,0.793,3.514,1087.992,-1.436,0.737
0.562000,1025933,1000.00,12,0,1,-46.240,-1.436,3.431,1089.554,-0.153,0.725
0.563000,1025934,1000.00,12,0,1,-45.039,-2.470,3.427,1091.932,2.097,0.782
0.564000,1025935,1000.00,12,0,1,-46.264,-3.506,3.463,1090.563,1.096,0.794
0.565000,1025936,1000.00,12,0,1,-46.048,-4.749,3.500,1090.779,0.231,0.794
0.566000,1025937,1000.00,12,0,1,-47.273,-4.748,3.456,1090.226,0.421,0.796
0.567000,1025938,1000.00,12,0,1,-46.696,-4.457,3.489,1088.521,-1.589,0.814
0.568000,1025939,1000.00,12,0,1,-43.429,-0.197,3.478,1090.226,-0.139,0.798
0.569000,1025940,1000.00,12,0,1,-41.748,2.538,3.481,1090.851,1.022,0.801
0.570000,1025941,1000.00,12,0,1,-43.573,1.922,3.481,1089.818,-0.204,0.794
0.571000,1025942,1000.00,12,0,1,-44.558,1.827,3.401,1089.482,-0.468,0.781
0.572000,1025943,1000.00,12,0,1,-47.105,1.224,3.318,1090.034,0.012,0.774
0.573000,1025944,1000.00,12,0,1,-51.452,-1.325,3.270,1088.160,-1.120,0.785
0.574000,1025945,1000.00,12,0,1,-51.717,-0.692,3.212,1087.392,-2.202,0.841
0.575000,1025946,1000.00,12,0,1,-50.179,2.431,3.160,1090.178,0.564,0.843
0.576000,1025947,1000.00,12,0,1,-51.644,1.793,3.166,1092.893,3.168,0.951
0.577000,1025948,1000.00,12,0,1,-51.837,1.284,3.128,1091.619,1.966,0.989
0.578000,1025949,1000.00,12,0,1,-51.260,1.703,3.028,1089.962,-0.304,0.979
0.579000,1025950,1000.00,12,0,1,-48.089,3.179,2.960,1089.914,-0.459,0.979
0.580000,1025951,1000.00,12,0,1,-48.666,2.265,2.955,1089.001,-1.067,0.990
0.581000,1025952,1000.00,12,0,1,-52.701,-3.245,2.990,1090.803,-0.025,0.987
0.582000,1025953,1000.00,12,0,1,-50.131,-2.846,3.015,1089.554,-0.136,0.975
0.583000,1025954,1000.00,12,0,1,-44.318,1.916,2.991,1089.169,-1.510,0.992
0.584000,1025955,1000.00,12,0,1,-42.589,2.385,2.977,1091.812,1.276,1.008
0.585000,1025956,1000.00,12,0,1,-37.929,4.266,3.020,1091.139,0.963,1.017
0.586000,1025957,1000.00,12,0,1,-36.872,5.060,3.062,1092.100,0.858,1.020
0.587000,1025958,1000.00,12,0,1,-43.453,-1.806,3.061,1092.316,1.635,1.042
0.588000,1025959,1000.00,12,0,1,-45.615,-4.592,2.907,1090.779,-0.345,1.039
0.589000,1025960,1000.00,12,0,1,-43.045,-0.792,2.806,1090.827,-0.378,1.026
0.590000,1025961,1000.00,12,0,1,-43.381,0.458,2.734,1089.217,-1.365,1.035
0.591000,1025962,1000.00,12,0,1,-43.742,0.940,2.666,1090.827,-0.568,1.012
0.592000,1025963,1000.00,12,0,1,-45.183,1.294,2.660,1091.091,0.746,1.014
0.593000,1025964,1000.00,12,0,1,-46.144,1.162,2.662,1089.410,-1.248,1.016
0.594000,1025965,1000.00,12,0,1,-47.056,1.639,2.670,1091.451,0.368,1.017
0.595000,1025966,1000.00,12,0,1,-46.864,2.121,2.686,1091.259,0.936,1.025
0.596000,1025967,1000.00,12,0,1,-45.063,3.922,2.670,1090.490,-0.515,1.027
0.597000,1025968,1000.00,12,0,1,-47.873,1.701,2.577,1088.473,-1.681,1.054
0.598000,1025969,1000.00,12,0,1,-48.570,-0.720,2.503,1089.890,-1.239,1.048
0.599000,1025970,1000.00,12,0,1,-45.855,1.309,2.449,1090.298,0.278,1.048
0.600000,1025971,1000.00,12,0,1,-47.729,-1.107,2.449,1090.611,-0.204,1.045
0.601000,1025972,1000.00,12,0,1,-45.423,-1.587,2.453,1090.563,0.212,1.043
0.602000,1025973,1000.00,12,0,1,-45.423,-1.445,2.453,1089.818,-0.720,1.046
0.603000,1025974,1000.00,12,0,1,-44.871,-3.422,2.500,1089.650,-0.867,1.052
0.604000,1025975,1000.00,12,0,1,-45.639,-3.882,2.556,1089.241,-0.935,1.054
0.605000,1025976,1000.00,12,0,1,-46.696,-5.923,2.673,1089.001,-1.200,1.067
0.606000,1025977,1000.00,12,0,1,-45.327,-4.384,2.744,1089.169,-0.660,1.070
0.607000,1025978,1000.00,12,0,1,-41.364,-0.534,2.741,1090.539,0.431,1.067
0.608000,1025979,1000.00,12,0,1,-38.481,2.773,2.761,1090.539,0.969,1.076
0.609000,1025980,1000.00,12,0,1,-41.003,1.405,2.734,1089.289,-0.427,1.073
0.610000,1025981,1000.00,12,0,1,-46.624,-3.122,2.711,1089.289,-0.363,1.073
0.611000,1025982,1000.00,12,0,1,-50.900,-5.330,2.811,1090.635,0.893,1.062
0.612000,1025983,1000.00,12,0,1,-50.828,-3.564,2.849,1090.010,0.722,1.066
0.613000,1025984,1000.00,12,0,1,-48.978,0.561,2.828,1089.049,-0.468,1.026
0.614000,1025985,1000.00,12,0,1,-48.810,2.192,2.802,1088.641,-0.600,1.018
0.615000,1025986,1000.00,12,0,1,-49.843,2.169,2.737,1088.785,-0.425,1.019
0.616000,1025987,1000.00,12,0,1,-50.419,1.917,2.668,1089.530,0.357,1.019
0.617000,1025988,1000.00,12,0,1,-50.419,1.977,2.607,1089.938,0.820,1.001
0.618000,1025989,1000.00,12,0,1,-51.789,0.566,2.608,1090.034,0.731,1.006
0.619000,1025990,1000.00,12,0,1,-51.957,-0.599,2.585,1089.842,0.517,0.998
0.620000,1025991,1000.00,12,0,1,-49.122,1.022,2.574,1088.881,-0.421,0.999
0.621000,1025992,1000.00,12,0,1,-49.867,-0.109,2.562,1089.722,0.022,0.997
0.622000,1025993,1000.00,12,0,1,-48.834,-1.369,2.563,1090.514,0.997,1.007
0.623000,1025994,1000.00,12,0,1,-44.702,1.525,2.565,1087.680,-1.334,1.012
0.624000,1025995,1000.00,12,0,1,-43.838,1.425,2.571,1089.458,-0.699,0.968
0.625000,1025996,1000.00,12,0,1,-44.438,-0.492,2.549,1087.992,-0.381,0.966
0.626000,1025997,1000.00,12,0,1,-42.805,0.234,2.537,1088.905,-0.989,0.868
0.627000,1025998,1000.00,12,0,1,-43.622,-0.130,2.530,1090.923,1.988,0.869
0.628000,1025999,1000.00,12,0,1,-43.285,-0.247,2.519,1092.316,2.511,0.937
0.629000,1026000,1000.00,12,0,1,-41.820,2.037,2.495,1091.211,1.786,0.969
0.630000,1026001,1000.00,12,0,1,-43.622,1.436,2.483,1089.794,-0.153,0.957
0.631000,1026002,1000.00,12,0,1,-46.864,-0.682,2.442,1090.731,0.479,0.960
0.632000,1026003,1000.00,12,0,1,-47.321,-0.022,2.409,1089.554,0.031,0.959
0.633000,1026004,1000.00,12,0,1,-49.290,0.120,2.393,1090.394,-0.155,0.936
0.634000,1026005,1000.00,12,0,1,-53.998,-2.839,2.403,1090.490,0.873,0.926
0.635000,1026006,1000.00,12,0,1,-53.422,-1.837,2.341,1090.370,-0.044,0.916
0.636000,1026007,1000.00,12,0,1,-53.422,0.177,2.229,1089.842,-0.011,0.908
0.637000,1026008,1000.00,12,0,1,-53.974,-0.619,2.216,1090.322,-0.156,0.878
0.638000,1026009,1000.00,12,0,1,-52.557,0.769,2.121,1089.289,-0.491,0.880
0.639000,1026010,1000.00,12,0,1,-49.387,2.709,2.153,1090.178,-0.431,0.880
0.640000,1026011,1000.00,12,0,1,-47.609,3.414,2.205,1090.322,0.359,0.860
0.641000,1026012,1000.00,12,0,1,-46.456,2.481,2.229,1090.154,-0.300,0.858
0.642000,1026013,1000.00,12,0,1,-45.207,1.870,2.237,1089.986,-0.296,0.852
0.643000,1026014,1000.00,12,0,1,-42.685,2.176,2.252,1089.914,-0.471,0.836
0.644000,1026015,1000.00,12,0,1,-42.685,1.066,2.245,1091.307,0.539,0.838
0.645000,1026016,1000.00,12,0,1,-43.045,-0.903,2.229,1089.073,-0.726,0.834
0.646000,1026017,1000.00,12,0,1,-44.678,-2.529,2.188,1090.298,-0.898,0.841
0.647000,1026018,1000.00,12,0,1,-42.733,-1.559,2.186,1091.595,1.459,0.832
0.648000,1026019,1000.00,12,0,1,-41.604,0.704,2.186,1091.187,0.385,0.815
0.649000,1026020,1000.00,12,0,1,-40.018,1.958,2.196,1090.394,-0.080,0.814
0.650000,1026021,1000.00,12,0,1,-38.889,3.997,2.262,1090.202,-0.528,0.817
0.651000,1026022,1000.00,12,0,1,-45.159,-0.255,2.251,1090.226,-0.274,0.818
0.652000,1026023,1000.00,12,0,1,-53.734,-7.290,2.467,1089.914,-0.445,0.814
0.653000,1026024,1000.00,12,0,1,-55.392,-7.064,2.618,1089.217,-0.971,0.816
0.654000,1026025,1000.00,12,0,1,-50.924,-0.945,2.563,1090.755,0.287,0.806
0.655000,1026026,1000.00,12,0,1,-51.332,1.202,2.428,1090.130,0.336,0.790
0.656000,1026027,1000.00,12,0,1,-50.828,0.993,2.352,1090.322,-0.124,0.784
0.657000,1026028,1000.00,12,0,1,-53.350,0.195,2.351,1089.674,-0.140,0.782
0.658000,1026029,1000.00,12,0,1,-52.317,-0.726,2.320,1090.250,-0.189,0.771
0.659000,1026030,1000.00,12,0,1,-51.572,0.714,2.314,1091.283,1.053,0.783
0.660000,1026031,1000.00,12,0,1,-49.170,0.736,2.274,1089.962,-0.114,0.781
0.661000,1026032,1000.00,12,0,1,-50.539,-0.467,2.146,1090.490,-0.288,0.772
0.662000,1026033,1000.00,12,0,1,-46.936,-0.248,2.086,1090.923,0.620,0.770
0.663000,1026034,1000.00,12,0,1,-41.700,4.146,2.166,1091.115,0.243,0.768
0.664000,1026035,1000.00,12,0,1,-43.525,1.290,2.151,1090.731,0.168,0.764
0.665000,1026036,1000.00,12,0,1,-45.231,-2.294,2.154,1089.458,-1.195,0.780
0.666000,1026037,1000.00,12,0,1,-44.510,-1.581,2.148,1090.250,-0.605,0.783
0.667000,1026038,1000.00,12,0,1,-45.831,-2.606,2.162,1089.193,-0.867,0.784
0.668000,1026039,1000.00,12,0,1,-47.513,-3.342,2.211,1090.154,-0.645,0.782
0.669000,1026040,1000.00,12,0,1,-48.810,-3.331,2.259,1092.244,1.837,0.821
0.670000,1026041,1000.00,12,0,1,-51.164,-3.406,2.306,1090.250,0.202,0.819
0.671000,1026042,1000.00,12,0,1,-50.035,-1.240,2.312,1087.128,-2.826,0.912
0.672000,1026043,1000.00,12,0,1,-50.323,1.263,2.311,1090.130,-0.470,0.903
0.673000,1026044,1000.00,12,0,1,-50.852,1.473,2.310,1086.359,-1.788,0.919
0.674000,1026045,1000.00,12,0,1,-52.581,1.707,2.314,1088.761,-1.750,0.946
0.675000,1026046,1000.00,12,0,1,-55.776,-0.572,2.315,1089.578,1.565,0.970
0.676000,1026047,1000.00,12,0,1,-55.824,-0.267,2.315,1090.010,0.359,0.962
0.677000,1026048,1000.00,12,0,1,-55.103,1.091,2.320,1089.530,0.960,0.930
0.678000,1026049,1000.00,12,0,1,-55.320,0.508,2.321,1087.848,-1.088,0.873
0.679000,1026050,1000.00,12,0,1,-52.821,1.783,2.316,1088.977,-0.266,0.836
0.680000,1026051,1000.00,12,0,1,-50.636,2.940,2.345,1090.394,1.524,0.863
0.681000,1026052,1000.00,12,0,1,-46.144,4.696,2.435,1090.202,0.918,0.870
0.682000,1026053,1000.00,12,0,1,-45.855,4.043,2.501,1088.881,-0.056,0.870
0.683000,1026054,1000.00,12,0,1,-47.177,0.145,2.501,1088.401,-1.024,0.882
0.684000,1026055,1000.00,12,0,1,-47.609,-1.281,2.475,1090.851,1.298,0.892
0.685000,1026056,1000.00,12,0,1,-46.888,-1.650,2.473,1089.337,0.488,0.895
0.686000,1026057,1000.00,12,0,1,-44.943,-0.212,2.473,1088.809,-0.820,0.903
0.687000,1026058,1000.00,12,0,1,-45.952,-0.575,2.473,1090.490,1.048,0.914
0.688000,1026059,1000.00,12,0,1,-47.345,-1.918,2.485,1089.530,0.467,0.914
0.689000,1026060,1000.00,12,0,1,-48.690,-1.704,2.467,1088.329,-0.970,0.922
0.690000,1026061,1000.00,12,0,1,-49.723,-1.605,2.430,1088.088,-0.840,0.929
0.691000,1026062,1000.00,12,0,1,-49.915,-0.064,2.405,1087.656,-1.032,0.939
0.692000,1026063,1000.00,12,0,1,-51.380,0.238,2.390,1088.593,-0.093,0.938
0.693000,1026064,1000.00,12,0,1,-55.248,-1.629,2.382,1090.250,1.570,0.962
0.694000,1026065,1000.00,12,0,1,-57.169,-2.378,2.400,1088.401,0.313,0.960
0.695000,1026066,1000.00,12,0,1,-59.019,-2.220,2.418,1088.929,-0.124,0.955
0.696000,1026067,1000.00,12,0,1,-57.794,-0.845,2.394,1089.337,1.007,0.957
0.697000,1026068,1000.00,12,0,1,-56.497,1.360,2.391,1090.298,1.112,0.947
0.698000,1026069,1000.00,12,0,1,-55.536,1.524,2.399,1089.986,1.232,0.962
0.699000,1026070,1000.00,12,0,1,-52.869,2.984,2.420,1089.770,0.325,0.963
0.700000,1026071,1000.00,12,0,1,-53.182,1.934,2.369,1089.554,0.254,0.960
0.701000,1026072,1000.00,12,0,1,-49.987,2.087,2.387,1090.130,0.384,0.961
0.702000,1026073,1000.00,12,0,1,-48.570,2.946,2.193,1089.289,-0.131,0.959
0.703000,1026074,1000.00,12,0,1,-47.945,0.875,1.956,1087.200,-2.096,0.995
0.704000,1026075,1000.00,12,0,1,-47.657,0.404,1.952,1087.800,-1.750,1.024
0.705000,1026076,1000.00,12,0,1,-46.744,-0.230,1.945,1088.881,-0.073,1.023
0.706000,1026077,1000.00,12,0,1,-48.834,-1.774,1.956,1087.920,-0.834,1.030
0.707000,1026078,1000.00,12,0,1,-47.056,-1.185,1.963,1089.121,0.030,1.030
0.708000,1026079,1000.00,12,0,1,-48.282,-0.302,1.961,1087.944,-0.216,1.030
0.709000,1026080,1000.00,12,0,1,-50.564,-2.321,1.986,1088.617,-0.376,1.020
0.710000,1026081,1000.00,12,0,1,-52.149,-1.902,2.001,1088.785,0.668,1.024
0.711000,1026082,1000.00,12,0,1,-52.629,-0.946,2.005,1088.257,-0.218,1.024
0.712000,1026083,1000.00,12,0,1,-52.725,0.665,2.006,1088.088,-0.109,1.020
0.713000,1026084,1000.00,12,0,1,-54.335,0.851,1.923,1087.824,-0.281,1.021
0.714000,1026085,1000.00,12,0,1,-56.304,-0.132,1.914,1085.854,-1.695,1.048
0.715000,1026086,1000.00,12,0,1,-57.097,0.170,1.887,1087.968,-0.298,1.035
0.716000,1026087,1000.00,12,0,1,-57.001,0.556,1.875,1087.944,0.820,1.038
0.717000,1026088,1000.00,12,0,1,-54.935,2.332,1.868,1088.665,0.526,1.034
0.718000,1026089,1000.00,12,0,1,-56.064,1.256,1.816,1088.353,0.916,1.038
0.719000,1026090,1000.00,12,0,1,-56.208,-0.507,1.755,1088.449,0.296,1.006
0.720000,1026091,1000.00,12,0,1,-53.422,1.025,1.694,1089.361,1.232,1.020
0.721000,1026092,1000.00,12,0,1,-49.579,2.973,1.736,1089.482,1.219,0.954
0.722000,1026093,1000.00,12,0,1,-47.561,3.275,1.788,1090.010,1.206,0.967
0.723000,1026094,1000.00,12,0,1,-47.321,1.606,1.790,1088.929,0.516,0.936
0.724000,1026095,1000.00,12,0,1,-45.976,1.023,1.780,1087.848,-1.048,0.915
0.725000,1026096,1000.00,12,0,1,-45.759,0.548,1.780,1087.248,-1.136,0.902
0.726000,1026097,1000.00,12,0,1,-47.345,-1.608,1.794,1091.355,1.770,0.935
0.727000,1026098,1000.00,12,0,1,-49.459,-3.268,1.846,1090.635,2.512,0.991
0.728000,1026099,1000.00,12,0,1,-50.924,-3.897,1.925,1090.635,0.709,0.984
0.729000,1026100,1000.00,12,0,1,-48.906,-1.079,1.915,1089.962,1.045,0.994
0.730000,1026101,1000.00,12,0,1,-48.594,1.203,1.877,1088.112,-1.328,0.989
0.731000,1026102,1000.00,12,0,1,-48.354,2.008,1.778,1088.257,-1.082,0.992
0.732000,1026103,1000.00,12,0,1,-50.564,1.799,1.703,1090.010,0.623,0.996
0.733000,1026104,1000.00,12,0,1,-53.590,-0.438,1.704,1093.565,3.390,1.096
0.734000,1026105,1000.00,12,0,1,-58.202,-2.930,1.744,1091.643,2.314,1.129
0.735000,1026106,1000.00,12,0,1,-59.787,-3.961,1.817,1089.770,-0.998,1.135
0.736000,1026107,1000.00,12,0,1,-60.772,-3.148,1.870,1088.401,-1.482,1.149
0.737000,1026108,1000.00,12,0,1,-61.325,-3.377,1.929,1087.944,-2.444,1.191
0.738000,1026109,1000.00,12,0,1,-59.379,-1.510,1.921,1090.635,0.219,1.189
0.739000,1026110,1000.00,12,0,1,-57.746,-0.072,1.906,1088.833,-0.605,1.184
0.740000,1026111,1000.00,12,0,1,-55.440,0.684,1.895,1091.091,-0.073,1.178
0.741000,1026112,1000.00,12,0,1,-53.254,1.770,1.912,1092.604,2.511,1.222
0.742000,1026113,1000.00,12,0,1,-50.347,2.415,1.942,1090.635,-0.172,1.222
0.743000,1026114,1000.00,12,0,1,-48.642,2.850,1.970,1089.361,-1.393,1.218
0.744000,1026115,1000.00,12,0,1,-46.384,2.817,1.981,1090.274,-0.772,1.222
0.745000,1026116,1000.00,12,0,1,-48.930,0.403,1.957,1089.650,-0.783,1.227
0.746000,1026117,1000.00,12,0,1,-47.056,-0.104,1.953,1090.683,-0.364,1.220
0.747000,1026118,1000.00,12,0,1,-50.011,-0.685,1.946,1090.442,0.101,1.210
0.748000,1026119,1000.00,12,0,1,-54.599,-5.489,2.084,1089.554,-1.032,1.206
0.749000,1026120,1000.00,12,0,1,-55.632,-4.452,2.136,1089.890,-0.603,1.208
0.750000,1026121,1000.00,12,0,1,-55.151,-2.125,2.140,1089.410,-0.634,1.211
0.751000,1026122,1000.00,12,0,1,-57.866,-2.093,2.140,1089.313,-0.907,1.216
0.752000,1026123,1000.00,12,0,1,-58.346,-1.266,2.106,1089.602,-0.227,1.217
0.753000,1026124,1000.00,12,0,1,-56.665,2.136,2.124,1088.713,-0.930,1.187
0.754000,1026125,1000.00,12,0,1,-57.457,2.913,2.163,1089.265,-0.511,1.163
0.755000,1026126,1000.00,12,0,1,-55.920,3.896,2.232,1089.313,-0.055,1.163
0.756000,1026127,1000.00,12,0,1,-56.617,4.280,2.299,1088.785,-0.626,1.161
0.757000,1026128,1000.00,12,0,1,-56.761,2.455,2.319,1088.953,-0.426,1.162
0.758000,1026129,1000.00,12,0,1,-55.776,3.029,2.358,1087.368,-1.412,1.179
0.759000,1026130,1000.00,12,0,1,-55.704,1.534,2.345,1089.410,-0.269,1.178
0.760000,1026131,1000.00,12,0,1,-54.383,1.151,2.335,1089.962,1.296,1.189
0.761000,1026132,1000.00,12,0,1,-51.885,1.798,2.345,1087.007,-1.725,1.213
0.762000,1026133,1000.00,12,0,1,-50.828,1.253,2.350,1089.962,0.228,1.213
0.763000,1026134,1000.00,12,0,1,-51.668,-0.949,2.351,1091.475,2.715,1.272
0.764000,1026135,1000.00,12,0,1,-50.948,-1.756,2.364,1090.442,0.918,1.256
0.765000,1026136,1000.00,12,0,1,-52.029,-2.578,2.392,1089.818,0.396,1.257
0.766000,1026137,1000.00,12,0,1,-50.299,-2.005,2.407,1091.355,1.248,1.264
0.767000,1026138,1000.00,12,0,1,-50.948,-0.995,2.388,1091.355,1.685,1.284
0.768000,1026139,1000.00,12,0,1,-50.588,-1.063,2.387,1090.154,0.106,1.277
0.769000,1026140,1000.00,12,0,1,-52.389,-0.535,2.387,1090.394,0.180,1.277
0.770000,1026141,1000.00,12,0,1,-53.614,-1.249,2.389,1090.274,0.313,1.266
0.771000,1026142,1000.00,12,0,1,-55.848,-0.984,2.356,1090.490,0.211,1.254
0.772000,1026143,1000.00,12,0,1,-56.785,-0.911,2.313,1090.058,0.159,1.243
0.773000,1026144,1000.00,12,0,1,-55.728,1.588,2.313,1090.995,0.472,1.242
0.774000,1026145,1000.00,12,0,1,-53.854,4.084,2.380,1088.425,-0.928,1.241
0.775000,1026146,1000.00,12,0,1,-56.352,2.591,2.406,1090.683,-0.373,1.231
0.776000,1026147,1000.00,12,0,1,-58.226,0.156,2.396,1091.523,1.881,1.235
0.777000,1026148,1000.00,12,0,1,-59.667,-0.988,2.355,1091.187,0.361,1.183
0.778000,1026149,1000.00,12,0,1,-62.502,-3.777,2.351,1091.019,0.497,1.181
0.779000,1026150,1000.00,12,0,1,-60.916,-3.455,2.396,1089.482,-1.099,1.182
0.780000,1026151,1000.00,12,0,1,-56.881,0.136,2.390,1090.659,-0.584,1.170
0.781000,1026152,1000.00,12,0,1,-51.308,3.410,2.422,1091.619,0.879,1.167
0.782000,1026153,1000.00,12,0,1,-50.708,3.390,2.456,1090.370,-0.645,1.167
0.783000,1026154,1000.00,12,0,1,-50.756,0.594,2.457,1091.547,0.099,1.064
0.784000,1026155,1000.00,12,0,1,-51.548,-0.568,2.423,1091.259,0.238,1.013
0.785000,1026156,1000.00,12,0,1,-50.804,-1.338,2.365,1092.917,0.914,1.011
0.786000,1026157,1000.00,12,0,1,-49.290,0.277,2.323,1092.412,1.138,1.003
0.787000,1026158,1000.00,12,0,1,-48.354,1.051,2.278,1091.451,-0.551,0.944
0.788000,1026159,1000.00,12,0,1,-51.861,-1.084,2.273,1090.635,-0.904,0.952
0.789000,1026160,1000.00,12,0,1,-52.293,-1.541,2.283,1089.722,-1.743,0.980
0.790000,1026161,1000.00,12,0,1,-53.206,-0.127,2.281,1091.091,-0.526,0.983
0.791000,1026162,1000.00,12,0,1,-58.274,-3.176,2.312,1091.091,0.192,0.917
0.792000,1026163,1000.00,12,0,1,-61.373,-4.666,2.380,1090.803,-0.502,0.919
0.793000,1026164,1000.00,12,0,1,-60.148,-1.571,2.356,1090.635,-0.225,0.898
0.794000,1026165,1000.00,12,0,1,-61.277,-0.563,2.323,1090.923,-0.232,0.892
0.795000,1026166,1000.00,12,0,1,-62.478,-1.030,2.327,1090.010,-0.585,0.889
0.796000,1026167,1000.00,12,0,1,-60.844,0.871,2.330,1090.202,-0.851,0.896
0.797000,1026168,1000.00,12,0,1,-58.586,3.013,2.367,1090.082,-0.428,0.898
0.798000,1026169,1000.00,12,0,1,-59.691,1.563,2.247,1089.722,-0.963,0.896
0.799000,1026170,1000.00,12,0,1,-59.835,-0.117,2.157,1089.121,-1.219,0.909
0.800000,1026171,1000.00,12,0,1,-56.881,1.327,2.144,1092.556,1.258,0.922
0.801000,1026172,1000.00,12,0,1,-55.392,1.681,2.137,1092.100,1.854,0.950
0.802000,1026173,1000.00,12,0,1,-54.263,0.797,2.132,1088.353,-2.286,1.003
0.803000,1026174,1000.00,12,0,1,-53.662,0.334,2.111,1088.833,-2.102,1.037
0.804000,1026175,1000.00,12,0,1,-52.821,-0.259,2.071,1089.674,-0.478,1.037
0.805000,1026176,1000.00,12,0,1,-50.371,1.267,2.004,1089.530,-0.717,1.042
0.806000,1026177,1000.00,12,0,1,-51.428,0.512,1.912,1091.619,1.181,1.052
0.807000,1026178,1000.00,12,0,1,-51.068,0.057,1.880,1092.292,2.077,1.090
0.808000,1026179,1000.00,12,0,1,-49.867,2.145,1.856,1090.875,0.585,1.075
0.809000,1026180,1000.00,12,0,1,-53.230,0.104,1.843,1089.434,-0.835,1.081
0.810000,1026181,1000.00,12,0,1,-57.217,-2.708,1.876,1090.106,-0.280,1.066
0.811000,1026182,1000.00,12,0,1,-57.578,-1.602,1.872,1089.938,0.099,1.038
0.812000,1026183,1000.00,12,0,1,-58.779,-0.545,1.865,1089.434,-0.476,1.039
0.813000,1026184,1000.00,12,0,1,-59.619,-0.278,1.861,1088.833,-0.692,0.971
0.814000,1026185,1000.00,12,0,1,-61.517,-0.385,1.845,1089.241,-0.372,0.963
0.815000,1026186,1000.00,12,0,1,-60.388,0.626,1.811,1090.731,1.108,0.975
0.816000,1026187,1000.00,12,0,1,-59.956,2.032,1.811,1090.274,0.938,0.968
0.817000,1026188,1000.00,12,0,1,-58.658,2.113,1.830,1090.995,0.891,0.946
0.818000,1026189,1000.00,12,0,1,-59.619,1.179,1.832,1091.451,1.584,0.972
0.819000,1026190,1000.00,12,0,1,-56.929,1.280,1.839,1090.899,0.574,0.975
0.820000,1026191,1000.00,12,0,1,-53.590,3.607,1.900,1092.196,1.324,0.992
0.821000,1026192,1000.00,12,0,1,-52.918,2.215,1.921,1092.076,1.340,1.010
0.822000,1026193,1000.00,12,0,1,-51.741,1.176,1.924,1094.214,2.153,1.054
0.823000,1026194,1000.00,12,0,1,-50.251,1.149,1.918,1092.724,1.531,1.074
0.824000,1026195,1000.00,12,0,1,-51.092,-0.798,1.832,1091.115,-1.239,1.081
0.825000,1026196,1000.00,12,0,1,-49.338,-0.472,1.796,1092.652,0.326,1.080
0.826000,1026197,1000.00,12,0,1,-50.179,-0.707,1.799,1092.460,0.376,1.048
0.827000,1026198,1000.00,12,0,1,-50.371,-1.467,1.805,1090.178,-1.778,1.077
0.828000,1026199,1000.00,12,0,1,-55.296,-3.893,1.810,1091.571,-0.870,1.082
0.829000,1026200,1000.00,12,0,1,-55.968,-4.675,1.864,1090.923,-0.453,1.072
0.830000,1026201,1000.00,12,0,1,-56.497,-1.960,1.885,1092.244,-0.090,1.069
0.831000,1026202,1000.00,12,0,1,-59.019,-2.920,1.868,1090.731,-0.253,1.062
0.832000,1026203,1000.00,12,0,1,-60.988,-2.714,1.846,1089.313,-2.309,1.108
0.833000,1026204,1000.00,12,0,1,-58.178,0.904,1.849,1091.307,-0.159,1.108
0.834000,1026205,1000.00,12,0,1,-58.538,2.581,1.883,1090.418,-0.227,1.108
0.835000,1026206,1000.00,12,0,1,-61.709,-0.212,1.873,1090.803,-0.711,1.105
0.836000,1026207,1000.00,12,0,1,-61.901,-0.558,1.874,1091.595,0.718,1.098
0.837000,1026208,1000.00,12,0,1,-62.430,-0.481,1.870,1088.329,-2.200,1.138
0.838000,1026209,1000.00,12,0,1,-59.739,0.463,1.865,1087.848,-3.035,1.210
0.839000,1026210,1000.00,12,0,1,-57.193,2.721,1.891,1090.370,-0.246,1.185
0.840000,1026211,1000.00,12,0,1,-54.959,2.511,1.924,1089.962,-0.056,1.183
0.841000,1026212,1000.00,12,0,1,-54.335,2.029,1.893,1089.650,-0.817,1.188
0.842000,1026213,1000.00,12,0,1,-52.365,1.349,1.785,1090.034,-0.118,1.186
0.843000,1026214,1000.00,12,0,1,-51.212,1.559,1.784,1091.667,1.029,1.194
0.844000,1026215,1000.00,12,0,1,-51.837,-0.419,1.784,1091.667,1.434,1.211
0.845000,1026216,1000.00,12,0,1,-49.939,0.243,1.778,1089.482,-0.773,1.213
0.846000,1026217,1000.00,12,0,1,-53.614,-1.987,1.796,1091.043,0.132,1.207
0.847000,1026218,1000.00,12,0,1,-54.647,-4.001,1.834,1092.100,1.848,1.234
0.848000,1026219,1000.00,12,0,1,-54.959,-1.855,1.840,1090.322,0.007,1.226
0.849000,1026220,1000.00,12,0,1,-58.034,-3.553,1.907,1090.154,-0.339,1.215
0.850000,1026221,1000.00,12,0,1,-58.827,-2.628,1.934,1091.091,0.756,1.207
0.851000,1026222,1000.00,12,0,1,-60.196,-1.502,1.931,1090.298,0.299,1.179
0.852000,1026223,1000.00,12,0,1,-60.316,-0.429,1.928,1091.307,0.740,1.138
0.853000,1026224,1000.00,12,0,1,-59.667,1.958,1.948,1091.451,1.379,1.116
0.854000,1026225,1000.00,12,0,1,-61.997,0.865,1.951,1092.172,1.329,1.130
0.855000,1026226,1000.00,12,0,1,-61.637,1.057,1.949,1093.997,2.893,1.197
0.856000,1026227,1000.00,12,0,1,-61.037,2.209,1.972,1090.442,-0.016,1.185
0.857000,1026228,1000.00,12,0,1,-57.938,3.676,2.039,1090.563,-1.423,1.166
0.858000,1026229,1000.00,12,0,1,-58.010,3.508,2.077,1091.211,0.277,1.164
0.859000,1026230,1000.00,12,0,1,-52.797,4.853,2.187,1091.163,-0.525,1.160
0.860000,1026231,1000.00,12,0,1,-51.476,5.887,2.309,1091.740,0.215,1.160
0.861000,1026232,1000.00,12,0,1,-50.059,3.237,2.343,1089.121,-1.892,1.190
0.862000,1026233,1000.00,12,0,1,-47.273,4.338,2.421,1092.412,-0.158,1.189
0.863000,1026234,1000.00,12,0,1,-48.354,1.532,2.430,1091.019,0.532,1.187
0.864000,1026235,1000.00,12,0,1,-53.614,-4.401,2.508,1088.809,-3.019,1.260
0.865000,1026236,1000.00,12,0,1,-56.545,-7.617,2.728,1091.019,-0.331,1.251
0.866000,1026237,1000.00,12,0,1,-54.791,-5.478,2.821,1090.154,-0.497,1.246
0.867000,1026238,1000.00,12,0,1,-51.885,-1.312,2.812,1089.434,-1.545,1.259
0.868000,1026239,1000.00,12,0,1,-49.795,1.353,2.813,1089.313,-0.942,1.246
0.869000,1026240,1000.00,12,0,1,-50.756,1.923,2.820,1091.091,0.321,1.244
0.870000,1026241,1000.00,12,0,1,-52.269,0.906,2.777,1092.652,2.350,1.274
0.871000,1026242,1000.00,12,0,1,-57.193,-1.528,2.768,1090.923,0.659,1.263
0.872000,1026243,1000.00,12,0,1,-59.980,-3.696,2.812,1090.154,-0.437,1.228
0.873000,1026244,1000.00,12,0,1,-63.439,-4.170,2.868,1088.857,-1.095,1.218
0.874000,1026245,1000.00,12,0,1,-67.042,-6.442,3.007,1089.842,-0.649,1.209
0.875000,1026246,1000.00,12,0,1,-65.024,-3.507,3.047,1088.833,-0.511,1.210
0.876000,1026247,1000.00,12,0,1,-62.430,0.205,3.046,1089.121,-0.998,1.218
0.877000,1026248,1000.00,12,0,1,-64.664,-1.559,3.047,1089.842,0.403,1.193
0.878000,1026249,1000.00,12,0,1,-64.255,-2.259,3.013,1090.130,0.347,1.187
0.879000,1026250,1000.00,12,0,1,-60.796,0.484,2.941,1089.722,0.155,1.186
0.880000,1026251,1000.00,12,0,1,-60.244,0.413,2.928,1089.842,-0.001,1.186
0.881000,1026252,1000.00,12,0,1,-60.316,-1.238,2.904,1090.947,0.906,1.192
0.882000,1026253,1000.00,12,0,1,-59.932,-1.566,2.887,1088.809,-0.522,1.149
0.883000,1026254,1000.00,12,0,1,-57.457,-0.490,2.885,1088.545,-1.603,1.171
0.884000,1026255,1000.00,12,0,1,-53.974,2.372,2.882,1089.890,0.351,1.171
0.885000,1026256,1000.00,12,0,1,-54.239,1.973,2.895,1089.121,-0.276,1.168
0.886000,1026257,1000.00,12,0,1,-52.990,2.174,2.910,1091.331,1.224,1.176
0.887000,1026258,1000.00,12,0,1,-53.590,2.636,2.933,1090.442,1.350,1.150
0.888000,1026259,1000.00,12,0,1,-55.175,1.141,2.937,1091.043,0.660,1.071
0.889000,1026260,1000.00,12,0,1,-57.794,0.245,2.912,1091.139,1.594,1.094
0.890000,1026261,1000.00,12,0,1,-61.085,-1.588,2.899,1092.364,1.694,1.120
0.891000,1026262,1000.00,12,0,1,-59.259,1.059,2.889,1091.211,1.368,1.131
0.892000,1026263,1000.00,12,0,1,-57.650,4.557,2.953,1090.659,-0.102,1.131
0.893000,1026264,1000.00,12,0,1,-61.517,1.938,2.958,1090.250,0.010,1.121
0.894000,1026265,1000.00,12,0,1,-63.799,-0.151,2.957,1091.475,0.599,1.106
0.895000,1026266,1000.00,12,0,1,-61.301,2.335,2.976,1091.571,1.072,1.111
0.896000,1026267,1000.00,12,0,1,-62.406,2.035,2.976,1089.914,-0.651,1.115
0.897000,1026268,1000.00,12,0,1,-61.805,0.834,2.924,1089.986,-0.972,1.092
0.898000,1026269,1000.00,12,0,1,-61.061,1.380,2.919,1091.691,0.779,1.098
0.899000,1026270,1000.00,12,0,1,-56.184,3.214,2.911,1090.635,-0.045,1.097
0.900000,1026271,1000.00,12,0,1,-53.758,4.845,2.968,1090.563,-0.652,1.095
0.901000,1026272,1000.00,12,0,1,-53.230,2.366,2.979,1091.139,0.045,1.095
0.902000,1026273,1000.00,12,0,1,-56.256,-1.368,2.984,1090.827,-0.288,1.090
0.903000,1026274,1000.00,12,0,1,-54.575,-2.431,2.991,1088.497,-2.196,1.117
0.904000,1026275,1000.00,12,0,1,-50.275,1.401,2.995,1089.073,-2.056,1.139
0.905000,1026276,1000.00,12,0,1,-46.528,3.736,3.038,1089.842,-0.550,1.065
0.906000,1026277,1000.00,12,0,1,-48.065,2.321,3.040,1089.626,-0.768,1.071
0.907000,1026278,1000.00,12,0,1,-53.230,-2.651,3.018,1090.803,0.265,1.053
0.908000,1026279,1000.00,12,0,1,-52.773,-2.444,2.997,1089.434,-0.304,1.053
0.909000,1026280,1000.00,12,0,1,-53.734,-0.768,2.920,1090.226,-0.394,1.052
0.910000,1026281,1000.00,12,0,1,-52.869,-0.059,2.798,1090.274,0.656,1.055
0.911000,1026282,1000.00,12,0,1,-52.845,2.328,2.780,1090.755,0.366,1.022
0.912000,1026283,1000.00,12,0,1,-57.722,-1.318,2.718,1089.722,0.201,1.022
0.913000,1026284,1000.00,12,0,1,-57.361,-0.867,2.712,1089.313,-0.761,1.025
0.914000,1026285,1000.00,12,0,1,-60.484,-1.343,2.647,1088.689,-0.677,0.937
0.915000,1026286,1000.00,12,0,1,-62.862,-4.231,2.490,1089.602,-0.192,0.936
0.916000,1026287,1000.00,12,0,1,-58.827,-0.049,2.367,1089.722,0.490,0.936
0.917000,1026288,1000.00,12,0,1,-57.337,1.567,2.370,1088.040,-1.042,0.922
0.918000,1026289,1000.00,12,0,1,-56.401,0.801,2.365,1088.977,-0.560,0.916
0.919000,1026290,1000.00,12,0,1,-57.626,-0.884,2.353,1091.932,2.401,0.976
0.920000,1026291,1000.00,12,0,1,-53.734,-0.128,2.349,1091.812,2.280,0.972
0.921000,1026292,1000.00,12,0,1,-54.863,-0.598,2.341,1089.361,-0.277,0.969
0.922000,1026293,1000.00,12,0,1,-54.239,-3.193,2.326,1090.274,-0.187,0.967
0.923000,1026294,1000.00,12,0,1,-51.140,-0.254,2.250,1091.211,1.228,0.970
0.924000,1026295,1000.00,12,0,1,-46.216,2.537,2.089,1092.220,1.440,0.987
0.925000,1026296,1000.00,12,0,1,-48.185,1.400,2.038,1093.061,2.243,1.034
0.926000,1026297,1000.00,12,0,1,-52.869,-3.971,2.114,1090.779,0.047,1.025
0.927000,1026298,1000.00,12,0,1,-55.151,-5.184,2.227,1091.932,0.114,1.023
0.928000,1026299,1000.00,12,0,1,-56.425,-4.628,2.299,1093.157,1.886,1.056
0.929000,1026300,1000.00,12,0,1,-58.274,-4.417,2.381,1090.827,-0.486,1.058
0.930000,1026301,1000.00,12,0,1,-57.674,-1.970,2.397,1090.803,-0.991,1.067
0.931000,1026302,1000.00,12,0,1,-58.634,-0.512,2.392,1091.764,0.311,1.061
0.932000,1026303,1000.00,12,0,1,-58.514,0.735,2.384,1091.884,0.315,1.059
0.933000,1026304,1000.00,12,0,1,-59.691,1.367,2.390,1090.202,-0.934,1.043
0.934000,1026305,1000.00,12,0,1,-58.514,2.451,2.392,1088.401,-2.673,1.108
0.935000,1026306,1000.00,12,0,1,-53.926,6.667,2.556,1090.731,-0.673,1.111
0.936000,1026307,1000.00,12,0,1,-54.215,6.377,2.693,1090.731,0.322,1.099
0.937000,1026308,1000.00,12,0,1,-59.043,0.379,2.667,1089.962,-1.011,1.092
0.938000,1026309,1000.00,12,0,1,-58.466,-0.936,2.666,1088.713,-1.559,1.110
0.939000,1026310,1000.00,12,0,1,-55.248,1.243,2.671,1091.691,0.290,1.087
0.940000,1026311,1000.00,12,0,1,-52.797,1.927,2.676,1091.836,1.592,1.084
0.941000,1026312,1000.00,12,0,1,-48.882,3.402,2.715,1091.523,0.103,1.067
0.942000,1026313,1000.00,12,0,1,-45.928,4.513,2.713,1091.091,0.137,1.067
0.943000,1026314,1000.00,12,0,1,-42.901,4.811,2.784,1089.770,-1.340,1.084
0.944000,1026315,1000.00,12,0,1,-45.279,1.984,2.798,1088.449,-2.362,1.131
0.945000,1026316,1000.00,12,0,1,-51.668,-5.129,2.871,1088.977,-1.737,1.147
0.946000,1026317,1000.00,12,0,1,-53.734,-7.039,3.025,1087.920,-1.940,1.176
0.947000,1026318,1000.00,12,0,1,-54.599,-5.980,3.139,1089.169,-1.038,1.177
0.948000,1026319,1000.00,12,0,1,-55.992,-5.645,3.233,1091.547,1.682,1.196
0.949000,1026320,1000.00,12,0,1,-56.569,-4.070,3.252,1090.082,0.775,1.201
0.950000,1026321,1000.00,12,0,1,-55.872,-1.586,3.187,1090.130,0.023,1.197
0.951000,1026322,1000.00,12,0,1,-59.235,-2.026,3.183,1091.691,1.936,1.228
0.952000,1026323,1000.00,12,0,1,-60.628,-2.595,3.198,1092.436,2.256,1.268
0.953000,1026324,1000.00,12,0,1,-58.202,1.336,3.185,1090.803,0.966,1.237
0.954000,1026325,1000.00,12,0,1,-58.827,1.989,3.191,1088.929,-1.206,1.215
0.955000,1026326,1000.00,12,0,1,-58.394,1.824,3.158,1088.713,-1.219,1.224
0.956000,1026327,1000.00,12,0,1,-56.401,3.600,3.182,1089.361,-0.444,1.221
0.957000,1026328,1000.00,12,0,1,-56.088,2.929,3.186,1090.010,0.288,1.221
0.958000,1026329,1000.00,12,0,1,-57.818,0.274,3.168,1089.914,0.293,1.221
0.959000,1026330,1000.00,12,0,1,-55.992,-0.089,3.166,1090.154,0.267,1.220
0.960000,1026331,1000.00,12,0,1,-51.789,2.667,3.188,1090.082,0.326,1.218
0.961000,1026332,1000.00,12,0,1,-48.954,3.558,3.211,1089.410,-0.438,1.218
0.962000,1026333,1000.00,12,0,1,-49.915,1.302,3.211,1091.115,0.746,1.223
0.963000,1026334,1000.00,12,0,1,-50.515,-1.050,3.212,1091.523,1.484,1.236
0.964000,1026335,1000.00,12,0,1,-47.537,0.720,3.208,1089.530,-0.622,1.235
0.965000,1026336,1000.00,12,0,1,-47.056,1.382,3.158,1089.265,-1.155,1.246
0.966000,1026337,1000.00,12,0,1,-49.699,-1.306,3.163,1091.595,0.986,1.251
0.967000,1026338,1000.00,12,0,1,-50.467,-1.681,3.164,1092.124,1.761,1.267
0.968000,1026339,1000.00,12,0,1,-49.939,-0.099,3.162,1088.689,-1.292,1.278
0.969000,1026340,1000.00,12,0,1,-52.773,-0.982,3.163,1088.881,-1.826,1.259
0.970000,1026341,1000.00,12,0,1,-53.590,-1.149,3.167,1088.689,-0.794,1.222
0.971000,1026342,1000.00,12,0,1,-54.551,0.110,3.166,1089.602,-0.518,1.224
0.972000,1026343,1000.00,12,0,1,-60.940,-4.011,3.184,1089.530,0.350,1.224
0.973000,1026344,1000.00,12,0,1,-60.196,-3.376,3.220,1089.890,0.141,1.212
0.974000,1026345,1000.00,12,0,1,-61.061,-1.185,3.204,1090.490,1.064,1.204
0.975000,1026346,1000.00,12,0,1,-59.691,-0.995,3.201,1089.602,0.227,1.162
0.976000,1026347,1000.00,12,0,1,-57.674,2.010,3.164,1088.689,-0.768,1.167
0.977000,1026348,1000.00,12,0,1,-54.623,3.093,3.109,1089.530,-0.005,1.167
0.978000,1026349,1000.00,12,0,1,-52.149,4.550,3.107,1089.482,0.184,1.137
0.979000,1026350,1000.00,12,0,1,-51.765,2.914,3.071,1090.539,0.745,1.140
0.980000,1026351,1000.00,12,0,1,-51.620,1.012,3.062,1090.514,0.969,1.139
0.981000,1026352,1000.00,12,0,1,-50.179,0.633,3.062,1091.043,0.831,1.144
0.982000,1026353,1000.00,12,0,1,-48.762,0.435,3.061,1092.076,1.701,1.168
0.983000,1026354,1000.00,12,0,1,-47.297,0.649,3.056,1089.121,-0.725,1.166
0.984000,1026355,1000.00,12,0,1,-47.705,-0.392,3.037,1090.707,-0.599,1.106
0.985000,1026356,1000.00,12,0,1,-48.522,-1.519,2.895,1088.305,-0.945,1.110
0.986000,1026357,1000.00,12,0,1,-48.906,-1.604,2.760,1087.920,-2.831,1.179
0.987000,1026358,1000.00,12,0,1,-48.714,-0.676,2.762,1089.145,-0.260,1.171
0.988000,1026359,1000.00,12,0,1,-45.375,2.768,2.786,1089.938,0.090,1.150
0.989000,1026360,1000.00,12,0,1,-47.945,2.565,2.804,1089.482,0.225,1.150
0.990000,1026361,1000.00,12,0,1,-57.193,-5.060,2.881,1088.617,-0.678,1.131
0.991000,1026362,1000.00,12,0,1,-56.665,-4.296,2.905,1088.353,-0.784,1.137
0.992000,1026363,1000.00,12,0,1,-51.765,2.796,2.861,1088.953,0.013,1.137
0.993000,1026364,1000.00,12,0,1,-50.612,4.503,2.851,1089.530,0.568,1.124
0.994000,1026365,1000.00,12,0,1,-54.119,1.716,2.848,1089.169,0.500,1.075
0.995000,1026366,1000.00,12,0,1,-55.416,-0.526,2.755,1088.929,-0.031,1.047
0.996000,1026367,1000.00,12,0,1,-53.902,0.735,2.571,1092.364,2.704,1.080
0.997000,1026368,1000.00,12,0,1,-51.212,2.096,2.446,1092.532,3.274,1.166
0.998000,1026369,1000.00,12,0,1,-45.111,5.683,2.447,1091.043,0.895,1.148
0.999000,1026370,1000.00,12,0,1,-48.258,2.499,2.405,1090.490,0.189,1.143
1.000000,1026371,1000.00,12,0,1,-52.461,-4.822,2.490,1089.746,-0.601,1.147
1.001000,1026372,1000.00,12,0,1,-48.137,-2.110,2.491,1091.691,0.613,1.117
1.002000,1026373,1000.00,12,0,1,-44.606,0.683,2.466,1089.650,-0.271,1.071
1.003000,1026374,1000.00,12,0,1,-48.546,-3.344,2.504,1090.082,-1.273,1.077
1.004000,1026375,1000.00,12,0,1,-54.599,-9.289,2.813,1089.458,-0.476,1.066
1.005000,1026376,1000.00,12,0,1,-54.071,-8.514,3.049,1091.331,-0.008,1.052
1.006000,1026377,1000.00,12,0,1,-51.380,-3.841,3.055,1092.052,1.742,1.078
1.007000,1026378,1000.00,12,0,1,-52.701,-3.262,3.062,1091.091,0.127,1.078
1.008000,1026379,1000.00,12,0,1,-54.215,-3.232,3.096,1090.250,-0.509,1.079
1.009000,1026380,1000.00,12,0,1,-53.974,-1.179,3.100,1090.274,-0.568,1.082
1.010000,1026381,1000.00,12,0,1,-53.014,1.390,3.083,1091.235,0.271,1.081
1.011000,1026382,1000.00,12,0,1,-48.930,5.819,3.151,1089.842,-0.424,1.081
1.012000,1026383,1000.00,12,0,1,-52.773,4.452,3.208,1088.641,-2.018,1.113
1.013000,1026384,1000.00,12,0,1,-59.908,-2.644,3.227,1089.289,-0.937,1.101
1.014000,1026385,1000.00,12,0,1,-60.148,-2.430,3.243,1091.523,0.878,1.105
1.015000,1026386,1000.00,12,0,1,-59.211,-0.395,3.238,1091.595,1.464,1.112
1.016000,1026387,1000.00,12,0,1,-55.536,2.130,3.247,1090.178,-0.383,1.105
1.017000,1026388,1000.00,12,0,1,-51.092,5.904,3.344,1090.250,-0.438,1.078
1.018000,1026389,1000.00,12,0,1,-53.686,2.566,3.363,1089.554,-0.807,1.069
1.019000,1026390,1000.00,12,0,1,-52.053,1.041,3.364,1090.346,-0.507,1.039
1.020000,1026391,1000.00,12,0,1,-50.227,2.368,3.376,1090.274,-0.001,1.033
1.021000,1026392,1000.00,12,0,1,-50.011,0.432,3.377,1091.019,0.068,1.031
1.022000,1026393,1000.00,12,0,1,-43.381,4.387,3.386,1090.010,-0.190,1.030
1.023000,1026394,1000.00,12,0,1,-44.751,3.642,3.392,1089.313,-1.387,1.048
1.024000,1026395,1000.00,12,0,1,-49.146,-2.822,3.411,1090.611,0.057,1.037
1.025000,1026396,1000.00,12,0,1,-49.987,-3.153,3.437,1090.154,0.023,1.037
1.026000,1026397,1000.00,12,0,1,-50.299,-2.868,3.449,1090.587,-0.037,1.031
1.027000,1026398,1000.00,12,0,1,-50.900,-2.190,3.435,1091.956,1.500,1.053
1.028000,1026399,1000.00,12,0,1,-51.164,-1.196,3.379,1092.124,1.473,1.073
1.029000,1026400,1000.00,12,0,1,-54.911,-2.565,3.373,1089.746,-0.487,1.070
1.030000,1026401,1000.00,12,0,1,-54.647,-1.749,3.379,1089.866,-1.040,1.071
1.031000,1026402,1000.00,12,0,1,-53.350,1.711,3.387,1089.193,-0.699,1.069
1.032000,1026403,1000.00,12,0,1,-52.245,3.182,3.416,1089.241,-1.129,1.054
1.033000,1026404,1000.00,12,0,1,-51.981,4.077,3.463,1089.770,-0.045,1.049
1.034000,1026405,1000.00,12,0,1,-53.542,2.543,3.481,1089.770,-0.105,1.046
1.035000,1026406,1000.00,12,0,1,-53.782,1.495,3.481,1091.019,0.868,1.045
1.036000,1026407,1000.00,12,0,1,-52.869,1.865,3.484,1090.466,0.746,0.971
1.037000,1026408,1000.00,12,0,1,-49.338,3.361,3.515,1091.451,0.755,0.976
1.038000,1026409,1000.00,12,0,1,-48.858,3.179,3.522,1090.779,0.819,0.982
1.039000,1026410,1000.00,12,0,1,-46.960,1.950,3.514,1091.211,0.150,0.982
1.040000,1026411,1000.00,12,0,1,-48.546,0.110,3.440,1090.250,0.027,0.977
1.041000,1026412,1000.00,12,0,1,-48.065,-2.280,3.401,1087.248,-3.008,1.060
1.042000,1026413,1000.00,12,0,1,-47.297,-1.528,3.385,1089.674,-1.189,1.073
1.043000,1026414,1000.00,12,0,1,-47.153,-2.551,3.344,1091.307,1.408,1.089
1.044000,1026415,1000.00,12,0,1,-48.954,-3.782,3.378,1090.322,0.050,1.087
1.045000,1026416,1000.00,12,0,1,-48.137,-3.356,3.410,1090.779,0.383,1.088
1.046000,1026417,1000.00,12,0,1,-49.411,-2.813,3.432,1090.611,0.398,1.020
1.047000,1026418,1000.00,12,0,1,-52.581,-4.787,3.485,1087.992,-1.731,0.941
1.048000,1026419,1000.00,12,0,1,-52.341,-3.345,3.424,1088.401,-1.750,0.965
1.049000,1026420,1000.00,12,0,1,-48.978,1.486,3.413,1090.539,0.866,0.972
1.050000,1026421,1000.00,12,0,1,-47.825,3.896,3.389,1089.241,0.089,0.969
1.051000,1026422,1000.00,12,0,1,-51.500,1.695,3.384,1090.683,0.592,0.968
1.052000,1026423,1000.00,12,0,1,-58.658,-4.058,3.431,1091.403,2.029,1.009
1.053000,1026424,1000.00,12,0,1,-58.827,-4.033,3.446,1090.442,0.532,0.996
1.054000,1026425,1000.00,12,0,1,-55.103,0.853,3.188,1089.626,-0.143,0.994
1.055000,1026426,1000.00,12,0,1,-54.983,1.474,2.959,1090.971,0.625,0.998
1.056000,1026427,1000.00,12,0,1,-53.158,1.897,2.921,1091.836,1.680,0.996
1.057000,1026428,1000.00,12,0,1,-47.417,6.081,3.010,1090.418,0.184,0.996
1.058000,1026429,1000.00,12,0,1,-46.456,5.902,3.090,1091.331,0.319,0.994
1.059000,1026430,1000.00,12,0,1,-47.321,2.474,3.105,1089.746,-0.324,0.992
1.060000,1026431,1000.00,12,0,1,-47.753,0.516,3.100,1089.794,-1.319,1.009
1.061000,1026432,1000.00,12,0,1,-45.615,0.520,2.990,1089.794,-0.377,1.008
1.062000,1026433,1000.00,12,0,1,-44.510,0.906,2.925,1089.986,-0.735,0.973
1.063000,1026434,1000.00,12,0,1,-43.381,0.504,2.902,1090.322,0.025,0.964
1.064000,1026435,1000.00,12,0,1,-40.331,2.550,2.904,1088.641,-1.331,0.974
1.065000,1026436,1000.00,12,0,1,-47.561,-2.686,2.928,1088.785,-1.477,0.974
1.066000,1026437,1000.00,12,0,1,-54.431,-9.921,3.233,1090.442,0.529,0.976
1.067000,1026438,1000.00,12,0,1,-56.449,-9.042,3.375,1092.076,1.828,1.007
1.068000,1026439,1000.00,12,0,1,-58.827,-8.698,3.574,1089.962,0.432,1.003
1.069000,1026440,1000.00,12,0,1,-59.547,-6.791,3.698,1089.506,-0.953,1.009
1.070000,1026441,1000.00,12,0,1,-60.460,-4.647,3.741,1091.788,1.510,1.032
1.071000,1026442,1000.00,12,0,1,-61.589,-3.640,3.776,1090.875,0.921,1.040
1.072000,1026443,1000.00,12,0,1,-57.385,1.381,3.729,1091.403,0.557,1.042
1.073000,1026444,1000.00,12,0,1,-50.732,8.350,3.878,1091.764,1.334,1.041
1.074000,1026445,1000.00,12,0,1,-47.801,10.737,4.145,1091.091,0.203,1.041
1.075000,1026446,1000.00,12,0,1,-47.369,9.252,4.324,1090.082,-0.590,1.045
1.076000,1026447,1000.00,12,0,1,-47.321,7.328,4.428,1089.602,-1.219,1.059
1.077000,1026448,1000.00,12,0,1,-48.930,3.933,4.452,1089.265,-1.230,1.052
1.078000,1026449,1000.00,12,0,1,-47.945,2.353,4.461,1090.851,-0.016,1.031
1.079000,1026450,1000.00,12,0,1,-46.408,2.425,4.460,1092.172,1.498,1.050
1.080000,1026451,1000.00,12,0,1,-47.849,-0.366,4.453,1090.154,-0.262,1.041
1.081000,1026452,1000.00,12,0,1,-48.522,-2.515,4.461,1090.106,-0.999,1.045
1.082000,1026453,1000.00,12,0,1,-47.609,-2.198,4.449,1090.995,0.330,1.034
1.083000,1026454,1000.00,12,0,1,-50.107,-4.136,4.450,1091.427,0.442,1.036
1.084000,1026455,1000.00,12,0,1,-49.723,-4.305,4.477,1092.316,1.195,1.050
1.085000,1026456,1000.00,12,0,1,-50.227,-2.968,4.492,1092.076,0.918,1.051
1.086000,1026457,1000.00,12,0,1,-53.014,-4.676,4.532,1089.674,-1.243,1.060
1.087000,1026458,1000.00,12,0,1,-56.352,-5.836,4.582,1091.571,-0.272,1.055
1.088000,1026459,1000.00,12,0,1,-57.554,-5.250,4.620,1091.691,0.904,1.057
1.089000,1026460,1000.00,12,0,1,-57.433,-2.846,4.630,1091.139,-0.399,1.058
1.090000,1026461,1000.00,12,0,1,-54.095,1.447,4.634,1089.530,-1.211,1.072
1.091000,1026462,1000.00,12,0,1,-52.077,4.858,4.674,1088.953,-2.096,1.027
1.092000,1026463,1000.00,12,0,1,-53.446,3.864,4.700,1090.851,-0.071,1.014
1.093000,1026464,1000.00,12,0,1,-52.629,3.880,4.719,1090.539,0.234,0.994
1.094000,1026465,1000.00,12,0,1,-53.014,3.757,4.718,1088.953,-1.491,1.017
1.095000,1026466,1000.00,12,0,1,-51.572,3.292,4.717,1089.650,-0.768,1.021
1.096000,1026467,1000.00,12,0,1,-44.895,7.957,4.833,1089.842,-0.217,1.020
1.097000,1026468,1000.00,12,0,1,-43.958,7.781,4.911,1090.442,0.162,0.990
1.098000,1026469,1000.00,12,0,1,-45.327,3.389,4.911,1090.995,0.800,0.965
1.099000,1026470,1000.00,12,0,1,-44.534,2.215,4.917,1090.875,0.573,0.961
1.100000,1026471,1000.00,12,0,1,-45.495,-0.030,4.886,1091.451,0.806,0.968
1.101000,1026472,1000.00,12,0,1,-41.964,0.903,4.881,1088.521,-1.240,0.980
1.102000,1026473,1000.00,12,0,1,-40.571,2.296,4.858,1088.857,-1.926,0.976
1.103000,1026474,1000.00,12,0,1,-42.877,-1.161,4.828,1089.578,-0.071,0.973
1.104000,1026475,1000.00,12,0,1,-49.891,-6.725,4.919,1088.929,-0.931,0.982
1.105000,1026476,1000.00,12,0,1,-51.092,-8.354,5.055,1090.250,0.331,0.979
1.106000,1026477,1000.00,12,0,1,-51.765,-5.888,5.116,1088.833,-0.242,0.950
1.107000,1026478,1000.00,12,0,1,-52.005,-5.149,5.095,1088.929,-0.878,0.958
1.108000,1026479,1000.00,12,0,1,-52.269,-2.981,5.044,1089.458,0.449,0.959
1.109000,1026480,1000.00,12,0,1,-52.701,-2.009,5.040,1090.731,1.066,0.970
1.110000,1026481,1000.00,12,0,1,-52.821,-0.732,5.040,1090.875,1.705,0.981
1.111000,1026482,1000.00,12,0,1,-54.743,-1.030,5.042,1088.401,-0.727,0.985
1.112000,1026483,1000.00,12,0,1,-57.505,-2.970,5.058,1088.377,-1.104,0.992
1.113000,1026484,1000.00,12,0,1,-58.106,-2.738,5.072,1091.115,1.606,1.018
1.114000,1026485,1000.00,12,0,1,-57.457,-1.709,5.065,1090.298,1.293,1.017
1.115000,1026486,1000.00,12,0,1,-54.863,0.572,5.051,1087.007,-1.955,1.033
1.116000,1026487,1000.00,12,0,1,-55.151,0.405,4.853,1089.169,-0.604,1.034
1.117000,1026488,1000.00,12,0,1,-55.200,-0.919,4.683,1092.148,2.884,1.081
1.118000,1026489,1000.00,12,0,1,-52.821,0.517,4.519,1092.004,2.341,1.129
1.119000,1026490,1000.00,12,0,1,-50.275,1.983,4.425,1093.037,2.517,1.176
1.120000,1026491,1000.00,12,0,1,-47.825,2.992,4.397,1092.484,2.044,1.192
1.121000,1026492,1000.00,12,0,1,-46.216,3.507,4.394,1090.274,-0.549,1.187
1.122000,1026493,1000.00,12,0,1,-48.858,0.592,4.391,1090.250,-0.883,1.191
1.123000,1026494,1000.00,12,0,1,-53.974,-4.323,4.273,1091.451,0.332,1.177
1.124000,1026495,1000.00,12,0,1,-54.455,-4.672,4.048,1093.445,1.862,1.206
1.125000,1026496,1000.00,12,0,1,-54.335,-2.554,3.848,1089.818,-0.684,1.207
1.126000,1026497,1000.00,12,0,1,-52.101,0.052,3.706,1092.316,-0.332,1.195
1.127000,1026498,1000.00,12,0,1,-47.729,5.383,3.742,1091.691,1.149,1.194
1.128000,1026499,1000.00,12,0,1,-51.813,3.370,3.758,1089.674,-2.148,1.232
1.129000,1026500,1000.00,12,0,1,-55.031,-0.265,3.742,1090.274,-0.964,1.221
1.130000,1026501,1000.00,12,0,1,-57.337,-0.409,3.742,1091.571,0.164,1.221
1.131000,1026502,1000.00,12,0,1,-56.184,0.446,3.726,1091.403,0.234,1.213
1.132000,1026503,1000.00,12,0,1,-57.385,1.229,3.717,1091.235,-0.114,1.212
1.133000,1026504,1000.00,12,0,1,-56.016,1.273,3.675,1089.746,-1.292,1.224
1.134000,1026505,1000.00,12,0,1,-57.818,0.912,3.627,1087.920,-2.812,1.276
1.135000,1026506,1000.00,12,0,1,-62.358,-4.201,3.651,1088.641,-2.216,1.308
1.136000,1026507,1000.00,12,0,1,-63.919,-5.751,3.681,1091.019,0.478,1.298
1.137000,1026508,1000.00,12,0,1,-63.198,-4.804,3.651,1090.034,-0.058,1.297
1.138000,1026509,1000.00,12,0,1,-61.325,-3.281,3.605,1091.691,0.619,1.294
1.139000,1026510,1000.00,12,0,1,-60.100,-1.892,3.593,1093.037,2.347,1.334
1.140000,1026511,1000.00,12,0,1,-60.292,-2.479,3.604,1091.235,0.364,1.324
1.141000,1026512,1000.00,12,0,1,-50.636,4.646,3.598,1091.691,0.084,1.291
1.142000,1026513,1000.00,12,0,1,-37.760,15.969,4.213,1091.812,0.670,1.294
1.143000,1026514,1000.00,12,0,1,-34.470,17.314,4.842,1093.493,1.333,1.307
1.144000,1026515,1000.00,12,0,1,-41.099,8.887,4.974,1091.115,0.175,1.291
1.145000,1026516,1000.00,12,0,1,-42.036,5.005,5.003,1090.923,-1.398,1.301
1.146000,1026517,1000.00,12,0,1,-47.417,1.520,4.879,1091.956,0.537,1.303
1.147000,1026518,1000.00,12,0,1,-56.064,-6.881,4.852,1091.740,0.022,1.303
1.148000,1026519,1000.00,12,0,1,-61.541,-9.932,5.028,1089.722,-1.380,1.312
1.149000,1026520,1000.00,12,0,1,-63.270,-9.240,5.186,1091.740,-0.225,1.310
1.150000,1026521,1000.00,12,0,1,-58.875,-3.359,5.208,1092.484,1.413,1.321
1.151000,1026522,1000.00,12,0,1,-60.196,-1.200,5.209,1092.052,0.419,1.310
1.152000,1026523,1000.00,12,0,1,-57.890,-0.203,5.199,1091.691,0.155,1.282
1.153000,1026524,1000.00,12,0,1,-55.632,3.865,5.225,1090.442,-0.912,1.288
1.154000,1026525,1000.00,12,0,1,-58.514,0.378,5.138,1090.827,-0.938,1.288
1.155000,1026526,1000.00,12,0,1,-59.379,-1.218,5.003,1091.860,0.423,1.289
1.156000,1026527,1000.00,12,0,1,-48.762,6.224,5.011,1090.322,-0.930,1.295
1.157000,1026528,1000.00,12,0,1,-36.632,16.107,5.456,1090.298,-1.273,1.302
1.158000,1026529,1000.00,12,0,1,-41.652,9.788,5.613,1089.313,-1.546,1.318
1.159000,1026530,1000.00,12,0,1,-50.852,-3.168,5.624,1090.587,-0.895,1.316
1.160000,1026531,1000.00,12,0,1,-51.188,-5.073,5.669,1090.514,-0.060,1.294
1.161000,1026532,1000.00,12,0,1,-50.948,-4.789,5.707,1092.580,0.902,1.296
1.162000,1026533,1000.00,12,0,1,-48.786,-3.516,5.713,1091.932,1.272,1.299
1.163000,1026534,1000.00,12,0,1,-48.786,-2.475,5.711,1091.571,-0.112,1.279
1.164000,1026535,1000.00,12,0,1,-50.900,-4.280,5.738,1090.130,-0.672,1.269
1.165000,1026536,1000.00,12,0,1,-51.212,-3.631,5.760,1087.968,-2.792,1.300
1.166000,1026537,1000.00,12,0,1,-50.900,-1.908,5.766,1087.776,-2.617,1.349
1.167000,1026538,1000.00,12,0,1,-50.708,-0.481,5.765,1089.241,-0.702,1.290
1.168000,1026539,1000.00,12,0,1,-54.431,-1.869,5.771,1089.217,-0.213,1.247
1.169000,1026540,1000.00,12,0,1,-58.562,-4.686,5.802,1092.100,1.985,1.228
1.170000,1026541,1000.00,12,0,1,-59.739,-3.944,5.813,1090.442,1.525,1.212
1.171000,1026542,1000.00,12,0,1,-62.982,-4.724,5.830,1088.521,-1.235,1.223
1.172000,1026543,1000.00,12,0,1,-65.937,-6.283,5.897,1088.713,-0.576,1.219
1.173000,1026544,1000.00,12,0,1,-71.678,-9.068,6.004,1091.091,1.354,1.233
1.174000,1026545,1000.00,12,0,1,-74.800,-11.183,6.173,1091.812,2.371,1.250
1.175000,1026546,1000.00,12,0,1,-76.386,-10.107,6.327,1091.115,1.258,1.259
1.176000,1026547,1000.00,12,0,1,-74.248,-7.527,6.415,1091.716,1.294,1.272
1.177000,1026548,1000.00,12,0,1,-66.201,0.477,6.370,1088.401,-1.022,1.269
1.178000,1026549,1000.00,12,0,1,-60.316,6.124,6.411,1089.722,-1.320,1.247
1.179000,1026550,1000.00,12,0,1,-57.145,7.274,6.493,1091.932,1.993,1.271
1.180000,1026551,1000.00,12,0,1,-48.089,12.790,6.740,1091.475,0.900,1.277
1.181000,1026552,1000.00,12,0,1,-35.358,21.678,7.404,1089.818,-0.431,1.278
1.182000,1026553,1000.00,12,0,1,-31.875,22.279,8.045,1091.716,0.497,1.280
1.183000,1026554,1000.00,12,0,1,-38.289,12.599,8.238,1092.004,1.549,1.285
1.184000,1026555,1000.00,12,0,1,-39.706,7.625,8.307,1090.827,-0.122,1.222
1.185000,1026556,1000.00,12,0,1,-40.811,6.353,8.335,1090.539,-0.366,1.183
1.186000,1026557,1000.00,12,0,1,-51.260,-2.819,8.304,1090.923,0.041,1.181
1.187000,1026558,1000.00,12,0,1,-58.394,-9.496,8.385,1090.971,0.125,1.181
1.188000,1026559,1000.00,12,0,1,-61.349,-9.101,8.470,1092.388,1.218,1.190
1.189000,1026560,1000.00,12,0,1,-64.399,-9.249,8.567,1091.235,0.545,1.146
1.190000,1026561,1000.00,12,0,1,-67.186,-8.817,8.650,1090.635,-0.605,1.148
1.191000,1026562,1000.00,12,0,1,-70.885,-9.350,8.725,1090.466,-0.420,1.149
1.192000,1026563,1000.00,12,0,1,-76.290,-11.568,8.585,1089.722,-1.077,1.155
1.193000,1026564,1000.00,12,0,1,-72.831,-7.507,8.297,1087.776,-2.505,1.194
1.194000,1026565,1000.00,12,0,1,-62.310,3.603,8.217,1088.497,-2.006,1.227
1.195000,1026566,1000.00,12,0,1,-65.985,1.977,8.191,1090.659,0.451,1.212
1.196000,1026567,1000.00,12,0,1,-66.009,-1.903,8.193,1091.163,1.061,1.219
1.197000,1026568,1000.00,12,0,1,-56.977,5.984,8.179,1091.211,0.724,1.223
1.198000,1026569,1000.00,12,0,1,-54.479,6.883,8.116,1090.034,-0.168,1.208
1.199000,1026570,1000.00,12,0,1,-56.304,2.488,8.018,1090.322,-0.499,1.210
1.200000,1026571,1000.00,12,0,1,-55.103,1.363,8.006,1091.667,1.009,1.202
1.201000,1026572,1000.00,12,0,1,-42.973,9.392,8.114,1091.235,0.556,1.203
1.202000,1026573,1000.00,12,0,1,-38.962,13.436,8.333,1089.722,-0.892,1.209
1.203000,1026574,1000.00,12,0,1,-44.102,5.469,8.351,1088.809,-1.706,1.226
1.204000,1026575,1000.00,12,0,1,-49.050,0.185,8.351,1089.818,-0.694,1.223
1.205000,1026576,1000.00,12,0,1,-50.972,-1.741,8.353,1090.587,0.459,1.223
1.206000,1026577,1000.00,12,0,1,-51.260,-0.669,8.307,1091.523,1.100,1.226
1.207000,1026578,1000.00,12,0,1,-52.149,0.066,7.988,1090.947,0.909,1.219
1.208000,1026579,1000.00,12,0,1,-51.452,1.706,7.871,1089.049,-0.984,1.208
1.209000,1026580,1000.00,12,0,1,-50.588,4.046,7.879,1088.881,-1.157,1.212
1.210000,1026581,1000.00,12,0,1,-50.179,4.742,7.875,1087.944,-1.345,1.227
1.211000,1026582,1000.00,12,0,1,-53.614,2.559,7.854,1090.490,0.380,1.222
1.212000,1026583,1000.00,12,0,1,-54.863,0.315,7.839,1091.451,2.250,1.249
1.213000,1026584,1000.00,12,0,1,-56.713,-0.631,7.831,1090.442,0.602,1.252
1.214000,1026585,1000.00,12,0,1,-55.320,-1.108,7.810,1091.115,1.007,1.257
1.215000,1026586,1000.00,12,0,1,-52.990,0.747,7.793,1091.643,1.421,1.210
1.216000,1026587,1000.00,12,0,1,-53.926,-1.662,7.792,1091.379,0.836,1.158
1.217000,1026588,1000.00,12,0,1,-55.224,-4.633,7.819,1089.938,-0.464,1.155
1.218000,1026589,1000.00,12,0,1,-54.095,-5.072,7.848,1090.394,-0.627,1.159
1.219000,1026590,1000.00,12,0,1,-51.717,-4.108,7.841,1091.836,0.977,1.132
1.220000,1026591,1000.00,12,0,1,-51.332,-4.333,7.845,1091.115,0.276,1.112
1.221000,1026592,1000.00,12,0,1,-52.125,-5.924,7.862,1090.490,-0.596,1.102
1.222000,1026593,1000.00,12,0,1,-51.428,-5.293,7.847,1090.058,-0.810,1.105
1.223000,1026594,1000.00,12,0,1,-49.819,-3.354,7.756,1090.466,-0.544,1.091
1.224000,1026595,1000.00,12,0,1,-49.651,-2.058,7.599,1089.866,-0.615,1.042
1.225000,1026596,1000.00,12,0,1,-53.878,-4.254,7.487,1090.731,-0.206,1.027
1.226000,1026597,1000.00,12,0,1,-56.569,-5.408,7.451,1090.755,0.447,1.012
1.227000,1026598,1000.00,12,0,1,-56.641,-2.829,7.461,1090.659,-0.014,1.002
1.228000,1026599,1000.00,12,0,1,-59.547,-2.585,7.420,1090.731,0.302,0.985
1.229000,1026600,1000.00,12,0,1,-63.222,-3.810,7.368,1090.442,-0.006,0.944
1.230000,1026601,1000.00,12,0,1,-65.000,-3.036,7.155,1088.281,-1.620,0.963
1.231000,1026602,1000.00,12,0,1,-67.594,-3.001,6.479,1090.851,-0.034,0.961
1.232000,1026603,1000.00,12,0,1,-69.396,-3.207,5.679,1091.163,1.461,0.981
1.233000,1026604,1000.00,12,0,1,-69.324,-1.872,5.399,1089.794,-0.593,0.959
1.234000,1026605,1000.00,12,0,1,-65.865,1.385,5.294,1088.545,-1.369,0.979
1.235000,1026606,1000.00,12,0,1,-65.192,2.442,5.229,1089.794,-0.610,0.981
1.236000,1026607,1000.00,12,0,1,-63.919,1.727,5.219,1093.205,2.545,1.045
1.237000,1026608,1000.00,12,0,1,-60.724,3.491,5.068,1092.676,2.374,1.097
1.238000,1026609,1000.00,12,0,1,-59.547,2.992,4.920,1089.914,-0.942,1.092
1.239000,1026610,1000.00,12,0,1,-57.313,2.728,4.758,1089.650,-1.312,1.105
1.240000,1026611,1000.00,12,0,1,-53.542,4.610,4.638,1091.836,0.560,1.104
1.241000,1026612,1000.00,12,0,1,-47.345,7.957,4.586,1091.836,1.067,1.113
1.242000,1026613,1000.00,12,0,1,-47.369,7.468,4.412,1089.193,-1.565,1.125
1.243000,1026614,1000.00,12,0,1,-47.825,4.425,4.328,1090.971,-0.476,1.070
1.244000,1026615,1000.00,12,0,1,-53.038,0.783,4.299,1091.884,1.267,1.047
1.245000,1026616,1000.00,12,0,1,-59.331,-5.308,4.355,1091.283,0.223,1.045
1.246000,1026617,1000.00,12,0,1,-60.940,-4.821,4.400,1093.493,1.928,1.070
1.247000,1026618,1000.00,12,0,1,-63.703,-4.321,4.361,1091.643,0.939,1.073
1.248000,1026619,1000.00,12,0,1,-68.483,-6.140,4.339,1091.547,-0.425,1.074
1.249000,1026620,1000.00,12,0,1,-65.000,-1.269,4.328,1091.499,0.424,1.074
1.250000,1026621,1000.00,12,0,1,-67.354,0.690,4.325,1092.941,0.791,1.070
1.251000,1026622,1000.00,12,0,1,-75.737,-5.959,4.202,1091.475,0.381,1.069
1.252000,1026623,1000.00,12,0,1,-78.596,-7.250,3.885,1090.154,-1.755,1.090
1.253000,1026624,1000.00,12,0,1,-84.144,-9.116,4.020,1089.313,-1.868,1.095
1.254000,1026625,1000.00,12,0,1,-93.104,-15.825,4.601,1090.466,-1.129,1.102
1.255000,1026626,1000.00,12,0,1,-91.327,-13.155,4.956,1090.707,-0.267,1.101
1.256000,1026627,1000.00,12,0,1,-77.395,0.537,4.956,1089.386,-1.496,1.110
1.257000,1026628,1000.00,12,0,1,-69.180,9.079,5.120,1091.043,-0.413,1.104
1.258000,1026629,1000.00,12,0,1,-60.940,12.625,5.417,1092.893,1.812,1.125
1.259000,1026630,1000.00,12,0,1,-46.216,22.496,6.256,1091.643,0.415,1.115
1.260000,1026631,1000.00,12,0,1,-48.834,18.244,6.734,1092.724,0.751,1.104
1.261000,1026632,1000.00,12,0,1,-64.471,-0.665,6.725,1091.884,0.508,1.105
1.262000,1026633,1000.00,12,0,1,-76.530,-12.790,6.963,1090.611,-1.232,1.072
1.263000,1026634,1000.00,12,0,1,-89.045,-21.414,7.593,1090.611,-0.975,1.077
1.264000,1026635,1000.00,12,0,1,-95.842,-24.394,8.338,1091.764,0.066,1.068
1.265000,1026636,1000.00,12,0,1,-89.645,-13.863,8.565,1090.370,-0.596,1.052
1.266000,1026637,1000.00,12,0,1,-78.572,1.301,8.564,1090.731,-0.812,1.052
1.267000,1026638,1000.00,12,0,1,-69.348,12.614,8.723,1090.851,0.062,1.050
1.268000,1026639,1000.00,12,0,1,-51.572,27.670,9.534,1092.100,0.727,1.051
1.269000,1026640,1000.00,12,0,1,-36.055,41.116,11.152,1091.091,0.516,1.045
1.270000,1026641,1000.00,12,0,1,-34.878,37.935,12.360,1090.130,-0.912,1.052
1.271000,1026642,1000.00,12,0,1,-31.947,33.218,13.196,1091.451,0.392,1.050
1.272000,1026643,1000.00,12,0,1,-36.680,25.373,13.655,1091.379,0.696,1.048
1.273000,1026644,1000.00,12,0,1,-46.576,9.830,13.717,1090.707,-0.316,1.046
1.274000,1026645,1000.00,12,0,1,-50.347,2.434,13.718,1091.163,0.165,1.043
1.275000,1026646,1000.00,12,0,1,-51.212,-1.108,13.706,1091.956,0.702,1.047
1.276000,1026647,1000.00,12,0,1,-46.408,-0.196,13.685,1090.731,-0.139,1.046
1.277000,1026648,1000.00,12,0,1,-43.285,0.987,13.680,1090.322,-1.074,1.057
1.278000,1026649,1000.00,12,0,1,-40.331,-0.362,13.675,1089.890,-0.956,1.064
1.279000,1026650,1000.00,12,0,1,-41.532,-2.995,13.671,1092.292,0.570,1.067
1.280000,1026651,1000.00,12,0,1,-43.021,-7.594,13.706,1092.124,1.316,1.059
1.281000,1026652,1000.00,12,0,1,-44.006,-9.059,13.759,1089.506,-1.628,1.084
1.282000,1026653,1000.00,12,0,1,-49.963,-14.278,13.899,1089.025,-2.021,1.102
1.283000,1026654,1000.00,12,0,1,-53.782,-17.541,14.116,1088.953,-1.509,1.119
1.284000,1026655,1000.00,12,0,1,-50.588,-12.753,14.230,1091.475,0.490,1.104
1.285000,1026656,1000.00,12,0,1,-50.131,-9.334,14.287,1089.313,-0.079,1.101
1.286000,1026657,1000.00,12,0,1,-50.491,-8.146,14.331,1088.425,-2.047,1.080
1.287000,1026658,1000.00,12,0,1,-46.840,-3.111,14.329,1090.514,0.756,1.032
1.288000,1026659,1000.00,12,0,1,-53.638,-5.640,14.345,1089.073,-0.136,1.024
1.289000,1026660,1000.00,12,0,1,-60.292,-11.613,14.434,1089.193,-0.542,1.010
1.290000,1026661,1000.00,12,0,1,-66.273,-12.951,14.535,1092.316,2.532,1.068
1.291000,1026662,1000.00,12,0,1,-68.651,-13.515,14.617,1091.331,1.997,1.095
1.292000,1026663,1000.00,12,0,1,-67.930,-9.406,14.639,1090.442,0.312,1.073
1.293000,1026664,1000.00,12,0,1,-69.324,-8.449,14.675,1088.617,-0.835,1.077
1.294000,1026665,1000.00,12,0,1,-67.666,-6.188,14.700,1089.674,-0.634,1.066
1.295000,1026666,1000.00,12,0,1,-65.072,-2.389,14.685,1091.475,1.624,1.090
1.296000,1026667,1000.00,12,0,1,-53.734,5.817,14.692,1089.001,-0.472,1.058
1.297000,1026668,1000.00,12,0,1,-44.967,14.075,14.814,1088.809,-1.430,1.069
1.298000,1026669,1000.00,12,0,1,-42.877,12.168,14.888,1091.091,1.131,1.079
1.299000,1026670,1000.00,12,0,1,-45.663,7.338,14.923,1091.163,1.206,1.091
1.300000,1026671,1000.00,12,0,1,-49.459,1.006,14.923,1090.947,0.673,1.089
1.301000,1026672,1000.00,12,0,1,-49.026,-0.087,14.900,1087.848,-1.675,1.113
1.302000,1026673,1000.00,12,0,1,-46.816,1.703,14.866,1089.049,-1.497,1.106
1.303000,1026674,1000.00,12,0,1,-47.897,0.868,14.811,1090.683,1.148,1.086
1.304000,1026675,1000.00,12,0,1,-52.053,-2.291,14.644,1089.794,0.086,1.074
1.305000,1026676,1000.00,12,0,1,-53.878,-3.333,14.533,1089.121,-0.496,1.076
1.306000,1026677,1000.00,12,0,1,-55.944,-2.731,14.538,1089.361,-0.190,1.055
1.307000,1026678,1000.00,12,0,1,-57.409,-2.622,14.486,1090.010,0.459,1.055
1.308000,1026679,1000.00,12,0,1,-59.187,-1.660,14.378,1090.082,0.719,1.029
1.309000,1026680,1000.00,12,0,1,-59.091,-0.364,14.021,1090.755,0.977,1.036
1.310000,1026681,1000.00,12,0,1,-61.181,0.040,13.782,1087.944,-0.843,1.038
1.311000,1026682,1000.00,12,0,1,-64.303,-2.189,13.785,1087.800,-1.951,1.071
1.312000,1026683,1000.00,12,0,1,-63.943,-1.221,13.667,1088.881,0.054,1.057
1.313000,1026684,1000.00,12,0,1,-60.340,2.251,13.331,1089.626,0.390,1.050
1.314000,1026685,1000.00,12,0,1,-58.875,3.422,12.886,1087.920,-0.556,1.052
1.315000,1026686,1000.00,12,0,1,-57.986,2.647,12.741,1089.650,0.064,1.049
1.316000,1026687,1000.00,12,0,1,-53.830,4.406,12.755,1091.163,2.210,1.089
1.317000,1026688,1000.00,12,0,1,-47.849,7.785,12.678,1086.047,-2.156,1.130
1.318000,1026689,1000.00,12,0,1,-45.928,7.316,12.103,1087.848,-2.035,1.162
1.319000,1026690,1000.00,12,0,1,-50.419,1.090,10.616,1091.451,2.807,1.226
1.320000,1026691,1000.00,12,0,1,-55.392,-5.416,9.193,1092.148,2.618,1.274
1.321000,1026692,1000.00,12,0,1,-58.346,-8.069,7.984,1091.475,2.000,1.304
1.322000,1026693,1000.00,12,0,1,-62.598,-10.629,7.289,1089.554,-0.200,1.300
1.323000,1026694,1000.00,12,0,1,-65.480,-11.576,7.340,1090.394,0.088,1.300
1.324000,1026695,1000.00,12,0,1,-68.483,-11.037,7.496,1091.115,1.188,1.310
1.325000,1026696,1000.00,12,0,1,-68.747,-8.668,7.594,1091.595,1.102,1.316
1.326000,1026697,1000.00,12,0,1,-68.315,-4.482,7.620,1091.427,1.125,1.325
1.327000,1026698,1000.00,12,0,1,-67.330,-1.104,7.621,1090.731,0.110,1.317
1.328000,1026699,1000.00,12,0,1,-63.799,4.191,7.643,1090.923,0.207,1.310
1.329000,1026700,1000.00,12,0,1,-54.143,13.282,7.859,1092.532,1.413,1.323
1.330000,1026701,1000.00,12,0,1,-54.503,14.587,8.054,1089.986,-0.307,1.310
1.331000,1026702,1000.00,12,0,1,-60.148,6.959,8.013,1091.019,-0.689,1.293
1.332000,1026703,1000.00,12,0,1,-61.157,4.911,7.785,1089.674,-0.476,1.263
1.333000,1026704,1000.00,12,0,1,-58.995,5.709,7.423,1089.049,-2.156,1.282
1.334000,1026705,1000.00,12,0,1,-59.715,4.075,7.224,1088.785,-1.419,1.296
1.335000,1026706,1000.00,12,0,1,-68.195,-4.287,7.128,1090.490,-0.439,1.297
1.336000,1026707,1000.00,12,0,1,-67.354,-6.501,7.094,1088.449,-1.164,1.275
1.337000,1026708,1000.00,12,0,1,-64.760,-2.525,7.089,1091.716,0.232,1.271
1.338000,1026709,1000.00,12,0,1,-61.901,-1.892,7.050,1090.250,0.808,1.276
1.339000,1026710,1000.00,12,0,1,-56.377,2.850,6.867,1090.154,-1.144,1.284
1.340000,1026711,1000.00,12,0,1,-51.861,5.676,6.667,1088.953,-0.855,1.239
1.341000,1026712,1000.00,12,0,1,-54.239,3.091,6.402,1087.992,-2.412,1.254
1.342000,1026713,1000.00,12,0,1,-52.966,2.035,6.269,1090.370,-0.029,1.253
1.343000,1026714,1000.00,12,0,1,-52.749,3.198,6.171,1090.635,0.986,1.255
1.344000,1026715,1000.00,12,0,1,-55.007,0.746,6.109,1091.860,1.089,1.261
1.345000,1026716,1000.00,12,0,1,-59.739,-2.335,6.109,1093.277,2.962,1.309
1.346000,1026717,1000.00,12,0,1,-63.439,-4.694,6.090,1091.595,0.896,1.313
1.347000,1026718,1000.00,12,0,1,-69.348,-7.314,5.847,1089.674,-0.908,1.304
1.348000,1026719,1000.00,12,0,1,-72.446,-8.356,5.712,1090.202,-0.752,1.299
1.349000,1026720,1000.00,12,0,1,-74.993,-7.341,5.712,1090.803,0.364,1.288
1.350000,1026721,1000.00,12,0,1,-75.521,-5.888,5.771,1091.523,0.699,1.289
1.351000,1026722,1000.00,12,0,1,-69.468,0.825,5.772,1092.556,1.695,1.289
1.352000,1026723,1000.00,12,0,1,-59.908,10.094,5.941,1092.796,1.662,1.293
1.353000,1026724,1000.00,12,0,1,-65.216,6.101,6.002,1090.587,-0.322,1.284
1.354000,1026725,1000.00,12,0,1,-67.114,0.311,5.993,1091.043,-0.674,1.287
1.355000,1026726,1000.00,12,0,1,-64.183,3.035,5.990,1091.043,-0.016,1.285
1.356000,1026727,1000.00,12,0,1,-72.326,-4.531,6.012,1091.163,-0.455,1.287
1.357000,1026728,1000.00,12,0,1,-69.107,-5.329,6.048,1093.013,1.172,1.296
1.358000,1026729,1000.00,12,0,1,-66.777,-0.535,6.044,1090.995,-0.217,1.292
1.359000,1026730,1000.00,12,0,1,-63.967,-0.975,6.045,1090.082,-1.992,1.315
1.360000,1026731,1000.00,12,0,1,-60.436,3.193,6.062,1087.848,-2.889,1.372
1.361000,1026732,1000.00,12,0,1,-60.076,2.301,6.063,1089.410,-2.379,1.386
1.362000,1026733,1000.00,12,0,1,-60.796,1.554,6.064,1089.578,-0.579,1.388
1.363000,1026734,1000.00,12,0,1,-59.956,2.146,6.063,1091.451,0.062,1.387
1.364000,1026735,1000.00,12,0,1,-62.382,1.081,6.046,1092.220,1.774,1.407
1.365000,1026736,1000.00,12,0,1,-62.430,1.108,6.036,1090.370,-0.366,1.408
1.366000,1026737,1000.00,12,0,1,-62.550,2.706,6.016,1089.169,-1.485,1.389
1.367000,1026738,1000.00,12,0,1,-65.793,0.984,5.916,1089.554,-0.898,1.361
1.368000,1026739,1000.00,12,0,1,-70.068,-1.799,5.831,1090.851,0.347,1.331
1.369000,1026740,1000.00,12,0,1,-63.679,3.874,5.854,1090.106,0.279,1.271
1.370000,1026741,1000.00,12,0,1,-61.829,7.981,5.913,1090.130,-0.288,1.217
1.371000,1026742,1000.00,12,0,1,-66.201,2.790,5.815,1091.884,1.632,1.206
1.372000,1026743,1000.00,12,0,1,-63.439,3.738,5.642,1090.707,0.730,1.210
1.373000,1026744,1000.00,12,0,1,-56.232,9.488,5.564,1090.995,0.325,1.211
1.374000,1026745,1000.00,12,0,1,-59.619,5.540,5.397,1088.569,-0.994,1.207
1.375000,1026746,1000.00,12,0,1,-66.057,-3.284,5.277,1087.920,-2.399,1.244
1.376000,1026747,1000.00,12,0,1,-68.795,-6.959,5.330,1090.563,0.585,1.237
1.377000,1026748,1000.00,12,0,1,-66.561,-5.857,5.392,1091.812,1.878,1.265
1.378000,1026749,1000.00,12,0,1,-66.441,-5.361,5.413,1090.106,0.287,1.265
1.379000,1026750,1000.00,12,0,1,-69.924,-8.678,5.223,1091.211,0.522,1.251
1.380000,1026751,1000.00,12,0,1,-64.399,-4.810,4.846,1091.764,1.491,1.268
1.381000,1026752,1000.00,12,0,1,-62.430,-0.538,4.745,1089.578,-0.703,1.268
1.382000,1026753,1000.00,12,0,1,-63.631,-2.627,4.709,1090.130,-0.754,1.271
1.383000,1026754,1000.00,12,0,1,-58.851,2.138,4.649,1092.532,1.754,1.259
1.384000,1026755,1000.00,12,0,1,-61.013,2.126,4.623,1091.860,1.205,1.254
1.385000,1026756,1000.00,12,0,1,-74.248,-8.640,4.743,1089.842,-0.909,1.259
1.386000,1026757,1000.00,12,0,1,-78.355,-11.773,4.942,1089.746,-1.172,1.259
1.387000,1026758,1000.00,12,0,1,-75.569,-5.204,4.984,1090.803,0.087,1.259
1.388000,1026759,1000.00,12,0,1,-71.053,0.948,4.978,1089.866,-0.427,1.255
1.389000,1026760,1000.00,12,0,1,-67.546,6.017,5.035,1091.547,0.514,1.247
1.390000,1026761,1000.00,12,0,1,-62.694,10.051,5.169,1090.394,0.468,1.243
1.391000,1026762,1000.00,12,0,1,-60.268,12.035,5.425,1089.121,-1.488,1.213
1.392000,1026763,1000.00,12,0,1,-54.671,14.161,5.776,1089.986,-0.280,1.214
1.393000,1026764,1000.00,12,0,1,-61.109,8.389,5.879,1089.986,-0.062,1.206
1.394000,1026765,1000.00,12,0,1,-62.238,1.983,5.884,1088.809,-1.054,1.205
1.395000,1026766,1000.00,12,0,1,-49.891,11.452,6.094,1090.731,0.339,1.131
1.396000,1026767,1000.00,12,0,1,-45.303,14.027,6.375,1089.025,-0.228,1.125
1.397000,1026768,1000.00,12,0,1,-47.849,7.201,6.372,1091.475,0.526,1.120
1.398000,1026769,1000.00,12,0,1,-53.494,-0.127,6.261,1089.073,0.175,1.115
1.399000,1026770,1000.00,12,0,1,-50.732,-1.533,6.179,1089.361,-1.503,1.134
1.400000,1026771,1000.00,12,0,1,-49.531,0.456,6.123,1090.250,0.722,1.134
1.401000,1026772,1000.00,12,0,1,-45.663,0.838,6.123,1089.337,-0.637,1.112
1.402000,1026773,1000.00,12,0,1,-44.895,2.601,5.965,1090.851,0.524,1.090
1.403000,1026774,1000.00,12,0,1,-46.744,-0.829,5.904,1090.827,1.105,1.100
1.404000,1026775,1000.00,12,0,1,-55.344,-6.929,5.984,1091.043,0.437,1.097
1.405000,1026776,1000.00,12,0,1,-65.913,-15.872,6.377,1089.506,-0.113,1.098
1.406000,1026777,1000.00,12,0,1,-65.841,-13.987,6.646,1090.346,-0.449,1.098
1.407000,1026778,1000.00,12,0,1,-67.114,-10.243,6.760,1090.635,0.927,1.093
1.408000,1026779,1000.00,12,0,1,-70.333,-11.418,6.950,1090.851,0.325,1.093
1.409000,1026780,1000.00,12,0,1,-71.774,-9.399,7.074,1092.220,1.827,1.088
1.410000,1026781,1000.00,12,0,1,-70.981,-7.011,7.129,1091.379,1.055,1.019
1.411000,1026782,1000.00,12,0,1,-70.068,-3.947,7.144,1091.115,0.257,0.962
1.412000,1026783,1000.00,12,0,1,-69.204,-2.629,7.150,1089.674,-0.552,0.962
1.413000,1026784,1000.00,12,0,1,-68.891,-1.744,7.148,1088.112,-2.306,1.016
1.414000,1026785,1000.00,12,0,1,-67.330,-0.892,7.147,1089.842,-0.597,0.988
1.415000,1026786,1000.00,12,0,1,-60.700,3.939,7.167,1089.818,0.032,0.987
1.416000,1026787,1000.00,12,0,1,-55.824,7.679,7.239,1089.650,-0.529,0.967
1.417000,1026788,1000.00,12,0,1,-55.368,5.857,7.285,1090.731,0.576,0.962
1.418000,1026789,1000.00,12,0,1,-54.022,4.810,7.312,1088.833,-0.772,0.967
1.419000,1026790,1000.00,12,0,1,-52.509,4.688,7.322,1090.971,0.107,0.966
1.420000,1026791,1000.00,12,0,1,-50.491,4.916,7.267,1091.451,1.657,0.993
1.421000,1026792,1000.00,12,0,1,-46.432,7.289,7.330,1090.995,0.188,0.967
1.422000,1026793,1000.00,12,0,1,-58.538,-1.825,7.315,1090.250,-0.077,0.961
1.423000,1026794,1000.00,12,0,1,-67.210,-11.923,7.386,1091.403,0.274,0.961
1.424000,1026795,1000.00,12,0,1,-65.024,-6.650,7.404,1090.466,0.139,0.951
1.425000,1026796,1000.00,12,0,1,-60.748,-0.617,7.390,1088.641,-1.935,0.929
1.426000,1026797,1000.00,12,0,1,-58.971,3.199,7.338,1090.346,-0.474,0.928
1.427000,1026798,1000.00,12,0,1,-62.958,1.191,7.293,1089.650,-0.104,0.889
1.428000,1026799,1000.00,12,0,1,-63.150,0.734,7.255,1089.313,-1.104,0.902
1.429000,1026800,1000.00,12,0,1,-63.511,2.448,7.158,1089.482,-0.149,0.899
1.430000,1026801,1000.00,12,0,1,-64.327,1.119,7.128,1090.394,0.287,0.875
1.431000,1026802,1000.00,12,0,1,-66.345,0.119,7.127,1090.755,1.121,0.884
1.432000,1026803,1000.00,12,0,1,-65.913,-0.720,7.118,1089.458,-0.210,0.878
1.433000,1026804,1000.00,12,0,1,-62.646,1.990,7.118,1089.722,-0.203,0.843
1.434000,1026805,1000.00,12,0,1,-63.847,0.353,7.111,1091.451,1.452,0.850
1.435000,1026806,1000.00,12,0,1,-63.919,-1.812,7.010,1090.851,1.042,0.853
1.436000,1026807,1000.00,12,0,1,-66.561,-4.046,6.834,1092.436,1.583,0.867
1.437000,1026808,1000.00,12,0,1,-62.310,-2.823,6.806,1092.893,2.346,0.928
1.438000,1026809,1000.00,12,0,1,-60.484,0.306,6.805,1089.842,-0.813,0.933
1.439000,1026810,1000.00,12,0,1,-59.643,-1.046,6.753,1089.337,-1.877,0.967
1.440000,1026811,1000.00,12,0,1,-58.034,0.830,6.603,1088.953,-1.488,0.988
1.441000,1026812,1000.00,12,0,1,-57.986,0.584,6.380,1092.196,0.617,0.969
1.442000,1026813,1000.00,12,0,1,-60.580,-1.150,6.060,1092.436,2.016,1.009
1.443000,1026814,1000.00,12,0,1,-60.868,-1.067,5.944,1089.770,-1.281,1.025
1.444000,1026815,1000.00,12,0,1,-62.742,-0.859,5.939,1088.977,-1.887,1.049
1.445000,1026816,1000.00,12,0,1,-63.775,-0.834,5.715,1092.532,1.021,1.058
1.446000,1026817,1000.00,12,0,1,-65.745,-0.530,5.360,1092.052,1.596,1.081
1.447000,1026818,1000.00,12,0,1,-66.801,-0.334,5.263,1089.337,-1.582,1.101
1.448000,1026819,1000.00,12,0,1,-62.670,4.129,5.295,1088.497,-2.156,1.143
1.449000,1026820,1000.00,12,0,1,-58.899,8.606,5.429,1089.313,-1.112,1.134
1.450000,1026821,1000.00,12,0,1,-58.562,8.057,5.547,1088.833,-1.012,1.138
1.451000,1026822,1000.00,12,0,1,-64.471,2.490,5.557,1088.713,-1.078,1.145
1.452000,1026823,1000.00,12,0,1,-64.327,-0.134,5.544,1090.154,0.330,1.143
1.453000,1026824,1000.00,12,0,1,-67.210,-1.441,5.547,1089.794,0.519,1.135
1.454000,1026825,1000.00,12,0,1,-72.038,-7.716,5.568,1090.010,0.135,1.133
1.455000,1026826,1000.00,12,0,1,-73.095,-8.456,5.234,1089.530,0.232,1.134
1.456000,1026827,1000.00,12,0,1,-72.302,-7.616,4.964,1089.866,-0.055,1.132
1.457000,1026828,1000.00,12,0,1,-65.624,-2.259,4.758,1089.794,0.349,1.125
1.458000,1026829,1000.00,12,0,1,-61.397,2.431,4.489,1089.410,-0.347,1.126
1.459000,1026830,1000.00,12,0,1,-64.664,-1.342,4.292,1089.265,-0.321,1.096
1.460000,1026831,1000.00,12,0,1,-69.924,-6.146,4.266,1088.641,-0.793,1.092
1.461000,1026832,1000.00,12,0,1,-71.317,-7.065,4.345,1090.034,0.189,1.092
1.462000,1026833,1000.00,12,0,1,-64.712,-0.100,4.329,1092.148,2.345,1.138
1.463000,1026834,1000.00,12,0,1,-56.833,8.474,4.485,1090.731,1.114,1.102
1.464000,1026835,1000.00,12,0,1,-55.776,10.019,4.702,1091.403,0.822,1.105
1.465000,1026836,1000.00,12,0,1,-56.377,8.545,4.823,1089.169,-0.270,1.106
1.466000,1026837,1000.00,12,0,1,-51.692,11.898,4.991,1089.169,-1.367,1.120
1.467000,1026838,1000.00,12,0,1,-50.876,12.892,5.249,1091.355,1.373,1.134
1.468000,1026839,1000.00,12,0,1,-56.977,6.235,5.279,1091.115,1.170,1.140
1.469000,1026840,1000.00,12,0,1,-60.028,2.068,5.245,1091.812,1.245,1.154
1.470000,1026841,1000.00,12,0,1,-60.748,1.527,5.203,1091.067,1.002,1.139
1.471000,1026842,1000.00,12,0,1,-59.980,1.407,5.104,1089.241,-1.156,1.150
1.472000,1026843,1000.00,12,0,1,-59.787,1.280,5.101,1089.602,-0.773,1.155
1.473000,1026844,1000.00,12,0,1,-62.069,-1.725,4.820,1089.842,-0.290,1.155
1.474000,1026845,1000.00,12,0,1,-63.751,-4.363,4.768,1091.163,0.646,1.159
1.475000,1026846,1000.00,12,0,1,-60.748,-2.838,4.784,1090.851,0.720,1.130
1.476000,1026847,1000.00,12,0,1,-63.799,-5.002,4.815,1089.722,-0.741,1.133
1.477000,1026848,1000.00,12,0,1,-66.537,-9.286,4.988,1090.707,-0.032,1.133
1.478000,1026849,1000.00,12,0,1,-65.817,-8.039,5.114,1089.938,-0.286,1.123
1.479000,1026850,1000.00,12,0,1,-61.949,-4.751,5.147,1089.169,-1.443,1.141
1.480000,1026851,1000.00,12,0,1,-60.076,-2.118,5.153,1090.587,-0.049,1.141
1.481000,1026852,1000.00,12,0,1,-66.345,-6.815,5.242,1090.923,0.487,1.132
1.482000,1026853,1000.00,12,0,1,-65.072,-6.601,5.324,1091.595,0.683,1.135
1.483000,1026854,1000.00,12,0,1,-62.910,-1.399,5.320,1090.611,0.140,1.135
1.484000,1026855,1000.00,12,0,1,-55.728,4.152,5.352,1090.466,-0.579,1.119
1.485000,1026856,1000.00,12,0,1,-56.713,6.547,5.426,1091.331,0.509,1.112
1.486000,1026857,1000.00,12,0,1,-58.394,2.953,5.412,1089.530,-0.840,1.096
1.487000,1026858,1000.00,12,0,1,-56.881,5.683,5.456,1091.475,0.117,1.044
1.488000,1026859,1000.00,12,0,1,-61.373,2.344,5.466,1090.659,0.678,1.043
1.489000,1026860,1000.00,12,0,1,-61.589,1.028,5.466,1093.037,1.231,1.023
1.490000,1026861,1000.00,12,0,1,-62.045,2.405,5.475,1090.466,0.711,1.006
1.491000,1026862,1000.00,12,0,1,-61.397,1.583,5.479,1089.986,-1.664,1.030
1.492000,1026863,1000.00,12,0,1,-57.145,5.493,5.532,1090.442,0.129,0.990
1.493000,1026864,1000.00,12,0,1,-57.433,4.461,5.566,1091.595,0.382,0.974
1.494000,1026865,1000.00,12,0,1,-63.318,-1.930,5.571,1090.370,0.026,0.937
1.495000,1026866,1000.00,12,0,1,-60.196,-1.758,5.575,1091.812,0.320,0.927
1.496000,1026867,1000.00,12,0,1,-52.990,4.752,5.615,1090.635,0.184,0.900
1.497000,1026868,1000.00,12,0,1,-53.542,3.082,5.632,1090.130,-1.161,0.887
1.498000,1026869,1000.00,12,0,1,-53.350,0.520,5.602,1091.115,0.015,0.833
1.499000,1026870,1000.00,12,0,1,-55.704,-1.664,5.473,1091.187,0.194,0.818
1.500000,1026871,1000.00,12,0,1,-62.165,-8.379,5.483,1091.475,0.021,0.805
1.501000,1026872,1000.00,12,0,1,-66.753,-11.883,5.724,1090.442,-0.426,0.793
1.502000,1026873,1000.00,12,0,1,-59.763,-5.426,5.775,1090.298,-1.213,0.810
1.503000,1026874,1000.00,12,0,1,-54.503,2.354,5.781,1090.971,-0.027,0.807
1.504000,1026875,1000.00,12,0,1,-57.794,-0.192,5.677,1091.307,0.028,0.807
1.505000,1026876,1000.00,12,0,1,-58.610,-0.938,5.551,1089.434,-1.098,0.821
1.506000,1026877,1000.00,12,0,1,-57.746,1.316,5.449,1092.532,0.621,0.825
1.507000,1026878,1000.00,12,0,1,-61.277,-0.710,5.441,1092.460,2.049,0.873
1.508000,1026879,1000.00,12,0,1,-65.000,-3.345,5.450,1091.523,-0.098,0.872
1.509000,1026880,1000.00,12,0,1,-68.819,-5.177,5.496,1089.121,-1.344,0.891
1.510000,1026881,1000.00,12,0,1,-72.999,-7.416,5.527,1087.992,-2.889,0.974
1.511000,1026882,1000.00,12,0,1,-75.593,-8.187,5.558,1090.899,0.099,0.974
1.512000,1026883,1000.00,12,0,1,-73.455,-5.033,5.603,1092.052,1.836,0.952
1.513000,1026884,1000.00,12,0,1,-68.939,0.161,5.474,1092.052,1.195,0.954
1.514000,1026885,1000.00,12,0,1,-67.666,1.799,5.293,1091.139,0.646,0.951
1.515000,1026886,1000.00,12,0,1,-69.372,-0.361,5.154,1090.995,-0.170,0.951
1.516000,1026887,1000.00,12,0,1,-68.387,-0.436,4.872,1090.923,0.159,0.931
1.517000,1026888,1000.00,12,0,1,-67.979,-0.042,4.518,1087.512,-2.725,0.989
1.518000,1026889,1000.00,12,0,1,-64.471,1.706,4.437,1090.322,-1.109,0.987
1.519000,1026890,1000.00,12,0,1,-57.121,7.663,4.559,1092.820,2.464,1.032
1.520000,1026891,1000.00,12,0,1,-49.507,12.979,4.909,1091.139,0.401,1.024
1.521000,1026892,1000.00,12,0,1,-50.419,11.161,5.153,1091.235,0.019,1.011
1.522000,1026893,1000.00,12,0,1,-53.254,5.824,5.215,1091.115,0.222,1.005
1.523000,1026894,1000.00,12,0,1,-59.619,0.323,5.210,1090.731,-0.457,1.007
1.524000,1026895,1000.00,12,0,1,-65.120,-5.209,5.225,1089.578,-1.085,1.014
1.525000,1026896,1000.00,12,0,1,-69.588,-7.148,5.307,1088.064,-2.456,1.067
1.526000,1026897,1000.00,12,0,1,-73.071,-8.386,5.392,1089.073,-1.345,1.079
1.527000,1026898,1000.00,12,0,1,-76.314,-8.462,5.365,1090.442,0.428,1.080
1.528000,1026899,1000.00,12,0,1,-74.824,-5.160,5.293,1090.755,0.801,1.086
1.529000,1026900,1000.00,12,0,1,-76.698,-3.497,5.274,1091.716,1.477,1.087
1.530000,1026901,1000.00,12,0,1,-75.737,-2.271,5.275,1091.091,1.143,1.099
1.531000,1026902,1000.00,12,0,1,-74.272,1.056,5.188,1091.043,0.537,1.099
1.532000,1026903,1000.00,12,0,1,-68.219,5.484,5.162,1092.244,1.647,1.119
1.533000,1026904,1000.00,12,0,1,-61.013,11.736,5.419,1090.995,0.639,1.123
1.534000,1026905,1000.00,12,0,1,-57.722,12.546,5.672,1091.740,0.483,1.122
1.535000,1026906,1000.00,12,0,1,-59.499,8.322,5.718,1090.875,0.403,1.121
1.536000,1026907,1000.00,12,0,1,-60.676,4.201,5.734,1091.643,0.064,1.115
1.537000,1026908,1000.00,12,0,1,-62.958,0.499,5.677,1090.130,-0.322,1.115
1.538000,1026909,1000.00,12,0,1,-64.520,-2.579,5.679,1090.010,-1.446,1.130
1.539000,1026910,1000.00,12,0,1,-62.814,-1.978,5.684,1090.923,0.081,1.117
1.540000,1026911,1000.00,12,0,1,-62.598,-1.451,5.678,1090.875,-0.123,1.112
1.541000,1026912,1000.00,12,0,1,-60.028,-0.163,5.674,1088.953,-1.571,1.109
1.542000,1026913,1000.00,12,0,1,-58.707,2.100,5.628,1089.722,-1.266,1.124
1.543000,1026914,1000.00,12,0,1,-57.866,2.195,5.601,1089.025,-0.979,1.131
1.544000,1026915,1000.00,12,0,1,-63.487,-1.066,5.597,1088.881,-1.450,1.149
1.545000,1026916,1000.00,12,0,1,-68.507,-5.899,5.653,1090.202,0.129,1.149
1.546000,1026917,1000.00,12,0,1,-75.521,-8.963,5.754,1090.082,0.367,1.149
1.547000,1026918,1000.00,12,0,1,-77.995,-10.117,5.913,1089.674,-0.250,1.138
1.548000,1026919,1000.00,12,0,1,-76.482,-5.339,5.961,1090.779,0.835,1.144
1.549000,1026920,1000.00,12,0,1,-77.635,-3.997,5.983,1089.674,0.148,1.144
1.550000,1026921,1000.00,12,0,1,-78.692,-3.803,5.889,1089.986,-0.070,1.144
1.551000,1026922,1000.00,12,0,1,-77.731,-1.624,5.649,1091.115,1.259,1.156
1.552000,1026923,1000.00,12,0,1,-77.683,-1.010,5.598,1091.595,1.506,1.163
1.553000,1026924,1000.00,12,0,1,-84.529,-5.910,5.651,1091.283,1.087,1.173
1.554000,1026925,1000.00,12,0,1,-84.024,-7.102,5.739,1089.073,-0.823,1.179
1.555000,1026926,1000.00,12,0,1,-80.061,-1.565,5.742,1092.268,0.994,1.177
1.556000,1026927,1000.00,12,0,1,-82.919,-4.003,5.767,1092.556,2.558,1.228
1.557000,1026928,1000.00,12,0,1,-80.830,-3.246,5.784,1092.148,0.716,1.198
1.558000,1026929,1000.00,12,0,1,-78.355,0.237,5.765,1091.139,0.393,1.199
1.559000,1026930,1000.00,12,0,1,-79.460,-1.081,5.720,1091.091,-0.471,1.186
1.560000,1026931,1000.00,12,0,1,-70.429,5.739,5.681,1092.292,0.843,1.120
1.561000,1026932,1000.00,12,0,1,-60.388,15.520,5.980,1090.611,-0.432,1.121
1.562000,1026933,1000.00,12,0,1,-60.460,14.344,6.274,1090.779,-1.045,1.101
1.563000,1026934,1000.00,12,0,1,-69.324,5.344,6.319,1090.346,-0.545,1.091
1.564000,1026935,1000.00,12,0,1,-75.737,-1.427,6.317,1092.460,0.385,1.088
1.565000,1026936,1000.00,12,0,1,-74.608,0.510,6.318,1091.235,0.564,1.091
1.566000,1026937,1000.00,12,0,1,-67.162,8.061,6.419,1091.019,-0.986,1.099
1.567000,1026938,1000.00,12,0,1,-65.913,10.731,6.596,1090.635,-0.331,1.031
1.568000,1026939,1000.00,12,0,1,-72.879,4.035,6.617,1090.202,-1.252,1.034
1.569000,1026940,1000.00,12,0,1,-76.866,-0.315,6.527,1090.514,-0.594,0.977
1.570000,1026941,1000.00,12,0,1,-69.204,5.941,6.320,1091.139,-0.019,0.975
1.571000,1026942,1000.00,12,0,1,-67.834,8.487,6.236,1090.082,-0.715,0.981
1.572000,1026943,1000.00,12,0,1,-73.263,1.361,6.185,1090.010,-0.983,0.990
1.573000,1026944,1000.00,12,0,1,-78.668,-4.401,6.216,1089.410,-1.090,1.000
1.574000,1026945,1000.00,12,0,1,-77.491,-4.811,6.209,1089.265,-1.240,1.003
1.575000,1026946,1000.00,12,0,1,-80.493,-6.346,6.192,1089.938,-0.422,0.943
1.576000,1026947,1000.00,12,0,1,-80.950,-8.527,6.196,1089.818,-0.191,0.924
1.577000,1026948,1000.00,12,0,1,-78.932,-5.842,6.135,1089.770,-0.394,0.924
1.578000,1026949,1000.00,12,0,1,-77.347,-4.694,6.128,1090.034,0.108,0.917
1.579000,1026950,1000.00,12,0,1,-72.999,-1.260,6.110,1093.205,2.369,0.954
1.580000,1026951,1000.00,12,0,1,-67.594,3.605,6.123,1090.370,0.991,0.950
1.581000,1026952,1000.00,12,0,1,-69.324,2.084,6.128,1088.689,-2.114,0.993
1.582000,1026953,1000.00,12,0,1,-72.903,-1.858,6.085,1090.250,0.137,0.966
1.583000,1026954,1000.00,12,0,1,-67.474,2.386,5.864,1090.442,0.364,0.963
1.584000,1026955,1000.00,12,0,1,-67.090,5.149,5.636,1089.530,-0.389,0.962
1.585000,1026956,1000.00,12,0,1,-73.623,-1.103,5.514,1088.953,-0.844,0.968
1.586000,1026957,1000.00,12,0,1,-75.833,-2.364,5.492,1089.530,-0.323,0.969
1.587000,1026958,1000.00,12,0,1,-69.444,4.047,5.521,1090.394,0.771,0.974
1.588000,1026959,1000.00,12,0,1,-61.877,11.962,5.763,1090.298,0.630,0.956
1.589000,1026960,1000.00,12,0,1,-63.919,10.234,5.936,1089.962,0.323,0.957
1.590000,1026961,1000.00,12,0,1,-65.817,6.036,5.993,1090.082,0.278,0.958
1.591000,1026962,1000.00,12,0,1,-66.417,5.106,6.036,1091.595,1.507,0.956
1.592000,1026963,1000.00,12,0,1,-71.077,-0.128,6.029,1090.635,0.924,0.948
1.593000,1026964,1000.00,12,0,1,-75.281,-5.025,6.063,1089.289,-0.812,0.945
1.594000,1026965,1000.00,12,0,1,-76.770,-6.709,6.135,1088.953,-0.933,0.932
1.595000,1026966,1000.00,12,0,1,-76.362,-6.540,6.148,1090.611,0.374,0.933
1.596000,1026967,1000.00,12,0,1,-74.872,-5.332,6.063,1091.235,1.323,0.950
1.597000,1026968,1000.00,12,0,1,-72.350,-3.548,5.913,1090.058,0.027,0.950
1.598000,1026969,1000.00,12,0,1,-71.005,-2.558,5.876,1091.307,0.645,0.947
1.599000,1026970,1000.00,12,0,1,-71.510,-3.549,5.870,1089.962,0.168,0.947
1.600000,1026971,1000.00,12,0,1,-71.389,-3.791,5.870,1091.355,0.209,0.947
1.601000,1026972,1000.00,12,0,1,-70.957,-3.102,5.882,1090.322,0.533,0.933
1.602000,1026973,1000.00,12,0,1,-68.555,-0.879,5.881,1087.464,-2.798,0.991
1.603000,1026974,1000.00,12,0,1,-67.450,1.114,5.824,1087.560,-2.354,1.034
1.604000,1026975,1000.00,12,0,1,-67.858,0.998,5.738,1087.512,-1.695,1.055
1.605000,1026976,1000.00,12,0,1,-70.212,-0.055,5.734,1089.434,-0.163,1.046
1.606000,1026977,1000.00,12,0,1,-69.564,0.740,5.707,1091.235,2.120,1.026
1.607000,1026978,1000.00,12,0,1,-69.444,2.548,5.700,1089.482,0.438,1.023
1.608000,1026979,1000.00,12,0,1,-70.885,1.692,5.705,1089.434,-0.131,1.022
1.609000,1026980,1000.00,12,0,1,-77.923,-2.952,5.718,1090.010,0.703,1.025
1.610000,1026981,1000.00,12,0,1,-79.292,-4.686,5.699,1089.698,0.303,1.018
