# FW/GUI: v9.6.1-multi17-dual (PyQt5)
# StartTime: 2026-04-03 16:26:11
# Slot: 13
# DeviceID: 13
# Label: EMG13
# IP: 192.168.137.206
# TCP: 3333
# DeviceFW: EMG_FW_v9.6_MULTI17_DUALCH_RUNTIMECFG_CHEN
# IMU1_RefTime = format(imu_ms) = relative since power-on Time (IMU acquisition time)
IMU1_RefTime,ax_g,ay_g,az_g,gx_dps,gy_dps,gz_dps,mx_uT,my_uT,mz_uT,temp_C,qw,qx,qy,qz
'00:18:04.874,0.060059,0.029297,1.004395,0.304878,1.280488,-0.548781,-5.218750,18.112501,19.775000,31.159,0.56830387,-0.00972341,-0.02882571,-0.82225620
'00:18:04.884,0.060547,0.029297,1.003418,0.304878,1.341463,-0.548781,-4.781250,17.550001,19.306250,31.235,0.56831189,-0.00973667,-0.02883276,-0.82225025
'00:18:04.894,0.060547,0.029297,1.004395,0.304878,1.341463,-0.609756,-4.831250,17.537500,19.393751,31.144,0.56831133,-0.00974632,-0.02883489,-0.82225044
'00:18:04.904,0.060547,0.029785,1.004395,0.365854,1.341463,-0.548781,-4.831250,17.537500,19.393751,31.220,0.56831507,-0.00975104,-0.02884406,-0.82224748
'00:18:04.914,0.058594,0.028809,1.003418,0.365854,1.341463,-0.609756,-4.768750,17.525000,19.393751,31.175,0.56831876,-0.00975244,-0.02884496,-0.82224488
'00:18:04.924,0.058105,0.029297,1.003418,0.365854,1.341463,-0.548781,-4.768750,17.525000,19.393751,31.220,0.56832672,-0.00974930,-0.02884666,-0.82223936
'00:18:04.934,0.058594,0.028809,1.003418,0.304878,1.341463,-0.548781,-4.975000,17.787500,19.562500,31.175,0.56832592,-0.00974535,-0.02883310,-0.82224043
'00:18:04.944,0.059570,0.029297,1.003906,0.304878,1.341463,-0.609756,-4.975000,17.787500,19.562500,31.175,0.56832067,-0.00974471,-0.02882612,-0.82224432
'00:18:04.954,0.060059,0.029297,1.002930,0.365854,1.341463,-0.548781,-5.087500,17.900000,19.593750,31.190,0.56831478,-0.00973910,-0.02882004,-0.82224867
'00:18:04.964,0.060059,0.029297,1.003906,0.365854,1.280488,-0.548781,-5.087500,17.900000,19.593750,31.190,0.56830878,-0.00973776,-0.02881672,-0.82225294
'00:18:04.974,0.060059,0.028809,1.003418,0.365854,1.341463,-0.548781,-4.825000,17.537500,19.337500,31.144,0.56831347,-0.00974421,-0.02881979,-0.82224952
'00:18:04.984,0.060059,0.028809,1.003418,0.365854,1.341463,-0.548781,-4.825000,17.537500,19.337500,31.144,0.56831812,-0.00975054,-0.02882279,-0.82224612
'00:18:04.994,0.061035,0.028320,1.005371,0.304878,1.280488,-0.548781,-4.831250,17.581251,19.400000,31.159,0.56832296,-0.00977143,-0.02882501,-0.82224246
'00:18:05.004,0.059570,0.029297,1.003418,0.304878,1.341463,-0.609756,-4.831250,17.581251,19.400000,31.190,0.56832336,-0.00977596,-0.02882483,-0.82224213
'00:18:05.014,0.059570,0.029785,1.003418,0.365854,1.341463,-0.548781,-4.800000,17.593750,19.356251,31.235,0.56833073,-0.00977760,-0.02883458,-0.82223667
'00:18:05.024,0.059570,0.029785,1.003418,0.365854,1.341463,-0.548781,-4.800000,17.593750,19.356251,31.235,0.56833806,-0.00977918,-0.02884414,-0.82223125
'00:18:05.034,0.059570,0.029785,1.003418,0.365854,1.341463,-0.548781,-4.831250,17.506250,19.343750,31.190,0.56834113,-0.00977752,-0.02884899,-0.82222898
'00:18:05.044,0.058105,0.029297,1.003906,0.304878,1.341463,-0.548781,-4.831250,17.506250,19.343750,31.190,0.56834430,-0.00977258,-0.02884072,-0.82222714
'00:18:05.054,0.060059,0.028809,1.003906,0.304878,1.280488,-0.548781,-5.343750,18.281250,19.887501,31.190,0.56832909,-0.00976693,-0.02881965,-0.82223846
'00:18:05.064,0.059570,0.029785,1.004883,0.304878,1.280488,-0.548781,-5.343750,18.281250,19.887501,31.175,0.56831379,-0.00975494,-0.02880209,-0.82224979
'00:18:05.074,0.060547,0.029297,1.004395,0.365854,1.341463,-0.548781,-4.918750,17.700001,19.550001,31.144,0.56831483,-0.00975881,-0.02880574,-0.82224890
'00:18:05.084,0.059570,0.029785,1.004395,0.365854,1.341463,-0.609756,-4.918750,17.700001,19.550001,31.190,0.56831142,-0.00975515,-0.02880838,-0.82225121
'00:18:05.095,0.059082,0.030273,1.003418,0.304878,1.280488,-0.548781,-4.762500,17.543751,19.400000,31.190,0.56832071,-0.00976234,-0.02882083,-0.82224426
'00:18:05.104,0.060059,0.029785,1.003906,0.304878,1.341463,-0.609756,-4.762500,17.543751,19.400000,31.220,0.56832452,-0.00977055,-0.02882884,-0.82224125
'00:18:05.114,0.059570,0.029297,1.004883,0.365854,1.341463,-0.609756,-4.837500,17.550001,19.362501,31.205,0.56832395,-0.00977083,-0.02883123,-0.82224156
'00:18:05.124,0.060059,0.030273,1.003418,0.365854,1.341463,-0.548781,-4.837500,17.550001,19.362501,31.175,0.56832752,-0.00977042,-0.02884152,-0.82223874
'00:18:05.134,0.059570,0.030273,1.002930,0.304878,1.280488,-0.548781,-4.768750,17.500000,19.412500,31.175,0.56833426,-0.00977848,-0.02885273,-0.82223358
'00:18:05.144,0.060059,0.029297,1.004883,0.365854,1.341463,-0.609756,-5.043750,17.906250,19.643751,31.205,0.56832674,-0.00977449,-0.02884868,-0.82223898
'00:18:05.154,0.059082,0.029785,1.004883,0.304878,1.280488,-0.609756,-5.043750,17.906250,19.643751,31.220,0.56831897,-0.00977076,-0.02884237,-0.82224461
'00:18:05.164,0.060059,0.030273,1.004395,0.304878,1.280488,-0.548781,-5.075000,17.962500,19.593750,31.220,0.56831491,-0.00976964,-0.02884191,-0.82224745
'00:18:05.175,0.059570,0.030273,1.003906,0.304878,1.341463,-0.548781,-5.075000,17.962500,19.593750,31.190,0.56831063,-0.00976083,-0.02883628,-0.82225070
'00:18:05.184,0.059570,0.029297,1.004395,0.304878,1.341463,-0.548781,-4.800000,17.550001,19.362501,31.144,0.56831641,-0.00976627,-0.02883721,-0.82224662
'00:18:05.194,0.059570,0.029785,1.004395,0.365854,1.341463,-0.609756,-4.800000,17.550001,19.362501,31.175,0.56831837,-0.00976712,-0.02884540,-0.82224496
'00:18:05.204,0.059082,0.029785,1.004883,0.365854,1.341463,-0.548781,-4.818750,17.537500,19.337500,31.175,0.56832320,-0.00976388,-0.02884960,-0.82224151
'00:18:05.214,0.060547,0.028809,1.003418,0.304878,1.402439,-0.548781,-4.818750,17.537500,19.337500,31.190,0.56832825,-0.00977157,-0.02884702,-0.82223802
'00:18:05.225,0.058594,0.028809,1.004395,0.365854,1.280488,-0.548781,-4.806250,17.531250,19.418751,31.190,0.56833401,-0.00977506,-0.02884757,-0.82223398
'00:18:05.234,0.059082,0.028809,1.003418,0.304878,1.341463,-0.548781,-4.806250,17.531250,19.418751,31.190,0.56833877,-0.00977929,-0.02884339,-0.82223079
'00:18:05.244,0.059570,0.029297,1.003418,0.304878,1.341463,-0.548781,-4.862500,17.618750,19.506250,31.159,0.56834172,-0.00978267,-0.02884099,-0.82222879
'00:18:05.254,0.058594,0.029297,1.004395,0.365854,1.341463,-0.609756,-4.862500,17.618750,19.506250,31.220,0.56834039,-0.00977719,-0.02883885,-0.82222985
'00:18:05.264,0.060059,0.029785,1.004395,0.365854,1.341463,-0.548781,-4.831250,17.575001,19.350000,31.235,0.56834507,-0.00977902,-0.02884692,-0.82222631
'00:18:05.274,0.060059,0.028809,1.004395,0.304878,1.341463,-0.548781,-4.831250,17.575001,19.350000,31.205,0.56834987,-0.00978766,-0.02884494,-0.82222296
'00:18:05.284,0.060547,0.029297,1.003906,0.365854,1.402439,-0.548781,-4.881250,17.675001,19.487501,31.190,0.56835305,-0.00978834,-0.02884735,-0.82222067
'00:18:05.294,0.059570,0.029785,1.004883,0.243902,1.341463,-0.609756,-4.881250,17.675001,19.487501,31.175,0.56835153,-0.00979175,-0.02884264,-0.82222184
'00:18:05.304,0.060059,0.029785,1.003906,0.426829,1.341463,-0.548781,-4.787500,17.562500,19.287500,31.205,0.56835921,-0.00979276,-0.02885842,-0.82221597
'00:18:05.314,0.059570,0.029785,1.003906,0.304878,1.341463,-0.548781,-4.787500,17.562500,19.287500,31.190,0.56836676,-0.00979705,-0.02886329,-0.82221053
'00:18:05.324,0.060059,0.030273,1.004395,0.304878,1.280488,-0.609756,-4.775000,17.487501,19.362501,31.190,0.56836839,-0.00980610,-0.02887462,-0.82220890
'00:18:05.335,0.060059,0.029785,1.003418,0.365854,1.341463,-0.548781,-4.775000,17.487501,19.362501,31.159,0.56837527,-0.00981027,-0.02888565,-0.82220370
'00:18:05.344,0.058594,0.029297,1.004395,0.365854,1.341463,-0.609756,-4.893750,17.662500,19.425001,31.190,0.56837315,-0.00980346,-0.02888192,-0.82220538
'00:18:05.354,0.058594,0.029297,1.004395,0.304878,1.341463,-0.548781,-4.893750,17.662500,19.425001,31.220,0.56837513,-0.00979918,-0.02887344,-0.82220436
'00:18:05.368,0.058594,0.029297,1.003418,0.304878,1.341463,-0.548781,-5.081250,17.956251,19.662500,31.190,0.56836841,-0.00978459,-0.02885155,-0.82220995
'00:18:05.375,0.060547,0.029297,1.002930,0.304878,1.341463,-0.548781,-5.025000,17.881250,19.600000,31.190,0.56836666,-0.00978650,-0.02884803,-0.82221126
'00:18:05.384,0.059570,0.030273,1.003906,0.365854,1.280488,-0.548781,-5.025000,17.881250,19.600000,31.235,0.56836418,-0.00978176,-0.02885142,-0.82221291
'00:18:05.394,0.061035,0.030273,1.003906,0.365854,1.341463,-0.548781,-4.800000,17.506250,19.375000,31.220,0.56836904,-0.00978809,-0.02886669,-0.82220894
'00:18:05.404,0.060059,0.029785,1.004883,0.304878,1.341463,-0.548781,-4.800000,17.506250,19.375000,31.220,0.56837395,-0.00979362,-0.02887036,-0.82220535
'00:18:05.415,0.059570,0.029297,1.005371,0.304878,1.280488,-0.609756,-4.800000,17.500000,19.306250,31.159,0.56837463,-0.00980292,-0.02887236,-0.82220470
'00:18:05.424,0.060547,0.029785,1.004395,0.304878,1.341463,-0.548781,-4.800000,17.500000,19.306250,31.205,0.56837911,-0.00980993,-0.02887742,-0.82220134
'00:18:05.434,0.060059,0.030273,1.005371,0.365854,1.341463,-0.609756,-4.825000,17.587500,19.381250,31.159,0.56837967,-0.00980946,-0.02888781,-0.82220060
'00:18:05.444,0.059570,0.029785,1.004883,0.304878,1.341463,-0.609756,-4.825000,17.587500,19.381250,31.205,0.56838028,-0.00981132,-0.02888921,-0.82220011
'00:18:05.454,0.059082,0.030273,1.003418,0.304878,1.280488,-0.548781,-5.112500,17.950001,19.681250,31.175,0.56837274,-0.00980210,-0.02888108,-0.82220571
'00:18:05.464,0.058594,0.030273,1.003418,0.304878,1.341463,-0.548781,-5.112500,17.950001,19.681250,31.175,0.56836542,-0.00978601,-0.02886823,-0.82221142
'00:18:05.474,0.059570,0.029785,1.002441,0.365854,1.341463,-0.548781,-5.018750,17.793751,19.568750,31.220,0.56836136,-0.00977763,-0.02886494,-0.82221443
'00:18:05.484,0.060059,0.029785,1.004395,0.304878,1.341463,-0.548781,-5.018750,17.793751,19.568750,31.205,0.56835730,-0.00977468,-0.02885846,-0.82221751
'00:18:05.494,0.060059,0.030273,1.004883,0.304878,1.341463,-0.548781,-4.856250,17.575001,19.350000,31.144,0.56836001,-0.00977594,-0.02886240,-0.82221548
'00:18:05.504,0.060059,0.028809,1.004883,0.304878,1.341463,-0.548781,-4.856250,17.575001,19.350000,31.205,0.56836300,-0.00978290,-0.02885799,-0.82221348
'00:18:05.514,0.059570,0.029785,1.004395,0.365854,1.341463,-0.548781,-4.768750,17.525000,19.337500,31.144,0.56837082,-0.00978500,-0.02886752,-0.82220772
'00:18:05.524,0.060059,0.028809,1.003906,0.304878,1.341463,-0.548781,-4.768750,17.525000,19.337500,31.220,0.56837872,-0.00979673,-0.02886901,-0.82220206
'00:18:05.536,0.059082,0.028809,1.003418,0.365854,1.341463,-0.609756,-4.818750,17.593750,19.356251,31.190,0.56838067,-0.00979783,-0.02886896,-0.82220070
'00:18:05.544,0.059082,0.029297,1.003418,0.304878,1.341463,-0.548781,-4.818750,17.593750,19.356251,31.175,0.56838534,-0.00979955,-0.02886760,-0.82219750
'00:18:05.554,0.060059,0.029297,1.004883,0.365854,1.280488,-0.548781,-5.156250,18.012501,19.668751,31.144,0.56837670,-0.00979459,-0.02886023,-0.82220379
'00:18:05.564,0.060059,0.029297,1.004395,0.304878,1.341463,-0.548781,-5.156250,18.012501,19.668751,31.175,0.56836821,-0.00978849,-0.02884582,-0.82221024
'00:18:05.577,0.058594,0.029297,1.004395,0.365854,1.341463,-0.548781,-5.100000,18.006250,19.662500,31.159,0.56836205,-0.00977055,-0.02883110,-0.82221523
'00:18:05.584,0.059570,0.029297,1.004883,0.365854,1.341463,-0.548781,-5.100000,18.006250,19.662500,31.159,0.56835877,-0.00976475,-0.02882584,-0.82221775
'00:18:05.594,0.059082,0.029297,1.003906,0.365854,1.341463,-0.548781,-4.868750,17.562500,19.425001,31.250,0.56836036,-0.00976110,-0.02882432,-0.82221675
'00:18:05.604,0.060059,0.029297,1.004395,0.365854,1.341463,-0.548781,-4.868750,17.562500,19.425001,31.205,0.56836192,-0.00976281,-0.02882641,-0.82221557
'00:18:05.618,0.060547,0.029297,1.003906,0.304878,1.341463,-0.548781,-4.837500,17.500000,19.331251,31.159,0.56836549,-0.00977440,-0.02882769,-0.82221293
'00:18:05.624,0.059570,0.029785,1.005371,0.304878,1.341463,-0.548781,-4.837500,17.500000,19.331251,31.205,0.56836696,-0.00977468,-0.02882725,-0.82221192
'00:18:05.634,0.059570,0.029297,1.003418,0.243902,1.341463,-0.609756,-4.837500,17.550001,19.337500,31.175,0.56836625,-0.00978105,-0.02882141,-0.82221254
'00:18:05.644,0.059570,0.030273,1.004395,0.365854,1.341463,-0.548781,-4.837500,17.550001,19.337500,31.190,0.56836981,-0.00977741,-0.02882949,-0.82220984
'00:18:05.656,0.061035,0.029785,1.003906,0.365854,1.341463,-0.609756,-4.768750,17.493750,19.312500,31.190,0.56837314,-0.00978914,-0.02884773,-0.82220676
'00:18:05.664,0.060547,0.030273,1.004395,0.365854,1.280488,-0.548781,-5.225000,18.137501,19.743750,31.190,0.56836460,-0.00978295,-0.02884628,-0.82221278
'00:18:05.675,0.059082,0.029785,1.004395,0.304878,1.341463,-0.548781,-5.225000,18.137501,19.743750,31.190,0.56835316,-0.00976646,-0.02882722,-0.82222156
'00:18:05.684,0.059570,0.029785,1.002930,0.304878,1.341463,-0.548781,-5.018750,17.781250,19.568750,31.144,0.56834934,-0.00976175,-0.02882054,-0.82222449
'00:18:05.695,0.060059,0.029297,1.004395,0.365854,1.341463,-0.548781,-5.018750,17.781250,19.568750,31.190,0.56834488,-0.00975745,-0.02881575,-0.82222780
'00:18:05.704,0.058594,0.028809,1.004883,0.365854,1.280488,-0.548781,-4.825000,17.581251,19.312500,31.220,0.56834992,-0.00975973,-0.02881652,-0.82222426
'00:18:05.714,0.059570,0.029785,1.004883,0.304878,1.341463,-0.609756,-4.825000,17.581251,19.312500,31.190,0.56835098,-0.00976227,-0.02881928,-0.82222339
'00:18:05.724,0.059570,0.029785,1.004883,0.304878,1.341463,-0.609756,-4.850000,17.556250,19.343750,31.190,0.56834957,-0.00976298,-0.02881937,-0.82222436
'00:18:05.736,0.060059,0.029297,1.004395,0.365854,1.341463,-0.548781,-4.850000,17.556250,19.343750,31.190,0.56835328,-0.00976603,-0.02882384,-0.82222160
'00:18:05.744,0.060059,0.029297,1.004395,0.365854,1.341463,-0.548781,-4.837500,17.593750,19.387501,31.190,0.56835700,-0.00976915,-0.02882816,-0.82221884
'00:18:05.754,0.059570,0.029785,1.004395,0.365854,1.341463,-0.548781,-4.837500,17.593750,19.387501,31.205,0.56836153,-0.00976836,-0.02883436,-0.82221550
'00:18:05.764,0.060547,0.029785,1.003906,0.304878,1.341463,-0.609756,-5.062500,17.868750,19.618750,31.205,0.56835177,-0.00976680,-0.02882888,-0.82222246
'00:18:05.777,0.059082,0.029297,1.005371,0.426829,1.341463,-0.548781,-5.062500,17.868750,19.618750,31.235,0.56834514,-0.00974886,-0.02882167,-0.82222751
'00:18:05.784,0.060547,0.029297,1.002930,0.304878,1.280488,-0.609756,-5.062500,17.825001,19.575001,31.190,0.56833774,-0.00975205,-0.02881786,-0.82223272
'00:18:05.794,0.059082,0.029785,1.003418,0.365854,1.280488,-0.548781,-5.062500,17.825001,19.575001,31.205,0.56833157,-0.00974372,-0.02881376,-0.82223723
'00:18:05.804,0.060059,0.028809,1.003906,0.304878,1.341463,-0.609756,-5.000000,17.762501,19.518751,31.205,0.56832431,-0.00974573,-0.02880384,-0.82224257
'00:18:05.814,0.059570,0.029297,1.004395,0.365854,1.341463,-0.548781,-5.000000,17.762501,19.518751,31.190,0.56832143,-0.00974022,-0.02879909,-0.82224479
'00:18:05.824,0.059082,0.029785,1.005371,0.365854,1.341463,-0.548781,-4.793750,17.543751,19.356251,31.190,0.56832821,-0.00973903,-0.02880596,-0.82223988
'00:18:05.834,0.058105,0.029297,1.003906,0.304878,1.280488,-0.548781,-4.793750,17.543751,19.356251,31.205,0.56833488,-0.00974203,-0.02880536,-0.82223525
'00:18:05.844,0.058594,0.029785,1.004883,0.365854,1.341463,-0.548781,-4.818750,17.562500,19.381250,31.235,0.56834021,-0.00973695,-0.02880881,-0.82223150
'00:18:05.855,0.060547,0.029297,1.004883,0.365854,1.341463,-0.548781,-4.818750,17.562500,19.381250,31.220,0.56834608,-0.00974543,-0.02881779,-0.82222703
'00:18:05.864,0.059570,0.029297,1.003906,0.365854,1.341463,-0.548781,-4.925000,17.781250,19.537500,31.159,0.56834833,-0.00974480,-0.02881891,-0.82222545
'00:18:05.874,0.059570,0.030273,1.004395,0.304878,1.341463,-0.609756,-4.925000,17.781250,19.537500,31.205,0.56834620,-0.00974305,-0.02882113,-0.82222686
'00:18:05.884,0.059082,0.030273,1.003906,0.365854,1.341463,-0.548781,-5.175000,18.081251,19.843750,31.220,0.56833749,-0.00972618,-0.02881358,-0.82223335
'00:18:05.894,0.060547,0.029297,1.003418,0.304878,1.280488,-0.609756,-5.175000,18.081251,19.843750,31.159,0.56832445,-0.00972867,-0.02880524,-0.82224263
'00:18:05.904,0.061035,0.028809,1.004883,0.304878,1.341463,-0.609756,-4.781250,17.443750,19.343750,31.175,0.56832546,-0.00974468,-0.02880849,-0.82224162
'00:18:05.914,0.059570,0.029297,1.005371,0.304878,1.341463,-0.609756,-4.781250,17.443750,19.343750,31.175,0.56832641,-0.00975027,-0.02880857,-0.82224090
'00:18:05.924,0.060547,0.029297,1.004395,0.365854,1.280488,-0.609756,-4.793750,17.518751,19.312500,31.190,0.56832823,-0.00976289,-0.02882110,-0.82223905
'00:18:05.934,0.059082,0.030273,1.003906,0.304878,1.341463,-0.548781,-4.793750,17.462500,19.381250,31.175,0.56833269,-0.00976163,-0.02882451,-0.82223586
'00:18:05.944,0.059570,0.030273,1.003418,0.304878,1.341463,-0.609756,-4.793750,17.462500,19.381250,31.190,0.56833274,-0.00976304,-0.02882999,-0.82223562
'00:18:05.954,0.059570,0.029297,1.003418,0.304878,1.341463,-0.548781,-4.987500,17.843750,19.568750,31.159,0.56833225,-0.00976241,-0.02882355,-0.82223619
'00:18:05.964,0.060547,0.029785,1.004883,0.304878,1.341463,-0.548781,-4.987500,17.843750,19.568750,31.190,0.56833165,-0.00976494,-0.02882311,-0.82223659
'00:18:05.974,0.059570,0.029297,1.004883,0.304878,1.341463,-0.548781,-4.993750,17.775000,19.518751,31.235,0.56832935,-0.00976254,-0.02881421,-0.82223852
'00:18:05.984,0.060547,0.029785,1.004883,0.365854,1.341463,-0.548781,-4.993750,17.775000,19.518751,31.220,0.56832699,-0.00976063,-0.02881630,-0.82224010
'00:18:05.994,0.059082,0.029785,1.004395,0.365854,1.341463,-0.548781,-4.937500,17.625000,19.531250,31.144,0.56832492,-0.00975211,-0.02881355,-0.82224173
'00:18:06.004,0.060059,0.029297,1.003418,0.304878,1.280488,-0.609756,-4.937500,17.625000,19.531250,31.159,0.56831836,-0.00975850,-0.02881096,-0.82224628
'00:18:06.014,0.059570,0.029785,1.003418,0.365854,1.341463,-0.548781,-4.787500,17.606251,19.356251,31.190,0.56832698,-0.00976139,-0.02882226,-0.82223989
'00:18:06.024,0.060059,0.029785,1.003906,0.304878,1.341463,-0.609756,-4.787500,17.606251,19.356251,31.190,0.56833110,-0.00976966,-0.02883072,-0.82223664
'00:18:06.034,0.059082,0.029785,1.003906,0.365854,1.280488,-0.548781,-4.806250,17.593750,19.400000,31.220,0.56833771,-0.00977266,-0.02884070,-0.82223170
'00:18:06.044,0.059570,0.029297,1.003906,0.304878,1.341463,-0.548781,-4.806250,17.593750,19.400000,31.175,0.56834444,-0.00977887,-0.02884222,-0.82222691
'00:18:06.054,0.059570,0.029785,1.004395,0.365854,1.341463,-0.548781,-4.775000,17.568750,19.418751,31.205,0.56835262,-0.00978156,-0.02885245,-0.82222087
'00:18:06.064,0.059570,0.029785,1.003906,0.365854,1.341463,-0.609756,-4.775000,17.568750,19.418751,31.159,0.56835636,-0.00978413,-0.02886273,-0.82221789
'00:18:06.074,0.059570,0.029297,1.003418,0.304878,1.341463,-0.609756,-4.993750,17.875000,19.562500,31.190,0.56835166,-0.00978295,-0.02885599,-0.82222139
'00:18:06.085,0.060547,0.029297,1.004883,0.304878,1.341463,-0.548781,-4.993750,17.875000,19.562500,31.175,0.56835131,-0.00978738,-0.02885213,-0.82222172
'00:18:06.094,0.060059,0.029297,1.004883,0.304878,1.341463,-0.548781,-5.093750,17.918751,19.662500,31.190,0.56834555,-0.00978405,-0.02884131,-0.82222612
'00:18:06.104,0.060547,0.028320,1.004395,0.365854,1.341463,-0.548781,-5.093750,17.918751,19.662500,31.250,0.56833943,-0.00978393,-0.02883048,-0.82223073
'00:18:06.114,0.059082,0.029785,1.004395,0.365854,1.341463,-0.609756,-4.787500,17.556250,19.375000,31.220,0.56834229,-0.00978264,-0.02883788,-0.82222851
'00:18:06.124,0.061035,0.029785,1.003906,0.304878,1.280488,-0.609756,-4.787500,17.556250,19.375000,31.159,0.56834483,-0.00979967,-0.02885156,-0.82222607
'00:18:06.134,0.058594,0.030762,1.003906,0.365854,1.341463,-0.609756,-4.856250,17.625000,19.393751,31.190,0.56834417,-0.00978842,-0.02885864,-0.82222641
'00:18:06.144,0.058594,0.029785,1.003906,0.304878,1.341463,-0.548781,-4.856250,17.625000,19.393751,31.175,0.56834805,-0.00978435,-0.02885568,-0.82222388
'00:18:06.154,0.057617,0.029785,1.004395,0.365854,1.341463,-0.548781,-4.812500,17.512501,19.412500,31.265,0.56835231,-0.00977289,-0.02885375,-0.82222114
'00:18:06.164,0.059082,0.031738,1.004883,0.304878,1.341463,-0.548781,-4.812500,17.512501,19.412500,31.190,0.56835606,-0.00976497,-0.02886414,-0.82221828
'00:18:06.174,0.059082,0.029785,1.003418,0.304878,1.280488,-0.548781,-5.012500,17.875000,19.593750,31.190,0.56835413,-0.00976300,-0.02885975,-0.82221979
'00:18:06.184,0.059082,0.028320,1.003418,0.304878,1.341463,-0.548781,-4.950000,17.756250,19.568750,31.190,0.56835423,-0.00976443,-0.02884609,-0.82222018
'00:18:06.194,0.060059,0.029297,1.003906,0.304878,1.341463,-0.548781,-4.950000,17.756250,19.568750,31.205,0.56835412,-0.00976732,-0.02884173,-0.82222038
'00:18:06.204,0.060059,0.029297,1.004883,0.365854,1.341463,-0.548781,-4.806250,17.556250,19.325001,31.144,0.56836028,-0.00977229,-0.02884833,-0.82221583
'00:18:06.214,0.060547,0.028320,1.002930,0.365854,1.341463,-0.548781,-4.806250,17.556250,19.325001,31.190,0.56836656,-0.00978411,-0.02885192,-0.82221122
'00:18:06.224,0.059570,0.029785,1.004883,0.304878,1.280488,-0.609756,-4.837500,17.606251,19.418751,31.205,0.56836659,-0.00979043,-0.02885640,-0.82221097
'00:18:06.234,0.060547,0.029297,1.004395,0.304878,1.341463,-0.548781,-4.837500,17.606251,19.418751,31.220,0.56837118,-0.00979984,-0.02885892,-0.82220759
'00:18:06.244,0.059570,0.030273,1.002441,0.304878,1.280488,-0.548781,-4.831250,17.531250,19.431250,31.190,0.56837399,-0.00980401,-0.02886559,-0.82220537
'00:18:06.254,0.058594,0.030273,1.004883,0.365854,1.341463,-0.609756,-4.831250,17.531250,19.431250,31.190,0.56837267,-0.00979459,-0.02886877,-0.82220628
'00:18:06.264,0.058105,0.029297,1.004395,0.365854,1.341463,-0.609756,-4.937500,17.750000,19.518751,31.190,0.56836907,-0.00978342,-0.02886158,-0.82220916
'00:18:06.274,0.058594,0.029785,1.003906,0.304878,1.341463,-0.548781,-4.937500,17.750000,19.518751,31.144,0.56836971,-0.00977650,-0.02885494,-0.82220903
'00:18:06.284,0.059082,0.030273,1.004395,0.365854,1.341463,-0.609756,-5.087500,17.931250,19.600000,31.205,0.56835972,-0.00976114,-0.02885010,-0.82221628
'00:18:06.294,0.060547,0.030273,1.003906,0.304878,1.280488,-0.548781,-5.087500,17.931250,19.600000,31.159,0.56835393,-0.00976166,-0.02884974,-0.82222029
'00:18:06.304,0.059570,0.029785,1.003418,0.304878,1.341463,-0.548781,-4.881250,17.706251,19.450001,31.205,0.56835776,-0.00976323,-0.02885078,-0.82221759
'00:18:06.314,0.059082,0.030273,1.002930,0.365854,1.341463,-0.548781,-4.881250,17.706251,19.450001,31.190,0.56836154,-0.00975723,-0.02885723,-0.82221483
'00:18:06.324,0.060547,0.029297,1.003906,0.426829,1.341463,-0.548781,-4.781250,17.500000,19.381250,31.220,0.56836786,-0.00976318,-0.02887069,-0.82220991
'00:18:06.334,0.059082,0.029785,1.004883,0.365854,1.280488,-0.609756,-4.781250,17.500000,19.381250,31.159,0.56836951,-0.00976595,-0.02887931,-0.82220843
'00:18:06.344,0.061035,0.029785,1.004395,0.365854,1.341463,-0.609756,-4.750000,17.518751,19.418751,31.144,0.56837369,-0.00977759,-0.02889540,-0.82220485
'00:18:06.354,0.059570,0.028809,1.003418,0.304878,1.341463,-0.548781,-4.750000,17.518751,19.418751,31.220,0.56838238,-0.00978813,-0.02889585,-0.82219869
'00:18:06.364,0.059570,0.028809,1.002930,0.365854,1.341463,-0.548781,-4.781250,17.550001,19.393751,31.205,0.56838974,-0.00979394,-0.02889917,-0.82219342
'00:18:06.374,0.058594,0.029785,1.003906,0.304878,1.402439,-0.548781,-4.781250,17.550001,19.393751,31.190,0.56839699,-0.00978877,-0.02889640,-0.82218857
'00:18:06.384,0.059082,0.029785,1.004395,0.304878,1.341463,-0.548781,-4.925000,17.775000,19.487501,31.205,0.56839903,-0.00978524,-0.02889241,-0.82218734
'00:18:06.394,0.060059,0.029297,1.003906,0.304878,1.341463,-0.548781,-4.925000,17.775000,19.487501,31.190,0.56840114,-0.00978913,-0.02888969,-0.82218593
'00:18:06.404,0.059570,0.028809,1.004883,0.365854,1.341463,-0.548781,-4.956250,17.762501,19.487501,31.175,0.56840099,-0.00978691,-0.02888369,-0.82218627
'00:18:06.414,0.060059,0.028809,1.004883,0.365854,1.341463,-0.548781,-4.956250,17.762501,19.487501,31.175,0.56840085,-0.00978740,-0.02887967,-0.82218651
'00:18:06.424,0.059570,0.029785,1.003418,0.365854,1.280488,-0.609756,-4.756250,17.468750,19.281250,31.159,0.56840374,-0.00979355,-0.02889193,-0.82218400
'00:18:06.434,0.060059,0.029297,1.004395,0.365854,1.341463,-0.609756,-4.775000,17.587500,19.350000,31.190,0.56840805,-0.00980029,-0.02890087,-0.82218063
'00:18:06.444,0.060059,0.029297,1.004395,0.304878,1.341463,-0.548781,-4.775000,17.587500,19.350000,31.175,0.56841664,-0.00981008,-0.02890523,-0.82217442
'00:18:06.454,0.059570,0.029785,1.004395,0.304878,1.341463,-0.548781,-4.781250,17.493750,19.356251,31.190,0.56842240,-0.00981339,-0.02890759,-0.82217032
'00:18:06.464,0.059570,0.029785,1.004395,0.304878,1.341463,-0.548781,-4.781250,17.493750,19.356251,31.190,0.56842812,-0.00981663,-0.02890988,-0.82216624
'00:18:06.474,0.058594,0.030273,1.002930,0.365854,1.341463,-0.609756,-5.337500,18.287500,19.900000,31.175,0.56840850,-0.00978970,-0.02889219,-0.82218075
'00:18:06.484,0.060059,0.031250,1.004883,0.304878,1.341463,-0.548781,-5.337500,18.287500,19.900000,31.235,0.56839313,-0.00977020,-0.02888052,-0.82219202
'00:18:06.494,0.060059,0.029297,1.004395,0.365854,1.341463,-0.548781,-5.031250,17.868750,19.618750,31.175,0.56838981,-0.00976653,-0.02887607,-0.82219451
'00:18:06.505,0.059570,0.029297,1.004883,0.365854,1.402439,-0.548781,-5.031250,17.868750,19.618750,31.190,0.56838638,-0.00975472,-0.02886570,-0.82219738
'00:18:06.514,0.059082,0.028809,1.003418,0.365854,1.341463,-0.548781,-4.887500,17.562500,19.425001,31.220,0.56838660,-0.00975223,-0.02886004,-0.82219746
'00:18:06.524,0.060547,0.030762,1.004395,0.365854,1.341463,-0.548781,-4.887500,17.562500,19.425001,31.175,0.56838641,-0.00974973,-0.02887018,-0.82219726
'00:18:06.534,0.060059,0.030273,1.004883,0.304878,1.341463,-0.609756,-4.806250,17.543751,19.375000,31.205,0.56838731,-0.00975383,-0.02887704,-0.82219635
'00:18:06.545,0.060059,0.029297,1.003418,0.365854,1.341463,-0.609756,-4.806250,17.543751,19.375000,31.190,0.56838855,-0.00975951,-0.02888379,-0.82219519
'00:18:06.554,0.060059,0.029785,1.004883,0.365854,1.280488,-0.609756,-4.812500,17.537500,19.381250,31.144,0.56838876,-0.00976558,-0.02889331,-0.82219464
'00:18:06.564,0.058594,0.029785,1.002930,0.304878,1.341463,-0.548781,-4.812500,17.537500,19.381250,31.205,0.56839349,-0.00976328,-0.02889137,-0.82219147
'00:18:06.574,0.058594,0.029297,1.004395,0.365854,1.341463,-0.548781,-4.843750,17.543751,19.356251,31.159,0.56839645,-0.00975772,-0.02888825,-0.82218960
'00:18:06.584,0.059570,0.029785,1.004395,0.365854,1.280488,-0.548781,-4.843750,17.543751,19.356251,31.205,0.56839912,-0.00976009,-0.02889474,-0.82218749
'00:18:06.594,0.059570,0.029785,1.004395,0.304878,1.280488,-0.609756,-5.287500,18.181250,19.856251,31.190,0.56838054,-0.00974948,-0.02887769,-0.82220106
'00:18:06.604,0.060059,0.029297,1.003906,0.304878,1.280488,-0.548781,-5.287500,18.181250,19.856251,31.190,0.56836653,-0.00974383,-0.02886028,-0.82221143
'00:18:06.614,0.060059,0.029785,1.004883,0.304878,1.341463,-0.548781,-4.887500,17.637501,19.425001,31.205,0.56836838,-0.00974661,-0.02886036,-0.82221011
'00:18:06.624,0.061035,0.029785,1.004883,0.365854,1.341463,-0.548781,-4.887500,17.637501,19.425001,31.205,0.56837022,-0.00975168,-0.02886854,-0.82220849
'00:18:06.634,0.059082,0.029297,1.003906,0.304878,1.280488,-0.609756,-4.837500,17.562500,19.381250,31.205,0.56836950,-0.00975716,-0.02886755,-0.82220896
'00:18:06.645,0.060059,0.029785,1.004395,0.304878,1.341463,-0.609756,-4.837500,17.562500,19.381250,31.190,0.56836871,-0.00976201,-0.02887014,-0.82220936
'00:18:06.654,0.058594,0.029297,1.003418,0.365854,1.341463,-0.548781,-4.762500,17.550001,19.381250,31.159,0.56837664,-0.00976196,-0.02887386,-0.82220375
'00:18:06.664,0.058105,0.029297,1.003418,0.304878,1.341463,-0.609756,-4.762500,17.550001,19.381250,31.190,0.56838101,-0.00976202,-0.02887169,-0.82220080
'00:18:06.674,0.060059,0.030762,1.005371,0.365854,1.341463,-0.548781,-5.062500,17.800001,19.562500,31.220,0.56837399,-0.00974973,-0.02887135,-0.82220581
'00:18:06.684,0.059570,0.029297,1.003906,0.365854,1.341463,-0.609756,-5.062500,17.800001,19.562500,31.190,0.56836294,-0.00974080,-0.02886167,-0.82221389
'00:18:06.694,0.060547,0.029785,1.003906,0.365854,1.341463,-0.548781,-5.256250,18.168751,19.725000,31.235,0.56835138,-0.00973000,-0.02885278,-0.82222233
'00:18:06.707,0.059570,0.029785,1.003906,0.365854,1.341463,-0.548781,-5.012500,17.887501,19.637501,31.220,0.56834939,-0.00972227,-0.02885158,-0.82222383
'00:18:06.714,0.059082,0.029785,1.003418,0.365854,1.341463,-0.548781,-5.012500,17.887501,19.637501,31.175,0.56834835,-0.00971639,-0.02884979,-0.82222469
'00:18:06.724,0.059570,0.030273,1.005371,0.365854,1.341463,-0.609756,-4.818750,17.518751,19.356251,31.175,0.56834815,-0.00971414,-0.02885792,-0.82222456
'00:18:06.734,0.060059,0.029297,1.005371,0.365854,1.341463,-0.548781,-4.818750,17.518751,19.356251,31.190,0.56835251,-0.00971861,-0.02886221,-0.82222135
'00:18:06.744,0.059570,0.029785,1.003418,0.304878,1.341463,-0.609756,-4.787500,17.556250,19.356251,31.220,0.56835538,-0.00972411,-0.02886711,-0.82221913
'00:18:06.754,0.059082,0.028809,1.003906,0.243902,1.341463,-0.548781,-4.787500,17.556250,19.356251,31.190,0.56836279,-0.00973372,-0.02885984,-0.82221415
'00:18:06.764,0.059570,0.028809,1.005371,0.365854,1.341463,-0.548781,-4.881250,17.656250,19.481251,31.205,0.56836558,-0.00973547,-0.02885753,-0.82221228
'00:18:06.774,0.059082,0.029297,1.004395,0.365854,1.280488,-0.548781,-4.881250,17.656250,19.481251,31.235,0.56836812,-0.00973715,-0.02885952,-0.82221043
'00:18:06.784,0.059082,0.029297,1.003906,0.365854,1.341463,-0.548781,-4.787500,17.525000,19.337500,31.205,0.56837481,-0.00973809,-0.02886312,-0.82220567
'00:18:06.794,0.059570,0.029785,1.004883,0.304878,1.341463,-0.548781,-4.787500,17.525000,19.337500,31.205,0.56838130,-0.00974258,-0.02886655,-0.82220101
'00:18:06.804,0.058594,0.029297,1.003906,0.304878,1.341463,-0.548781,-5.237500,18.131250,19.800001,31.175,0.56836980,-0.00972675,-0.02884334,-0.82220996
'00:18:06.814,0.060059,0.029297,1.004883,0.365854,1.280488,-0.548781,-5.237500,18.131250,19.800001,31.190,0.56835829,-0.00972028,-0.02883311,-0.82221836
'00:18:06.825,0.060547,0.029297,1.004395,0.304878,1.341463,-0.548781,-4.825000,17.568750,19.356251,31.175,0.56836382,-0.00973195,-0.02883671,-0.82221427
'00:18:06.834,0.060059,0.028320,1.004883,0.365854,1.341463,-0.548781,-4.825000,17.568750,19.356251,31.175,0.56836856,-0.00973953,-0.02883665,-0.82221090
'00:18:06.844,0.059082,0.029785,1.002930,0.304878,1.341463,-0.548781,-4.781250,17.581251,19.325001,31.205,0.56837695,-0.00974289,-0.02884130,-0.82220490
'00:18:06.854,0.059570,0.029785,1.003418,0.365854,1.341463,-0.609756,-4.781250,17.581251,19.325001,31.175,0.56838096,-0.00974560,-0.02885194,-0.82220172
'00:18:06.864,0.059570,0.030762,1.003906,0.365854,1.341463,-0.609756,-4.762500,17.543751,19.400000,31.220,0.56838483,-0.00974513,-0.02886821,-0.82219848
'00:18:06.874,0.060547,0.030273,1.003418,0.304878,1.280488,-0.609756,-4.762500,17.543751,19.400000,31.190,0.56838852,-0.00975951,-0.02888403,-0.82219521
'00:18:06.884,0.059082,0.029297,1.004395,0.243902,1.280488,-0.609756,-5.106250,17.868750,19.587500,31.220,0.56837573,-0.00975649,-0.02886467,-0.82220476
'00:18:06.894,0.059570,0.029297,1.004395,0.304878,1.280488,-0.609756,-5.106250,17.868750,19.587500,31.190,0.56836307,-0.00975322,-0.02885191,-0.82221400
'00:18:06.904,0.060059,0.028809,1.004883,0.426829,1.463415,-0.548781,-5.175000,18.106251,19.781250,31.190,0.56835571,-0.00973526,-0.02883812,-0.82221978
'00:18:06.914,0.061035,0.028809,1.003906,0.243902,1.219512,-0.548781,-5.175000,18.106251,19.781250,31.175,0.56834764,-0.00974963,-0.02882764,-0.82222556
'00:18:06.924,0.060547,0.030273,1.003906,0.487805,1.463415,-0.548781,-4.862500,17.643751,19.493750,31.175,0.56835151,-0.00973743,-0.02884235,-0.82222252
'00:18:06.934,0.060059,0.028809,1.003418,0.243902,1.280488,-0.487805,-4.862500,17.643751,19.493750,31.205,0.56835939,-0.00975389,-0.02883834,-0.82221701
'00:18:06.944,0.059082,0.029785,1.003418,0.426829,1.341463,-0.548781,-4.756250,17.487501,19.331251,31.144,0.56836739,-0.00975120,-0.02885122,-0.82221107
'00:18:06.954,0.059570,0.028809,1.003418,0.304878,1.219512,-0.487805,-4.806250,17.562500,19.425001,31.190,0.56837737,-0.00976821,-0.02885509,-0.82220383
'00:18:06.964,0.058594,0.028809,1.003906,0.365854,1.402439,-0.548781,-4.806250,17.562500,19.425001,31.190,0.56838346,-0.00976310,-0.02885018,-0.82219985
'00:18:06.974,0.060059,0.029297,1.004883,0.304878,1.280488,-0.609756,-4.775000,17.462500,19.306250,31.220,0.56838498,-0.00977588,-0.02885549,-0.82219846
'00:18:06.984,0.059570,0.029297,1.004395,0.365854,1.341463,-0.548781,-4.775000,17.462500,19.306250,31.250,0.56839105,-0.00977862,-0.02886029,-0.82219406
'00:18:06.994,0.059570,0.029297,1.004395,0.365854,1.280488,-0.548781,-5.125000,18.043751,19.693750,31.175,0.56838514,-0.00977370,-0.02885437,-0.82219841
'00:18:07.004,0.061523,0.029297,1.004883,0.365854,1.341463,-0.548781,-5.125000,18.043751,19.693750,31.205,0.56837938,-0.00977497,-0.02885275,-0.82220244
'00:18:07.014,0.061035,0.029785,1.003418,0.304878,1.280488,-0.548781,-4.956250,17.768751,19.512501,31.175,0.56837896,-0.00978517,-0.02885784,-0.82220243
'00:18:07.024,0.060547,0.029297,1.004395,0.365854,1.341463,-0.548781,-4.956250,17.768751,19.512501,31.159,0.56837886,-0.00978684,-0.02885919,-0.82220243
'00:18:07.034,0.060059,0.029785,1.004395,0.304878,1.341463,-0.548781,-4.850000,17.656250,19.418751,31.220,0.56838364,-0.00979156,-0.02886274,-0.82219894
'00:18:07.044,0.059082,0.029297,1.004395,0.304878,1.402439,-0.548781,-4.850000,17.656250,19.418751,31.220,0.56838869,-0.00978835,-0.02885666,-0.82219570
'00:18:07.054,0.059082,0.028809,1.003418,0.304878,1.280488,-0.548781,-4.837500,17.612501,19.412500,31.190,0.56839339,-0.00979619,-0.02885424,-0.82219245
'00:18:07.064,0.058105,0.030273,1.003906,0.365854,1.280488,-0.609756,-4.837500,17.612501,19.412500,31.235,0.56839348,-0.00978943,-0.02886060,-0.82219224
'00:18:07.074,0.059082,0.029297,1.004883,0.365854,1.280488,-0.548781,-4.800000,17.537500,19.275000,31.190,0.56839953,-0.00979288,-0.02886614,-0.82218783
'00:18:07.084,0.058105,0.029785,1.002930,0.365854,1.280488,-0.609756,-4.800000,17.537500,19.275000,31.190,0.56840109,-0.00978916,-0.02887136,-0.82218661
'00:18:07.094,0.059082,0.029297,1.004395,0.243902,1.280488,-0.548781,-4.800000,17.531250,19.418751,31.159,0.56840623,-0.00979904,-0.02886761,-0.82218307
'00:18:07.104,0.060547,0.030273,1.003418,0.365854,1.402439,-0.609756,-4.800000,17.531250,19.418751,31.175,0.56840711,-0.00979831,-0.02887830,-0.82218209
'00:18:07.114,0.060547,0.030273,1.003906,0.304878,1.219512,-0.548781,-5.212500,18.118750,19.843750,31.144,0.56839604,-0.00979847,-0.02887490,-0.82218987
'00:18:07.124,0.060547,0.029785,1.004395,0.304878,1.280488,-0.548781,-5.212500,18.118750,19.843750,31.220,0.56838526,-0.00979606,-0.02886569,-0.82219767
'00:18:07.134,0.062012,0.027344,1.005371,0.365854,1.341463,-0.548781,-4.850000,17.512501,19.331251,31.220,0.56838745,-0.00981543,-0.02886355,-0.82219600
'00:18:07.145,0.061523,0.028320,1.003906,0.365854,1.341463,-0.609756,-4.850000,17.512501,19.331251,31.159,0.56838479,-0.00982947,-0.02886588,-0.82219759
'00:18:07.154,0.061035,0.030273,1.003906,0.426829,1.402439,-0.548781,-4.850000,17.587500,19.425001,31.205,0.56838761,-0.00982613,-0.02887859,-0.82219523
'00:18:07.164,0.059082,0.031250,1.003906,0.365854,1.280488,-0.609756,-4.850000,17.587500,19.425001,31.205,0.56838585,-0.00981939,-0.02889223,-0.82219605
'00:18:07.174,0.059570,0.030762,1.004883,0.304878,1.280488,-0.548781,-4.806250,17.487501,19.393751,31.235,0.56838929,-0.00982154,-0.02890106,-0.82219333
'00:18:07.184,0.059082,0.028809,1.003906,0.365854,1.280488,-0.548781,-4.806250,17.487501,19.393751,31.190,0.56839319,-0.00982582,-0.02890146,-0.82219058
'00:18:07.194,0.059082,0.029785,1.002930,0.304878,1.280488,-0.548781,-4.962500,17.781250,19.512501,31.220,0.56839248,-0.00982433,-0.02889816,-0.82219120
'00:18:07.204,0.059082,0.029785,1.002930,0.304878,1.280488,-0.548781,-4.962500,17.781250,19.512501,31.220,0.56839178,-0.00982287,-0.02889493,-0.82219181
'00:18:07.214,0.058105,0.029297,1.004395,0.304878,1.341463,-0.548781,-5.100000,17.925001,19.593750,31.220,0.56838516,-0.00980748,-0.02887469,-0.82219729
'00:18:07.224,0.058105,0.030762,1.003906,0.243902,1.280488,-0.548781,-4.793750,17.575001,19.381250,31.175,0.56839167,-0.00980687,-0.02887731,-0.82219270
'00:18:07.234,0.060547,0.029785,1.004395,0.365854,1.341463,-0.548781,-4.793750,17.575001,19.381250,31.175,0.56839853,-0.00981316,-0.02888928,-0.82218746
'00:18:07.244,0.061035,0.028320,1.004883,0.365854,1.402439,-0.548781,-4.856250,17.550001,19.425001,31.190,0.56840065,-0.00981920,-0.02888578,-0.82218605
'00:18:07.254,0.060059,0.029297,1.003418,0.365854,1.341463,-0.548781,-4.856250,17.550001,19.425001,31.175,0.56840242,-0.00982061,-0.02888768,-0.82218474
'00:18:07.265,0.061523,0.029785,1.004395,0.304878,1.280488,-0.609756,-4.825000,17.531250,19.312500,31.175,0.56840158,-0.00983809,-0.02889960,-0.82218469
'00:18:07.274,0.060547,0.029297,1.002930,0.365854,1.341463,-0.609756,-4.825000,17.531250,19.312500,31.175,0.56840114,-0.00984266,-0.02890504,-0.82218475
'00:18:07.284,0.060547,0.029785,1.003906,0.304878,1.341463,-0.548781,-4.981250,17.831251,19.525000,31.175,0.56840034,-0.00984394,-0.02890358,-0.82218534
'00:18:07.294,0.059082,0.029297,1.002441,0.365854,1.341463,-0.548781,-4.981250,17.831251,19.525000,31.159,0.56839972,-0.00983637,-0.02889875,-0.82218603
'00:18:07.305,0.059082,0.029785,1.002930,0.304878,1.341463,-0.548781,-4.800000,17.506250,19.387501,31.220,0.56840482,-0.00983600,-0.02889866,-0.82218251
'00:18:07.316,0.057617,0.029785,1.003418,0.304878,1.280488,-0.548781,-4.800000,17.506250,19.387501,31.175,0.56840979,-0.00983129,-0.02889537,-0.82217924
'00:18:07.324,0.060547,0.029785,1.004395,0.304878,1.280488,-0.548781,-4.943750,17.668751,19.450001,31.235,0.56840826,-0.00983571,-0.02889589,-0.82218023
'00:18:07.334,0.058594,0.028809,1.004883,0.365854,1.341463,-0.548781,-4.943750,17.668751,19.450001,31.175,0.56840682,-0.00982674,-0.02888470,-0.82218173
'00:18:07.345,0.059570,0.028809,1.004395,0.304878,1.341463,-0.548781,-4.775000,17.562500,19.393751,31.175,0.56841553,-0.00983602,-0.02888381,-0.82217563
'00:18:07.354,0.060059,0.030273,1.002930,0.365854,1.341463,-0.548781,-4.775000,17.562500,19.393751,31.205,0.56842236,-0.00983824,-0.02889675,-0.82217043
'00:18:07.364,0.059570,0.030273,1.004395,0.304878,1.280488,-0.548781,-4.856250,17.562500,19.412500,31.220,0.56842397,-0.00984005,-0.02890062,-0.82216915
'00:18:07.374,0.059082,0.029297,1.004395,0.365854,1.280488,-0.548781,-4.856250,17.562500,19.412500,31.175,0.56842585,-0.00983994,-0.02890135,-0.82216783
'00:18:07.384,0.060059,0.029297,1.004395,0.304878,1.280488,-0.548781,-4.818750,17.493750,19.325001,31.190,0.56842897,-0.00984936,-0.02890296,-0.82216551
'00:18:07.394,0.059570,0.028320,1.003906,0.304878,1.341463,-0.609756,-4.818750,17.493750,19.325001,31.220,0.56842806,-0.00985535,-0.02889429,-0.82216637
'00:18:07.404,0.059082,0.028809,1.005371,0.365854,1.341463,-0.548781,-4.987500,17.837500,19.531250,31.220,0.56842718,-0.00984855,-0.02888530,-0.82216737
'00:18:07.415,0.059082,0.029297,1.002930,0.304878,1.280488,-0.548781,-4.987500,17.837500,19.531250,31.220,0.56842588,-0.00984783,-0.02887815,-0.82216853
'00:18:07.426,0.059570,0.029297,1.003906,0.304878,1.341463,-0.548781,-4.987500,17.800001,19.562500,31.250,0.56842365,-0.00984456,-0.02886835,-0.82217045
'00:18:07.434,0.058105,0.029785,1.003418,0.304878,1.280488,-0.548781,-4.987500,17.800001,19.562500,31.129,0.56842189,-0.00983785,-0.02886162,-0.82217199
'00:18:07.444,0.058594,0.030273,1.002930,0.304878,1.341463,-0.609756,-4.818750,17.575001,19.350000,31.235,0.56842255,-0.00983239,-0.02886329,-0.82217154
'00:18:07.454,0.061035,0.029297,1.004883,0.304878,1.280488,-0.609756,-4.818750,17.575001,19.350000,31.205,0.56842318,-0.00984831,-0.02887107,-0.82217064
'00:18:07.464,0.059570,0.029297,1.004883,0.304878,1.280488,-0.609756,-4.806250,17.518751,19.343750,31.205,0.56842339,-0.00985588,-0.02887268,-0.82217035
'00:18:07.474,0.058594,0.030273,1.004395,0.304878,1.341463,-0.548781,-4.831250,17.575001,19.318750,31.159,0.56842764,-0.00984914,-0.02887260,-0.82216749
'00:18:07.484,0.058594,0.028809,1.002930,0.365854,1.341463,-0.548781,-4.831250,17.575001,19.318750,31.220,0.56843223,-0.00984553,-0.02886917,-0.82216448
'00:18:07.494,0.060059,0.030273,1.002930,0.243902,1.341463,-0.548781,-5.087500,17.893751,19.618750,31.175,0.56842518,-0.00984029,-0.02885831,-0.82216980
'00:18:07.505,0.060547,0.030273,1.004395,0.426829,1.341463,-0.548781,-5.087500,17.893751,19.618750,31.175,0.56841766,-0.00982726,-0.02886243,-0.82217501
'00:18:07.514,0.060059,0.028809,1.004395,0.365854,1.341463,-0.548781,-5.037500,17.837500,19.606251,31.190,0.56841364,-0.00982411,-0.02885500,-0.82217809
'00:18:07.524,0.060059,0.028809,1.004395,0.304878,1.280488,-0.548781,-5.037500,17.837500,19.606251,31.220,0.56840901,-0.00982808,-0.02884553,-0.82218158
'00:18:07.534,0.059082,0.028809,1.003906,0.365854,1.341463,-0.548781,-4.818750,17.550001,19.412500,31.190,0.56841362,-0.00982808,-0.02884426,-0.82217843
'00:18:07.545,0.060547,0.029785,1.003906,0.304878,1.341463,-0.609756,-4.818750,17.550001,19.412500,31.190,0.56841352,-0.00983592,-0.02885047,-0.82217819
'00:18:07.554,0.059082,0.029297,1.004883,0.365854,1.280488,-0.609756,-4.800000,17.562500,19.393751,31.190,0.56841500,-0.00983882,-0.02885578,-0.82217695
'00:18:07.564,0.059570,0.029785,1.003418,0.304878,1.341463,-0.548781,-4.800000,17.562500,19.393751,31.235,0.56842096,-0.00984189,-0.02885940,-0.82217266
'00:18:07.574,0.059570,0.030273,1.003418,0.365854,1.341463,-0.548781,-4.793750,17.556250,19.343750,31.220,0.56842733,-0.00984009,-0.02887053,-0.82216789
'00:18:07.586,0.059570,0.030273,1.004395,0.243902,1.280488,-0.548781,-4.793750,17.556250,19.343750,31.205,0.56843463,-0.00985017,-0.02887631,-0.82216251
'00:18:07.594,0.059082,0.030273,1.005859,0.304878,1.280488,-0.548781,-4.993750,17.793751,19.493750,31.159,0.56843250,-0.00984524,-0.02887351,-0.82216415
'00:18:07.604,0.059570,0.029297,1.003906,0.365854,1.280488,-0.548781,-4.993750,17.793751,19.493750,31.220,0.56843008,-0.00984302,-0.02887162,-0.82216591
'00:18:07.614,0.059570,0.028809,1.004395,0.365854,1.341463,-0.609756,-5.043750,17.937500,19.625000,31.220,0.56842302,-0.00983746,-0.02886325,-0.82217115
'00:18:07.625,0.058105,0.029785,1.004395,0.304878,1.341463,-0.548781,-5.043750,17.937500,19.625000,31.190,0.56841988,-0.00982201,-0.02884920,-0.82217400
'00:18:07.634,0.059570,0.031250,1.003418,0.365854,1.341463,-0.548781,-5.062500,17.868750,19.643751,31.250,0.56841445,-0.00980736,-0.02885180,-0.82217784
'00:18:07.644,0.059570,0.029785,1.003418,0.365854,1.341463,-0.609756,-5.062500,17.868750,19.643751,31.190,0.56840439,-0.00979685,-0.02884657,-0.82218511
'00:18:07.654,0.060547,0.029785,1.003906,0.304878,1.341463,-0.548781,-4.806250,17.537500,19.243750,31.159,0.56841004,-0.00980471,-0.02885325,-0.82218087
'00:18:07.665,0.059570,0.029297,1.004395,0.243902,1.341463,-0.609756,-4.806250,17.537500,19.243750,31.175,0.56841150,-0.00981243,-0.02884833,-0.82217994
'00:18:07.674,0.060059,0.028809,1.004395,0.304878,1.341463,-0.548781,-4.831250,17.518751,19.431250,31.175,0.56841407,-0.00981911,-0.02884485,-0.82217821
'00:18:07.684,0.059570,0.028320,1.005859,0.304878,1.341463,-0.548781,-4.831250,17.518751,19.431250,31.220,0.56841703,-0.00982532,-0.02883576,-0.82217640
'00:18:07.694,0.059570,0.029297,1.004395,0.426829,1.341463,-0.548781,-4.800000,17.556250,19.312500,31.159,0.56842346,-0.00982397,-0.02884535,-0.82217164
'00:18:07.705,0.057617,0.029785,1.002441,0.365854,1.341463,-0.548781,-4.800000,17.556250,19.312500,31.220,0.56843038,-0.00981220,-0.02884646,-0.82216696
'00:18:07.714,0.059082,0.031738,1.003418,0.365854,1.341463,-0.609756,-5.075000,17.943750,19.675001,31.205,0.56842164,-0.00979377,-0.02885061,-0.82217308
'00:18:07.724,0.060059,0.029297,1.004883,0.304878,1.341463,-0.548781,-5.075000,17.943750,19.675001,31.190,0.56841679,-0.00979124,-0.02884034,-0.82217682
'00:18:07.734,0.060547,0.027344,1.005371,0.365854,1.341463,-0.548781,-5.131250,18.018751,19.693750,31.190,0.56841035,-0.00979358,-0.02882308,-0.82218184
'00:18:07.746,0.061035,0.027344,1.003906,0.426829,1.402439,-0.609756,-4.793750,17.493750,19.250000,31.220,0.56841259,-0.00980538,-0.02882406,-0.82218012
'00:18:07.754,0.060547,0.030762,1.001953,0.365854,1.341463,-0.548781,-4.793750,17.493750,19.250000,31.205,0.56841682,-0.00980658,-0.02883816,-0.82217669
'00:18:07.764,0.060059,0.030762,1.003418,0.365854,1.341463,-0.548781,-4.825000,17.531250,19.325001,31.205,0.56842048,-0.00980382,-0.02885135,-0.82217373
'00:18:07.774,0.061035,0.030273,1.004395,0.304878,1.280488,-0.609756,-4.825000,17.531250,19.325001,31.250,0.56841962,-0.00981542,-0.02886361,-0.82217376
'00:18:07.786,0.060059,0.028809,1.001953,0.365854,1.402439,-0.548781,-4.812500,17.537500,19.337500,31.190,0.56842576,-0.00981733,-0.02886401,-0.82216947
'00:18:07.794,0.059082,0.029297,1.004395,0.365854,1.280488,-0.548781,-4.812500,17.537500,19.337500,31.175,0.56842956,-0.00981927,-0.02886750,-0.82216670
'00:18:07.804,0.059082,0.030762,1.004883,0.365854,1.341463,-0.548781,-5.218750,18.068750,19.750000,31.205,0.56841750,-0.00979608,-0.02885788,-0.82217565
'00:18:07.814,0.060059,0.029785,1.004883,0.304878,1.280488,-0.548781,-5.218750,18.068750,19.750000,31.190,0.56840552,-0.00978968,-0.02884546,-0.82218445
'00:18:07.826,0.059082,0.029785,1.005371,0.365854,1.341463,-0.609756,-5.156250,18.106251,19.737501,31.205,0.56839227,-0.00977148,-0.02883447,-0.82219421
'00:18:07.834,0.059570,0.029785,1.003906,0.365854,1.341463,-0.548781,-5.156250,18.106251,19.737501,31.190,0.56838699,-0.00976209,-0.02882923,-0.82219815
'00:18:07.844,0.059082,0.028809,1.003418,0.365854,1.341463,-0.609756,-4.831250,17.550001,19.468750,31.220,0.56838634,-0.00976253,-0.02882752,-0.82219866
'00:18:07.854,0.059082,0.029297,1.004883,0.304878,1.280488,-0.548781,-4.831250,17.550001,19.468750,31.205,0.56838977,-0.00976827,-0.02882665,-0.82219625
'00:18:07.866,0.060547,0.030273,1.004395,0.304878,1.341463,-0.609756,-4.837500,17.500000,19.381250,31.144,0.56838697,-0.00977327,-0.02883394,-0.82219787
'00:18:07.875,0.061035,0.029297,1.004395,0.243902,1.341463,-0.548781,-4.837500,17.500000,19.381250,31.175,0.56838891,-0.00978570,-0.02883203,-0.82219645
'00:18:07.884,0.060059,0.030273,1.002930,0.304878,1.341463,-0.548781,-4.818750,17.531250,19.418751,31.190,0.56839242,-0.00978872,-0.02883813,-0.82219378
'00:18:07.894,0.060059,0.029785,1.003418,0.304878,1.280488,-0.548781,-4.818750,17.531250,19.418751,31.205,0.56839624,-0.00979821,-0.02884482,-0.82219079
'00:18:07.904,0.060547,0.029785,1.004395,0.365854,1.341463,-0.548781,-4.781250,17.575001,19.362501,31.175,0.56840411,-0.00980539,-0.02885835,-0.82218478
'00:18:07.914,0.060059,0.028809,1.004883,0.304878,1.341463,-0.548781,-4.781250,17.575001,19.362501,31.190,0.56841210,-0.00981648,-0.02885962,-0.82217908
'00:18:07.924,0.058594,0.029785,1.004395,0.365854,1.341463,-0.548781,-5.125000,18.037500,19.762501,31.190,0.56840571,-0.00979945,-0.02884920,-0.82218407
'00:18:07.934,0.060059,0.030762,1.003906,0.365854,1.341463,-0.548781,-5.125000,18.037500,19.762501,31.220,0.56839915,-0.00978703,-0.02885019,-0.82218872
'00:18:07.944,0.060059,0.030762,1.003906,0.365854,1.341463,-0.548781,-4.975000,17.768751,19.462500,31.220,0.56839763,-0.00977911,-0.02885681,-0.82218963
'00:18:07.954,0.059570,0.029297,1.003418,0.304878,1.341463,-0.609756,-4.975000,17.768751,19.462500,31.190,0.56839201,-0.00977729,-0.02884917,-0.82219381
'00:18:07.964,0.059082,0.028809,1.003418,0.304878,1.402439,-0.609756,-4.843750,17.556250,19.418751,31.190,0.56839086,-0.00977527,-0.02883901,-0.82219498
'00:18:07.974,0.060059,0.029297,1.003418,0.365854,1.341463,-0.548781,-4.843750,17.556250,19.418751,31.190,0.56839388,-0.00977829,-0.02884294,-0.82219272
'00:18:07.986,0.059082,0.030273,1.003906,0.304878,1.341463,-0.609756,-4.837500,17.468750,19.387501,31.205,0.56839014,-0.00977292,-0.02884237,-0.82219539
'00:18:07.994,0.059082,0.030273,1.003906,0.304878,1.341463,-0.609756,-4.825000,17.518751,19.325001,31.205,0.56838952,-0.00977047,-0.02884390,-0.82219579
'00:18:08.004,0.060547,0.029297,1.005371,0.365854,1.341463,-0.548781,-4.825000,17.518751,19.325001,31.190,0.56839334,-0.00977620,-0.02884965,-0.82219288
'00:18:08.014,0.060547,0.029297,1.004883,0.304878,1.341463,-0.548781,-5.031250,17.862501,19.550001,31.190,0.56839014,-0.00977779,-0.02884303,-0.82219530
'00:18:08.026,0.060547,0.029297,1.003906,0.365854,1.341463,-0.609756,-5.031250,17.862501,19.550001,31.190,0.56838114,-0.00977615,-0.02884098,-0.82220162
'00:18:08.034,0.060059,0.029297,1.002930,0.426829,1.341463,-0.609756,-5.087500,17.956251,19.643751,31.205,0.56837364,-0.00976930,-0.02884023,-0.82220691
'00:18:08.044,0.059570,0.028809,1.003418,0.304878,1.341463,-0.548781,-5.087500,17.956251,19.643751,31.190,0.56836869,-0.00976619,-0.02882578,-0.82221088
'00:18:08.054,0.060547,0.029297,1.002930,0.365854,1.341463,-0.609756,-4.806250,17.562500,19.393751,31.190,0.56837029,-0.00977443,-0.02883530,-0.82220934
'00:18:08.066,0.060059,0.029297,1.004883,0.365854,1.341463,-0.548781,-4.806250,17.562500,19.393751,31.220,0.56837745,-0.00978058,-0.02884325,-0.82220404
'00:18:08.074,0.060059,0.029297,1.004883,0.365854,1.341463,-0.548781,-4.825000,17.562500,19.393751,31.220,0.56838113,-0.00978365,-0.02884725,-0.82220132
'00:18:08.084,0.059570,0.029785,1.003906,0.304878,1.341463,-0.609756,-4.825000,17.562500,19.393751,31.190,0.56838120,-0.00978587,-0.02884911,-0.82220118
'00:18:08.094,0.058105,0.030273,1.003906,0.304878,1.341463,-0.548781,-4.818750,17.537500,19.425001,31.190,0.56838530,-0.00977822,-0.02884778,-0.82219848
'00:18:08.106,0.059570,0.030762,1.003906,0.304878,1.341463,-0.609756,-4.818750,17.537500,19.425001,31.220,0.56838478,-0.00977648,-0.02885644,-0.82219856
'00:18:08.114,0.059570,0.028809,1.003906,0.304878,1.341463,-0.548781,-5.218750,18.100000,19.762501,31.205,0.56837612,-0.00976957,-0.02883932,-0.82220523
'00:18:08.124,0.061523,0.029297,1.003418,0.304878,1.341463,-0.548781,-5.218750,18.100000,19.762501,31.205,0.56836523,-0.00976985,-0.02882846,-0.82221313
'00:18:08.134,0.060547,0.029785,1.003418,0.304878,1.341463,-0.548781,-5.181250,18.068750,19.737501,31.220,0.56835614,-0.00976469,-0.02881888,-0.82221981
'00:18:08.147,0.061523,0.029297,1.004883,0.304878,1.341463,-0.548781,-5.181250,18.068750,19.737501,31.175,0.56834452,-0.00976700,-0.02880722,-0.82222823
'00:18:08.154,0.060547,0.029297,1.004883,0.365854,1.341463,-0.548781,-4.793750,17.481251,19.400000,31.175,0.56834802,-0.00977244,-0.02881289,-0.82222554
'00:18:08.165,0.060059,0.029297,1.003418,0.365854,1.341463,-0.609756,-4.793750,17.481251,19.400000,31.175,0.56834869,-0.00977807,-0.02882027,-0.82222475
'00:18:08.174,0.058594,0.030273,1.004395,0.365854,1.341463,-0.609756,-4.781250,17.525000,19.425001,31.190,0.56835073,-0.00977286,-0.02882752,-0.82222315
'00:18:08.187,0.058594,0.030762,1.003906,0.304878,1.341463,-0.609756,-4.818750,17.481251,19.400000,31.220,0.56834881,-0.00976306,-0.02883088,-0.82222448
'00:18:08.194,0.059570,0.029785,1.003906,0.365854,1.341463,-0.548781,-4.818750,17.481251,19.400000,31.175,0.56835100,-0.00976240,-0.02883444,-0.82222285
'00:18:08.204,0.059570,0.029297,1.003906,0.365854,1.280488,-0.548781,-4.818750,17.481251,19.400000,31.235,0.56835407,-0.00976776,-0.02883971,-0.82222047
'00:18:08.214,0.059082,0.030273,1.003418,0.304878,1.280488,-0.548781,-5.075000,17.950001,19.625000,31.220,0.56834951,-0.00976138,-0.02883548,-0.82222385
'00:18:08.224,0.060059,0.029785,1.004395,0.365854,1.341463,-0.609756,-5.075000,17.950001,19.625000,31.159,0.56834090,-0.00975457,-0.02883336,-0.82222996
'00:18:08.234,0.060059,0.029297,1.003906,0.304878,1.280488,-0.548781,-5.075000,17.956251,19.618750,31.220,0.56833676,-0.00975749,-0.02882755,-0.82223299
'00:18:08.244,0.059570,0.030273,1.004395,0.365854,1.341463,-0.548781,-5.075000,17.956251,19.618750,31.190,0.56833267,-0.00974647,-0.02882658,-0.82223598
'00:18:08.254,0.061035,0.028809,1.003906,0.304878,1.280488,-0.548781,-4.893750,17.706251,19.493750,31.220,0.56833559,-0.00976389,-0.02882997,-0.82223364
'00:18:08.267,0.060059,0.029297,1.004395,0.304878,1.280488,-0.548781,-4.768750,17.543751,19.325001,31.190,0.56834646,-0.00978308,-0.02884083,-0.82222551
'00:18:08.274,0.058594,0.028320,1.003906,0.365854,1.280488,-0.548781,-4.768750,17.543751,19.325001,31.235,0.56835249,-0.00978814,-0.02884182,-0.82222126
'00:18:08.284,0.058594,0.028809,1.004395,0.426829,1.280488,-0.548781,-4.800000,17.531250,19.325001,31.205,0.56835851,-0.00978811,-0.02884742,-0.82221689
'00:18:08.294,0.057617,0.029785,1.003906,0.365854,1.341463,-0.548781,-4.800000,17.531250,19.325001,31.220,0.56836444,-0.00977752,-0.02884747,-0.82221292
'00:18:08.304,0.058594,0.029297,1.004395,0.304878,1.341463,-0.548781,-4.812500,17.462500,19.331251,31.190,0.56836784,-0.00977563,-0.02884128,-0.82221081
'00:18:08.314,0.058594,0.029297,1.004883,0.304878,1.341463,-0.548781,-4.812500,17.462500,19.331251,31.159,0.56837125,-0.00977367,-0.02883499,-0.82220870
'00:18:08.324,0.059082,0.028809,1.004883,0.304878,1.280488,-0.548781,-5.118750,17.981251,19.662500,31.190,0.56836460,-0.00977049,-0.02881948,-0.82221387
'00:18:08.335,0.059570,0.028809,1.004395,0.365854,1.341463,-0.609756,-5.118750,17.981251,19.662500,31.265,0.56835276,-0.00976183,-0.02880651,-0.82222262
'00:18:08.346,0.059570,0.030273,1.003906,0.365854,1.341463,-0.609756,-5.006250,17.831251,19.568750,31.235,0.56834551,-0.00975196,-0.02880855,-0.82222768
'00:18:08.354,0.061035,0.030273,1.003418,0.304878,1.341463,-0.548781,-5.006250,17.831251,19.568750,31.235,0.56834368,-0.00975393,-0.02881112,-0.82222882
'00:18:08.364,0.060547,0.029785,1.004883,0.304878,1.280488,-0.548781,-4.837500,17.606251,19.375000,31.205,0.56834842,-0.00976625,-0.02882021,-0.82222508
'00:18:08.374,0.059570,0.028320,1.002441,0.365854,1.280488,-0.548781,-4.837500,17.606251,19.375000,31.190,0.56835349,-0.00977623,-0.02882239,-0.82222138
'00:18:08.384,0.060059,0.029785,1.003906,0.304878,1.341463,-0.609756,-4.800000,17.506250,19.343750,31.250,0.56835431,-0.00978202,-0.02882738,-0.82222058
'00:18:08.394,0.059082,0.030273,1.004395,0.365854,1.341463,-0.609756,-4.800000,17.506250,19.343750,31.190,0.56835509,-0.00977723,-0.02883545,-0.82221981
'00:18:08.404,0.058594,0.030273,1.005371,0.304878,1.341463,-0.548781,-4.800000,17.575001,19.425001,31.220,0.56836151,-0.00977393,-0.02883816,-0.82221532
'00:18:08.414,0.059570,0.029297,1.003418,0.365854,1.341463,-0.548781,-4.800000,17.575001,19.425001,31.235,0.56836811,-0.00977734,-0.02884417,-0.82221050
'00:18:08.424,0.058594,0.028809,1.003418,0.365854,1.280488,-0.548781,-5.137500,17.987501,19.681250,31.190,0.56836033,-0.00976779,-0.02883031,-0.82221648
'00:18:08.434,0.059570,0.029785,1.003906,0.365854,1.341463,-0.548781,-5.137500,17.987501,19.681250,31.220,0.56835255,-0.00975551,-0.02882263,-0.82222227
'00:18:08.444,0.059082,0.030762,1.003418,0.365854,1.341463,-0.609756,-5.193750,18.043751,19.693750,31.190,0.56833782,-0.00973463,-0.02881609,-0.82223293
'00:18:08.454,0.060059,0.029785,1.003906,0.304878,1.341463,-0.548781,-5.193750,18.043751,19.693750,31.159,0.56832769,-0.00972620,-0.02880343,-0.82224047
'00:18:08.464,0.061035,0.029785,1.003906,0.365854,1.341463,-0.548781,-4.793750,17.475000,19.287500,31.205,0.56833303,-0.00973517,-0.02881686,-0.82223621
'00:18:08.474,0.059570,0.029297,1.004883,0.365854,1.341463,-0.548781,-4.793750,17.475000,19.287500,31.175,0.56833847,-0.00973759,-0.02882122,-0.82223226
'00:18:08.484,0.059570,0.028809,1.004395,0.365854,1.341463,-0.548781,-4.806250,17.487501,19.393751,31.175,0.56834297,-0.00974169,-0.02882194,-0.82222909
'00:18:08.494,0.060059,0.030273,1.004395,0.304878,1.341463,-0.548781,-4.806250,17.487501,19.393751,31.220,0.56834705,-0.00974566,-0.02882850,-0.82222598
'00:18:08.505,0.059082,0.028320,1.004395,0.304878,1.280488,-0.548781,-4.787500,17.512501,19.393751,31.205,0.56835394,-0.00975893,-0.02882477,-0.82222119
'00:18:08.514,0.059570,0.028809,1.003418,0.365854,1.341463,-0.548781,-5.006250,17.862501,19.625000,31.235,0.56835264,-0.00975673,-0.02881946,-0.82222231
'00:18:08.524,0.060547,0.029297,1.004883,0.365854,1.341463,-0.609756,-5.006250,17.862501,19.625000,31.190,0.56834672,-0.00975731,-0.02881960,-0.82222639
'00:18:08.534,0.060059,0.030273,1.004883,0.304878,1.280488,-0.548781,-5.143750,17.975000,19.762501,31.205,0.56833768,-0.00975287,-0.02881399,-0.82223288
'00:18:08.544,0.060547,0.030273,1.003906,0.304878,1.341463,-0.548781,-5.143750,17.975000,19.762501,31.220,0.56832883,-0.00974702,-0.02880772,-0.82223929
'00:18:08.554,0.060547,0.029785,1.004395,0.365854,1.341463,-0.548781,-4.893750,17.712500,19.443750,31.205,0.56833218,-0.00975041,-0.02881648,-0.82223663
'00:18:08.564,0.059570,0.028809,1.003906,0.365854,1.341463,-0.548781,-4.893750,17.712500,19.443750,31.205,0.56833573,-0.00975227,-0.02881602,-0.82223417
'00:18:08.574,0.060059,0.029297,1.003418,0.365854,1.341463,-0.609756,-4.793750,17.475000,19.331251,31.190,0.56833655,-0.00975742,-0.02882277,-0.82223330
'00:18:08.584,0.059082,0.031250,1.001465,0.304878,1.341463,-0.548781,-4.793750,17.475000,19.331251,31.190,0.56834127,-0.00975290,-0.02883311,-0.82222973
'00:18:08.594,0.060059,0.029785,1.003906,0.304878,1.341463,-0.548781,-4.781250,17.556250,19.431250,31.190,0.56834865,-0.00976133,-0.02884044,-0.82222427
'00:18:08.604,0.059570,0.030762,1.004395,0.365854,1.341463,-0.548781,-4.781250,17.556250,19.431250,31.205,0.56835584,-0.00975989,-0.02885547,-0.82221879
'00:18:08.614,0.059082,0.029785,1.003906,0.365854,1.341463,-0.548781,-4.887500,17.631250,19.462500,31.159,0.56835747,-0.00975427,-0.02885638,-0.82221770
'00:18:08.624,0.059082,0.028809,1.002930,0.365854,1.341463,-0.609756,-4.887500,17.631250,19.462500,31.220,0.56835494,-0.00975262,-0.02885218,-0.82221962
'00:18:08.634,0.059570,0.030762,1.004883,0.365854,1.341463,-0.548781,-5.062500,17.968750,19.693750,31.235,0.56835147,-0.00974066,-0.02885433,-0.82222208
'00:18:08.644,0.058594,0.030762,1.002930,0.365854,1.341463,-0.609756,-5.062500,17.968750,19.693750,31.175,0.56834367,-0.00972379,-0.02885358,-0.82222770
'00:18:08.654,0.061035,0.030273,1.004395,0.304878,1.341463,-0.548781,-4.956250,17.743750,19.600000,31.220,0.56834258,-0.00972830,-0.02885740,-0.82222827
'00:18:08.664,0.060059,0.028809,1.002930,0.304878,1.341463,-0.548781,-4.956250,17.743750,19.600000,31.220,0.56834179,-0.00973342,-0.02884972,-0.82222902
'00:18:08.674,0.059570,0.029785,1.003906,0.304878,1.341463,-0.548781,-4.812500,17.543751,19.400000,31.235,0.56834685,-0.00973720,-0.02885222,-0.82222539
'00:18:08.684,0.059082,0.029297,1.003906,0.304878,1.341463,-0.609756,-4.812500,17.543751,19.400000,31.205,0.56834762,-0.00973996,-0.02885004,-0.82222490
'00:18:08.694,0.059082,0.029297,1.003906,0.304878,1.341463,-0.609756,-4.787500,17.543751,19.462500,31.205,0.56834988,-0.00974442,-0.02884968,-0.82222330
'00:18:08.705,0.058105,0.029785,1.003906,0.365854,1.341463,-0.548781,-4.787500,17.543751,19.462500,31.250,0.56835715,-0.00973794,-0.02885291,-0.82221824
'00:18:08.714,0.057129,0.031250,1.003418,0.365854,1.341463,-0.609756,-4.787500,17.531250,19.431250,31.220,0.56835874,-0.00972223,-0.02885963,-0.82221709
'00:18:08.724,0.059082,0.030273,1.003906,0.365854,1.280488,-0.548781,-4.787500,17.531250,19.431250,31.175,0.56836487,-0.00972428,-0.02887181,-0.82221240
'00:18:08.734,0.059570,0.029297,1.004883,0.304878,1.341463,-0.548781,-5.181250,18.100000,19.731251,31.175,0.56835667,-0.00971642,-0.02885544,-0.82221874
'00:18:08.744,0.059570,0.030273,1.005371,0.365854,1.280488,-0.548781,-5.181250,18.100000,19.731251,31.190,0.56834823,-0.00970624,-0.02885195,-0.82222481
'00:18:08.754,0.060059,0.028320,1.005371,0.365854,1.341463,-0.548781,-5.175000,18.100000,19.731251,31.159,0.56834080,-0.00970231,-0.02883709,-0.82223052
'00:18:08.764,0.060059,0.029297,1.004395,0.304878,1.341463,-0.548781,-5.175000,18.100000,19.731251,31.235,0.56833317,-0.00969799,-0.02882388,-0.82223631
'00:18:08.774,0.059570,0.030762,1.003906,0.365854,1.341463,-0.548781,-4.856250,17.543751,19.312500,31.235,0.56833553,-0.00969258,-0.02883356,-0.82223440
'00:18:08.784,0.058594,0.030762,1.004395,0.365854,1.341463,-0.548781,-4.812500,17.481251,19.387501,31.220,0.56833915,-0.00968369,-0.02884088,-0.82223174
'00:18:08.794,0.059570,0.030762,1.003418,0.304878,1.341463,-0.609756,-4.812500,17.481251,19.387501,31.250,0.56833829,-0.00968343,-0.02884795,-0.82223209
'00:18:08.804,0.060059,0.029297,1.004395,0.304878,1.341463,-0.609756,-4.762500,17.493750,19.325001,31.235,0.56834180,-0.00969458,-0.02885246,-0.82222938
'00:18:08.814,0.060059,0.029785,1.004395,0.304878,1.280488,-0.548781,-4.762500,17.493750,19.325001,31.220,0.56834938,-0.00970814,-0.02886262,-0.82222362
'00:18:08.824,0.060059,0.029297,1.004883,0.304878,1.341463,-0.548781,-5.006250,17.831251,19.587500,31.144,0.56834723,-0.00970936,-0.02885521,-0.82222535
'00:18:08.834,0.058594,0.029297,1.004395,0.365854,1.341463,-0.609756,-5.006250,17.831251,19.587500,31.175,0.56834082,-0.00969948,-0.02884693,-0.82223019
'00:18:08.845,0.059570,0.029785,1.002441,0.426829,1.341463,-0.609756,-5.037500,17.881250,19.537500,31.220,0.56833292,-0.00968833,-0.02884967,-0.82223569
'00:18:08.854,0.060547,0.029297,1.002441,0.365854,1.341463,-0.548781,-5.037500,17.881250,19.537500,31.235,0.56833045,-0.00968872,-0.02884883,-0.82223742
'00:18:08.864,0.060059,0.029297,1.002930,0.365854,1.341463,-0.487805,-4.818750,17.568750,19.387501,31.220,0.56834033,-0.00969511,-0.02885542,-0.82223029
'00:18:08.874,0.060547,0.028809,1.003906,0.304878,1.341463,-0.548781,-4.818750,17.568750,19.387501,31.205,0.56834582,-0.00970863,-0.02885627,-0.82222630
'00:18:08.884,0.059082,0.029297,1.004395,0.304878,1.341463,-0.548781,-4.887500,17.618750,19.418751,31.190,0.56834752,-0.00970836,-0.02884978,-0.82222536
'00:18:08.894,0.059570,0.029785,1.004883,0.365854,1.341463,-0.548781,-4.887500,17.618750,19.418751,31.144,0.56834915,-0.00970576,-0.02885220,-0.82222417
'00:18:08.904,0.059570,0.030273,1.004883,0.365854,1.341463,-0.609756,-4.812500,17.568750,19.325001,31.190,0.56835072,-0.00970475,-0.02886226,-0.82222274
'00:18:08.914,0.059082,0.028809,1.003906,0.304878,1.280488,-0.609756,-4.812500,17.568750,19.325001,31.220,0.56835239,-0.00971440,-0.02886100,-0.82222152
'00:18:08.924,0.059570,0.030273,1.003418,0.365854,1.341463,-0.609756,-4.856250,17.625000,19.412500,31.205,0.56835183,-0.00971189,-0.02886921,-0.82222165
'00:18:08.934,0.059082,0.029297,1.002441,0.365854,1.341463,-0.609756,-4.856250,17.625000,19.412500,31.190,0.56835148,-0.00971074,-0.02887025,-0.82222187
'00:18:08.944,0.059570,0.029785,1.004883,0.365854,1.280488,-0.548781,-5.218750,18.118750,19.750000,31.235,0.56834105,-0.00970079,-0.02886172,-0.82222950
'00:18:08.954,0.061035,0.029297,1.005859,0.365854,1.341463,-0.548781,-5.218750,18.118750,19.750000,31.175,0.56833091,-0.00969619,-0.02885281,-0.82223687
'00:18:08.964,0.059082,0.029785,1.004883,0.365854,1.341463,-0.609756,-4.950000,17.706251,19.493750,31.175,0.56832573,-0.00968861,-0.02885056,-0.82224062
'00:18:08.974,0.059082,0.028809,1.004395,0.365854,1.341463,-0.548781,-4.950000,17.706251,19.493750,31.190,0.56832516,-0.00968523,-0.02884302,-0.82224132
'00:18:08.984,0.059082,0.029785,1.004395,0.365854,1.341463,-0.548781,-4.775000,17.506250,19.343750,31.205,0.56833241,-0.00968562,-0.02885024,-0.82223605
'00:18:08.994,0.058594,0.029297,1.002441,0.304878,1.341463,-0.609756,-4.775000,17.506250,19.343750,31.205,0.56833531,-0.00968846,-0.02884908,-0.82223405
'00:18:09.004,0.059082,0.030273,1.003906,0.243902,1.280488,-0.609756,-4.843750,17.575001,19.362501,31.159,0.56833453,-0.00969395,-0.02884967,-0.82223451
'00:18:09.014,0.060059,0.030762,1.002441,0.365854,1.341463,-0.609756,-4.843750,17.575001,19.362501,31.235,0.56833385,-0.00969273,-0.02886308,-0.82223452
'00:18:09.024,0.060059,0.028809,1.003418,0.304878,1.341463,-0.548781,-4.762500,17.487501,19.350000,31.220,0.56834153,-0.00970602,-0.02886468,-0.82222900
'00:18:09.034,0.060547,0.028320,1.004395,0.304878,1.280488,-0.548781,-5.131250,17.968750,19.662500,31.190,0.56833399,-0.00971291,-0.02885072,-0.82223462
'00:18:09.044,0.060547,0.027832,1.004395,0.365854,1.280488,-0.548781,-5.131250,17.968750,19.662500,31.220,0.56832664,-0.00971859,-0.02883867,-0.82224006
'00:18:09.054,0.060547,0.029297,1.003418,0.426829,1.341463,-0.548781,-5.037500,17.850000,19.606251,31.220,0.56832292,-0.00971515,-0.02884094,-0.82224259
'00:18:09.064,0.061035,0.029785,1.004395,0.304878,1.402439,-0.609756,-5.037500,17.850000,19.606251,31.175,0.56831479,-0.00971385,-0.02883567,-0.82224841
'00:18:09.074,0.060059,0.030762,1.002930,0.304878,1.341463,-0.548781,-4.806250,17.581251,19.375000,31.175,0.56832119,-0.00971792,-0.02884781,-0.82224351
'00:18:09.084,0.059082,0.030273,1.003906,0.365854,1.341463,-0.609756,-4.806250,17.581251,19.375000,31.205,0.56832337,-0.00971501,-0.02885720,-0.82224171
'00:18:09.094,0.058594,0.030273,1.002930,0.304878,1.341463,-0.548781,-4.818750,17.550001,19.393751,31.144,0.56832816,-0.00971164,-0.02885873,-0.82223838
'00:18:09.104,0.058594,0.030273,1.002441,0.365854,1.341463,-0.609756,-4.818750,17.550001,19.393751,31.235,0.56832862,-0.00970522,-0.02886484,-0.82223793
'00:18:09.114,0.059082,0.031250,1.003906,0.304878,1.341463,-0.548781,-4.812500,17.525000,19.350000,31.205,0.56833321,-0.00970054,-0.02887329,-0.82223451
'00:18:09.124,0.060059,0.030762,1.004395,0.304878,1.341463,-0.548781,-4.812500,17.525000,19.350000,31.220,0.56833785,-0.00970315,-0.02888239,-0.82223096
'00:18:09.134,0.060059,0.028809,1.004883,0.304878,1.280488,-0.548781,-4.931250,17.700001,19.500000,31.205,0.56833803,-0.00971318,-0.02887774,-0.82223088
'00:18:09.144,0.060547,0.028320,1.003906,0.304878,1.280488,-0.487805,-4.931250,17.700001,19.500000,31.220,0.56834264,-0.00972803,-0.02887260,-0.82222769
'00:18:09.154,0.061523,0.028809,1.002930,0.304878,1.341463,-0.609756,-4.950000,17.750000,19.518751,31.190,0.56833832,-0.00974121,-0.02887120,-0.82223057
'00:18:09.164,0.060547,0.030762,1.004395,0.243902,1.280488,-0.548781,-4.950000,17.750000,19.518751,31.205,0.56833779,-0.00974848,-0.02887506,-0.82223072
'00:18:09.174,0.060547,0.028809,1.003418,0.304878,1.341463,-0.548781,-4.837500,17.587500,19.456251,31.220,0.56834201,-0.00976059,-0.02887451,-0.82222768
'00:18:09.184,0.061035,0.029297,1.004395,0.304878,1.341463,-0.609756,-4.837500,17.587500,19.456251,31.205,0.56834170,-0.00977291,-0.02887827,-0.82222761
'00:18:09.194,0.058594,0.029297,1.005371,0.304878,1.341463,-0.548781,-4.781250,17.556250,19.375000,31.190,0.56834938,-0.00977426,-0.02887590,-0.82222237
'00:18:09.204,0.059082,0.029297,1.004883,0.365854,1.341463,-0.548781,-4.781250,17.556250,19.375000,31.205,0.56835706,-0.00977538,-0.02888000,-0.82221690
'00:18:09.214,0.058594,0.029297,1.003906,0.365854,1.341463,-0.548781,-4.800000,17.531250,19.375000,31.159,0.56836281,-0.00977243,-0.02888042,-0.82221295
'00:18:09.224,0.058594,0.029785,1.003906,0.365854,1.341463,-0.548781,-4.800000,17.531250,19.375000,31.190,0.56836844,-0.00976757,-0.02888359,-0.82220901
'00:18:09.234,0.058105,0.030762,1.003906,0.365854,1.341463,-0.548781,-4.793750,17.531250,19.431250,31.220,0.56837406,-0.00975668,-0.02889074,-0.82220500
'00:18:09.244,0.059082,0.029297,1.003906,0.304878,1.341463,-0.548781,-4.793750,17.531250,19.431250,31.190,0.56837990,-0.00976024,-0.02888882,-0.82220099
'00:18:09.254,0.059570,0.028320,1.003418,0.304878,1.341463,-0.548781,-4.993750,17.787500,19.500000,31.175,0.56837790,-0.00976187,-0.02887416,-0.82220287
'00:18:09.264,0.060547,0.029785,1.004883,0.304878,1.341463,-0.609756,-4.993750,17.787500,19.500000,31.220,0.56837123,-0.00976271,-0.02887115,-0.82220757
'00:18:09.274,0.061035,0.029297,1.004883,0.365854,1.280488,-0.548781,-5.043750,17.893751,19.631250,31.235,0.56836753,-0.00976846,-0.02887312,-0.82220999
'00:18:09.284,0.059082,0.028320,1.003906,0.365854,1.341463,-0.609756,-5.043750,17.893751,19.631250,31.205,0.56835987,-0.00976293,-0.02885956,-0.82221583
'00:18:09.294,0.059570,0.029297,1.004395,0.304878,1.341463,-0.548781,-4.831250,17.581251,19.343750,31.159,0.56836472,-0.00976720,-0.02885840,-0.82221247
'00:18:09.304,0.058105,0.029785,1.002441,0.365854,1.341463,-0.609756,-4.775000,17.481251,19.343750,31.190,0.56836672,-0.00976064,-0.02886151,-0.82221105
'00:18:09.314,0.058594,0.030273,1.002930,0.365854,1.341463,-0.548781,-4.775000,17.481251,19.343750,31.235,0.56837298,-0.00975502,-0.02886901,-0.82220653
'00:18:09.324,0.058594,0.030273,1.003418,0.365854,1.341463,-0.548781,-4.906250,17.637501,19.500000,31.220,0.56837315,-0.00974392,-0.02886932,-0.82220653
'00:18:09.334,0.058594,0.029297,1.004883,0.304878,1.280488,-0.548781,-4.906250,17.637501,19.500000,31.205,0.56837335,-0.00974391,-0.02886218,-0.82220665
'00:18:09.344,0.060059,0.028809,1.003906,0.365854,1.341463,-0.548781,-5.168750,18.050001,19.775000,31.220,0.56836472,-0.00973759,-0.02884937,-0.82221313
'00:18:09.354,0.060059,0.029297,1.003418,0.365854,1.341463,-0.609756,-5.168750,18.050001,19.775000,31.159,0.56835168,-0.00972949,-0.02883975,-0.82222258
'00:18:09.364,0.060547,0.029297,1.005371,0.304878,1.341463,-0.548781,-4.956250,17.837500,19.637501,31.235,0.56835285,-0.00973621,-0.02883816,-0.82222175
'00:18:09.374,0.060547,0.028809,1.004883,0.304878,1.341463,-0.609756,-4.956250,17.837500,19.637501,31.175,0.56834973,-0.00974470,-0.02883408,-0.82222395
'00:18:09.384,0.060547,0.030273,1.003906,0.365854,1.341463,-0.548781,-4.818750,17.562500,19.337500,31.144,0.56835495,-0.00974845,-0.02884780,-0.82221982
'00:18:09.395,0.060547,0.030273,1.002930,0.365854,1.341463,-0.548781,-4.818750,17.562500,19.337500,31.190,0.56836062,-0.00975270,-0.02886304,-0.82221531
'00:18:09.404,0.060059,0.029785,1.003418,0.304878,1.341463,-0.548781,-4.806250,17.525000,19.412500,31.175,0.56836498,-0.00975845,-0.02886690,-0.82221209
'00:18:09.414,0.059082,0.029785,1.004395,0.365854,1.341463,-0.548781,-4.806250,17.525000,19.412500,31.190,0.56836990,-0.00975607,-0.02887128,-0.82220857
'00:18:09.424,0.059082,0.029785,1.004395,0.365854,1.341463,-0.548781,-4.818750,17.512501,19.350000,31.190,0.56837388,-0.00975259,-0.02887445,-0.82220574
'00:18:09.434,0.059570,0.029297,1.004395,0.365854,1.341463,-0.548781,-4.818750,17.512501,19.350000,31.205,0.56837794,-0.00975377,-0.02887668,-0.82220284
'00:18:09.444,0.060059,0.029785,1.003418,0.304878,1.341463,-0.548781,-4.975000,17.725000,19.531250,31.205,0.56837533,-0.00975287,-0.02887213,-0.82220482
'00:18:09.454,0.059570,0.029297,1.004395,0.304878,1.341463,-0.548781,-4.975000,17.725000,19.531250,31.235,0.56837286,-0.00975101,-0.02886266,-0.82220688
'00:18:09.464,0.059082,0.028320,1.005371,0.365854,1.341463,-0.548781,-5.187500,18.075001,19.762501,31.190,0.56836375,-0.00974008,-0.02884215,-0.82221403
'00:18:09.475,0.058594,0.029785,1.003906,0.365854,1.341463,-0.609756,-5.187500,18.075001,19.762501,31.220,0.56834869,-0.00971940,-0.02882755,-0.82222520
'00:18:09.484,0.060547,0.030762,1.003906,0.304878,1.341463,-0.609756,-4.837500,17.562500,19.350000,31.220,0.56834814,-0.00972298,-0.02883728,-0.82222519
'00:18:09.494,0.059570,0.028809,1.004395,0.365854,1.341463,-0.548781,-4.837500,17.562500,19.350000,31.235,0.56835239,-0.00972621,-0.02883725,-0.82222222
'00:18:09.504,0.060547,0.028320,1.003418,0.304878,1.341463,-0.609756,-4.793750,17.543751,19.325001,31.190,0.56835497,-0.00974215,-0.02883728,-0.82222025
'00:18:09.514,0.060547,0.028809,1.003418,0.365854,1.280488,-0.548781,-4.793750,17.543751,19.325001,31.205,0.56836167,-0.00975742,-0.02884739,-0.82221508
'00:18:09.524,0.059082,0.030273,1.003906,0.304878,1.341463,-0.609756,-4.862500,17.525000,19.487501,31.220,0.56835787,-0.00975287,-0.02884615,-0.82221780
'00:18:09.534,0.059570,0.029297,1.005371,0.304878,1.341463,-0.609756,-4.862500,17.525000,19.487501,31.220,0.56835429,-0.00975467,-0.02884070,-0.82222044
'00:18:09.544,0.059570,0.029785,1.003418,0.304878,1.341463,-0.548781,-5.031250,17.825001,19.562500,31.220,0.56835026,-0.00974933,-0.02883303,-0.82222357
'00:18:09.554,0.059082,0.028809,1.003418,0.365854,1.341463,-0.548781,-5.025000,17.806250,19.643751,31.175,0.56834617,-0.00974251,-0.02882230,-0.82222685
'00:18:09.564,0.057129,0.029297,1.003906,0.365854,1.341463,-0.609756,-5.025000,17.806250,19.643751,31.190,0.56833772,-0.00972288,-0.02880684,-0.82223347
'00:18:09.574,0.060547,0.029297,1.002441,0.365854,1.341463,-0.548781,-4.956250,17.762501,19.562500,31.235,0.56833758,-0.00972618,-0.02880977,-0.82223342
'00:18:09.584,0.060059,0.029297,1.003418,0.365854,1.280488,-0.548781,-4.956250,17.762501,19.562500,31.190,0.56833730,-0.00973090,-0.02881340,-0.82223343
'00:18:09.595,0.060059,0.029297,1.004395,0.304878,1.341463,-0.548781,-4.806250,17.518751,19.387501,31.220,0.56834293,-0.00974018,-0.02881555,-0.82222935
'00:18:09.604,0.059570,0.029785,1.004883,0.304878,1.341463,-0.548781,-4.806250,17.518751,19.387501,31.250,0.56834743,-0.00974336,-0.02881787,-0.82222612
'00:18:09.614,0.060059,0.029297,1.004395,0.304878,1.341463,-0.548781,-4.775000,17.568750,19.375000,31.220,0.56835591,-0.00975416,-0.02882339,-0.82221994
'00:18:09.624,0.061035,0.029297,1.003906,0.304878,1.341463,-0.609756,-4.775000,17.568750,19.375000,31.175,0.56835992,-0.00977012,-0.02883279,-0.82221665
'00:18:09.635,0.059082,0.029785,1.003906,0.304878,1.341463,-0.548781,-4.825000,17.543751,19.375000,31.220,0.56836455,-0.00976972,-0.02883262,-0.82221346
'00:18:09.644,0.060547,0.028809,1.003418,0.304878,1.341463,-0.548781,-4.825000,17.543751,19.375000,31.205,0.56836846,-0.00978025,-0.02883275,-0.82221062
'00:18:09.654,0.059082,0.030762,1.002930,0.365854,1.341463,-0.548781,-5.018750,17.825001,19.625000,31.220,0.56836479,-0.00976599,-0.02883406,-0.82221328
'00:18:09.664,0.059082,0.029785,1.002441,0.304878,1.341463,-0.548781,-5.018750,17.825001,19.625000,31.250,0.56836131,-0.00975888,-0.02882572,-0.82221607
'00:18:09.675,0.059082,0.029785,1.003906,0.304878,1.341463,-0.548781,-5.025000,17.912500,19.656250,31.190,0.56835918,-0.00975188,-0.02881781,-0.82221790
'00:18:09.684,0.060547,0.029297,1.004395,0.304878,1.341463,-0.548781,-5.025000,17.912500,19.656250,31.175,0.56835753,-0.00975509,-0.02881387,-0.82221914
'00:18:09.694,0.059570,0.029297,1.004395,0.365854,1.341463,-0.609756,-4.818750,17.587500,19.456251,31.175,0.56835872,-0.00975758,-0.02881875,-0.82221812
'00:18:09.704,0.060059,0.028809,1.003906,0.304878,1.280488,-0.548781,-4.818750,17.587500,19.456251,31.205,0.56836413,-0.00977232,-0.02882145,-0.82221411
'00:18:09.714,0.060059,0.029785,1.004883,0.365854,1.341463,-0.548781,-4.806250,17.475000,19.437500,31.220,0.56836777,-0.00977452,-0.02882888,-0.82221131
'00:18:09.724,0.061035,0.030273,1.003418,0.304878,1.341463,-0.609756,-4.806250,17.475000,19.437500,31.190,0.56836680,-0.00978335,-0.02883903,-0.82221152
'00:18:09.734,0.060547,0.028320,1.003418,0.365854,1.341463,-0.548781,-4.825000,17.537500,19.350000,31.220,0.56837121,-0.00979355,-0.02884055,-0.82220829
'00:18:09.744,0.059570,0.029785,1.002930,0.304878,1.341463,-0.548781,-4.825000,17.537500,19.350000,31.220,0.56837526,-0.00979555,-0.02884238,-0.82220541
'00:18:09.754,0.059570,0.029297,1.003906,0.304878,1.280488,-0.548781,-5.087500,17.918751,19.706251,31.190,0.56836887,-0.00979407,-0.02883230,-0.82221019
'00:18:09.764,0.061035,0.029785,1.004883,0.365854,1.341463,-0.548781,-5.087500,17.918751,19.706251,31.190,0.56836261,-0.00979114,-0.02883168,-0.82221458
'00:18:09.774,0.059570,0.030762,1.003906,0.304878,1.341463,-0.548781,-5.262500,18.231251,19.875000,31.220,0.56835122,-0.00977455,-0.02882112,-0.82222302
'00:18:09.784,0.059570,0.030762,1.003906,0.304878,1.341463,-0.548781,-5.262500,18.231251,19.875000,31.220,0.56833991,-0.00975825,-0.02881080,-0.82223139
'00:18:09.795,0.058105,0.028809,1.003418,0.304878,1.341463,-0.548781,-4.806250,17.550001,19.362501,31.175,0.56834661,-0.00975787,-0.02880287,-0.82222704
'00:18:09.804,0.059082,0.029297,1.003418,0.304878,1.341463,-0.548781,-4.837500,17.568750,19.312500,31.250,0.56835058,-0.00975908,-0.02880072,-0.82222436
'00:18:09.814,0.059570,0.029785,1.004883,0.304878,1.280488,-0.548781,-4.837500,17.568750,19.312500,31.190,0.56835473,-0.00976524,-0.02880544,-0.82222125
'00:18:09.824,0.059082,0.029297,1.004883,0.304878,1.280488,-0.548781,-4.793750,17.493750,19.356251,31.220,0.56836004,-0.00977230,-0.02880690,-0.82221744
'00:18:09.835,0.060059,0.028809,1.005859,0.365854,1.341463,-0.548781,-4.793750,17.493750,19.356251,31.205,0.56836616,-0.00977964,-0.02881062,-0.82221300
'00:18:09.844,0.060547,0.029297,1.006348,0.365854,1.341463,-0.548781,-5.025000,17.843750,19.587500,31.235,0.56836332,-0.00977836,-0.02880864,-0.82221505
'00:18:09.854,0.059082,0.028320,1.004883,0.304878,1.402439,-0.548781,-5.025000,17.843750,19.587500,31.144,0.56836051,-0.00977171,-0.02878863,-0.82221777
'00:18:09.864,0.059570,0.029785,1.002930,0.365854,1.341463,-0.548781,-4.950000,17.743750,19.493750,31.205,0.56836045,-0.00976679,-0.02879069,-0.82221780
'00:18:09.876,0.061035,0.030273,1.002930,0.365854,1.341463,-0.548781,-4.950000,17.743750,19.493750,31.190,0.56836019,-0.00976832,-0.02880315,-0.82221752
'00:18:09.884,0.060059,0.029785,1.002441,0.304878,1.341463,-0.548781,-4.893750,17.737501,19.518751,31.250,0.56836295,-0.00977176,-0.02880607,-0.82221547
'00:18:09.894,0.060059,0.029785,1.002930,0.304878,1.341463,-0.548781,-4.893750,17.737501,19.518751,31.220,0.56836638,-0.00977589,-0.02880947,-0.82221293
'00:18:09.904,0.060059,0.029297,1.004883,0.304878,1.341463,-0.548781,-4.812500,17.543751,19.356251,31.235,0.56837163,-0.00978331,-0.02881131,-0.82220915
'00:18:09.914,0.059082,0.028809,1.005371,0.304878,1.341463,-0.548781,-4.812500,17.543751,19.356251,31.159,0.56837699,-0.00978701,-0.02880634,-0.82220558
'00:18:09.924,0.060547,0.030273,1.004883,0.304878,1.341463,-0.548781,-4.875000,17.643751,19.400000,31.205,0.56837981,-0.00979074,-0.02881299,-0.82220335
'00:18:09.934,0.059570,0.029297,1.003906,0.365854,1.402439,-0.609756,-4.875000,17.643751,19.400000,31.220,0.56837868,-0.00978550,-0.02881204,-0.82220423
'00:18:09.944,0.059082,0.029785,1.003418,0.365854,1.341463,-0.609756,-4.812500,17.550001,19.381250,31.220,0.56837951,-0.00978269,-0.02881787,-0.82220348
'00:18:09.956,0.061035,0.030273,1.002930,0.243902,1.280488,-0.609756,-4.812500,17.550001,19.381250,31.220,0.56837996,-0.00980265,-0.02883051,-0.82220248
'00:18:09.964,0.059570,0.029785,1.003906,0.304878,1.341463,-0.609756,-4.981250,17.743750,19.556250,31.220,0.56837432,-0.00979901,-0.02882572,-0.82220660
'00:18:09.974,0.061035,0.029785,1.004395,0.365854,1.341463,-0.609756,-4.981250,17.743750,19.556250,31.235,0.56836730,-0.00979945,-0.02882962,-0.82221131
'00:18:09.985,0.060059,0.029297,1.005371,0.304878,1.341463,-0.609756,-5.200000,18.131250,19.831251,31.220,0.56835240,-0.00979183,-0.02881309,-0.82222228
'00:18:09.996,0.060059,0.028809,1.004883,0.304878,1.341463,-0.548781,-5.200000,18.131250,19.831251,31.235,0.56834251,-0.00978676,-0.02879411,-0.82222984
'00:18:10.004,0.060059,0.028320,1.003906,0.365854,1.341463,-0.487805,-4.868750,17.600000,19.425001,31.220,0.56834818,-0.00979158,-0.02879261,-0.82222592
'00:18:10.014,0.060059,0.028809,1.003418,0.365854,1.341463,-0.548781,-4.868750,17.600000,19.425001,31.205,0.56835077,-0.00979556,-0.02879375,-0.82222404
'00:18:10.025,0.061035,0.029785,1.001953,0.304878,1.280488,-0.548781,-4.781250,17.525000,19.381250,31.175,0.56835802,-0.00981476,-0.02881006,-0.82221822
'00:18:10.036,0.059570,0.029297,1.004395,0.304878,1.341463,-0.548781,-4.812500,17.550001,19.425001,31.205,0.56836361,-0.00981976,-0.02881014,-0.82221430
'00:18:10.044,0.060059,0.030762,1.004395,0.365854,1.341463,-0.609756,-4.812500,17.550001,19.425001,31.205,0.56836393,-0.00981831,-0.02882190,-0.82221369
'00:18:10.054,0.059570,0.029785,1.004883,0.365854,1.280488,-0.609756,-4.812500,17.550001,19.425001,31.190,0.56836438,-0.00982193,-0.02883179,-0.82221298
'00:18:10.064,0.059082,0.028809,1.004883,0.304878,1.341463,-0.548781,-4.956250,17.768751,19.512501,31.235,0.56836441,-0.00981991,-0.02882064,-0.82221338
'00:18:10.076,0.060059,0.029297,1.004395,0.365854,1.341463,-0.548781,-5.093750,17.943750,19.662500,31.250,0.56835743,-0.00981182,-0.02881291,-0.82221857
'00:18:10.084,0.060059,0.029297,1.004395,0.365854,1.341463,-0.609756,-5.093750,17.943750,19.662500,31.220,0.56834933,-0.00980643,-0.02880793,-0.82222441
'00:18:10.094,0.059570,0.030273,1.003906,0.365854,1.280488,-0.548781,-4.762500,17.543751,19.418751,31.175,0.56835752,-0.00981172,-0.02882506,-0.82221809
'00:18:10.104,0.059570,0.030273,1.002441,0.304878,1.341463,-0.609756,-4.762500,17.543751,19.418751,31.220,0.56836135,-0.00981568,-0.02883513,-0.82221503
'00:18:10.115,0.060059,0.030273,1.001953,0.304878,1.280488,-0.548781,-4.781250,17.543751,19.387501,31.220,0.56836884,-0.00982664,-0.02884999,-0.82220920
'00:18:10.124,0.060059,0.029297,1.004395,0.365854,1.341463,-0.548781,-4.781250,17.543751,19.387501,31.220,0.56837530,-0.00983177,-0.02885721,-0.82220442
'00:18:10.134,0.059570,0.029297,1.004395,0.304878,1.341463,-0.548781,-4.787500,17.525000,19.437500,31.250,0.56838130,-0.00983717,-0.02885775,-0.82220019
'00:18:10.144,0.060059,0.029297,1.004883,0.304878,1.280488,-0.548781,-4.787500,17.525000,19.437500,31.250,0.56838711,-0.00984946,-0.02886297,-0.82219585
'00:18:10.156,0.060059,0.029785,1.004883,0.304878,1.341463,-0.548781,-4.800000,17.543751,19.431250,31.235,0.56839359,-0.00985572,-0.02886818,-0.82219111
'00:18:10.164,0.060547,0.029297,1.005371,0.365854,1.341463,-0.548781,-4.800000,17.543751,19.431250,31.190,0.56839798,-0.00986102,-0.02887419,-0.82218780
'00:18:10.174,0.060547,0.029297,1.005371,0.365854,1.341463,-0.548781,-5.025000,17.893751,19.587500,31.190,0.56839563,-0.00985906,-0.02887232,-0.82218951
'00:18:10.184,0.060059,0.029297,1.004883,0.365854,1.341463,-0.548781,-5.025000,17.893751,19.587500,31.220,0.56839330,-0.00985460,-0.02886881,-0.82219130
'00:18:10.196,0.058594,0.030273,1.002930,0.304878,1.341463,-0.609756,-4.950000,17.712500,19.487501,31.205,0.56838650,-0.00984107,-0.02886215,-0.82219640
'00:18:10.204,0.058594,0.030273,1.002930,0.304878,1.341463,-0.609756,-4.950000,17.712500,19.487501,31.205,0.56838200,-0.00983224,-0.02885782,-0.82219976
'00:18:10.214,0.059082,0.030273,1.004883,0.304878,1.402439,-0.548781,-4.812500,17.543751,19.356251,31.220,0.56838699,-0.00982504,-0.02885746,-0.82219641
'00:18:10.225,0.058594,0.029785,1.003906,0.304878,1.341463,-0.609756,-4.812500,17.543751,19.356251,31.235,0.56838763,-0.00982123,-0.02885574,-0.82219608
'00:18:10.236,0.060059,0.029785,1.003906,0.304878,1.341463,-0.548781,-4.812500,17.562500,19.381250,31.190,0.56839340,-0.00982695,-0.02886067,-0.82219185
'00:18:10.244,0.060059,0.029785,1.003906,0.304878,1.341463,-0.548781,-4.812500,17.562500,19.381250,31.190,0.56839756,-0.00983103,-0.02886417,-0.82218880
'00:18:10.254,0.059570,0.028809,1.004883,0.365854,1.341463,-0.548781,-4.800000,17.568750,19.431250,31.205,0.56840383,-0.00983497,-0.02886600,-0.82218435
'00:18:10.264,0.062012,0.029297,1.004395,0.365854,1.341463,-0.548781,-4.800000,17.568750,19.431250,31.205,0.56840986,-0.00985052,-0.02888020,-0.82217950
'00:18:10.274,0.061035,0.030762,1.003418,0.365854,1.341463,-0.609756,-5.150000,18.081251,19.693750,31.175,0.56839838,-0.00984153,-0.02888387,-0.82218742
'00:18:10.284,0.059570,0.030273,1.002930,0.304878,1.341463,-0.609756,-5.150000,18.081251,19.693750,31.220,0.56838703,-0.00982976,-0.02887514,-0.82219571
'00:18:10.294,0.059082,0.029297,1.004395,0.304878,1.341463,-0.548781,-4.975000,17.800001,19.550001,31.205,0.56838609,-0.00982511,-0.02886536,-0.82219676
'00:18:10.304,0.061035,0.030273,1.003906,0.365854,1.280488,-0.548781,-4.975000,17.800001,19.550001,31.250,0.56838480,-0.00982890,-0.02887627,-0.82219722
'00:18:10.316,0.059570,0.029785,1.003906,0.304878,1.341463,-0.609756,-4.756250,17.475000,19.331251,31.250,0.56838830,-0.00983412,-0.02888197,-0.82219454
'00:18:10.324,0.059082,0.030273,1.003418,0.304878,1.280488,-0.548781,-4.756250,17.475000,19.331251,31.159,0.56839391,-0.00983749,-0.02888892,-0.82219038
'00:18:10.334,0.059082,0.029785,1.005859,0.365854,1.341463,-0.548781,-4.800000,17.531250,19.400000,31.190,0.56839920,-0.00983391,-0.02889280,-0.82218663
'00:18:10.344,0.059082,0.030273,1.003906,0.304878,1.341463,-0.548781,-4.812500,17.500000,19.306250,31.220,0.56840308,-0.00983041,-0.02889427,-0.82218394
'00:18:10.357,0.060547,0.029297,1.004395,0.365854,1.341463,-0.609756,-4.812500,17.500000,19.306250,31.190,0.56840269,-0.00983719,-0.02890180,-0.82218386
'00:18:10.364,0.060547,0.030273,1.003906,0.243902,1.341463,-0.548781,-5.050000,17.906250,19.631250,31.235,0.56839970,-0.00983701,-0.02889709,-0.82218609
'00:18:10.374,0.060547,0.029785,1.003906,0.365854,1.341463,-0.548781,-5.050000,17.906250,19.631250,31.205,0.56839567,-0.00983262,-0.02889648,-0.82218895
'00:18:10.384,0.060059,0.030273,1.003418,0.365854,1.341463,-0.609756,-5.093750,17.993750,19.693750,31.235,0.56838606,-0.00982252,-0.02889567,-0.82219575
'00:18:10.394,0.060059,0.029297,1.002930,0.365854,1.341463,-0.548781,-5.093750,17.993750,19.693750,31.190,0.56838106,-0.00981662,-0.02888964,-0.82219948
'00:18:10.404,0.058594,0.029297,1.002930,0.365854,1.341463,-0.609756,-4.850000,17.581251,19.375000,31.235,0.56837997,-0.00981063,-0.02888750,-0.82220039
'00:18:10.414,0.058594,0.028320,1.003906,0.304878,1.341463,-0.609756,-4.850000,17.581251,19.375000,31.235,0.56837905,-0.00981138,-0.02887513,-0.82220145
'00:18:10.424,0.059570,0.029297,1.004883,0.426829,1.341463,-0.548781,-4.800000,17.550001,19.318750,31.205,0.56838537,-0.00981012,-0.02888386,-0.82219678
'00:18:10.436,0.060059,0.028809,1.004883,0.365854,1.341463,-0.548781,-4.800000,17.550001,19.318750,31.235,0.56839296,-0.00981775,-0.02888784,-0.82219131
'00:18:10.444,0.060059,0.029297,1.005371,0.304878,1.341463,-0.548781,-4.850000,17.525000,19.487501,31.175,0.56839403,-0.00982117,-0.02888501,-0.82219063
'00:18:10.454,0.060547,0.029785,1.003418,0.365854,1.341463,-0.609756,-4.850000,17.525000,19.487501,31.205,0.56839091,-0.00982343,-0.02889138,-0.82219253
'00:18:10.464,0.060547,0.029785,1.001953,0.304878,1.280488,-0.548781,-4.875000,17.575001,19.425001,31.250,0.56839166,-0.00983247,-0.02889626,-0.82219174
'00:18:10.476,0.060059,0.031250,1.003418,0.304878,1.280488,-0.548781,-4.875000,17.575001,19.425001,31.205,0.56839218,-0.00983262,-0.02890898,-0.82219093
'00:18:10.485,0.060059,0.028809,1.003906,0.365854,1.402439,-0.548781,-5.100000,17.987501,19.625000,31.220,0.56838761,-0.00982414,-0.02889744,-0.82219459
'00:18:10.494,0.059570,0.029785,1.002930,0.365854,1.341463,-0.548781,-5.100000,17.987501,19.625000,31.175,0.56838277,-0.00981417,-0.02889237,-0.82219823
'00:18:10.504,0.058105,0.028809,1.004883,0.304878,1.280488,-0.609756,-4.856250,17.612501,19.362501,31.205,0.56838196,-0.00981442,-0.02888374,-0.82219910
'00:18:10.514,0.060059,0.029297,1.005859,0.365854,1.341463,-0.609756,-4.856250,17.612501,19.362501,31.220,0.56838121,-0.00981595,-0.02888652,-0.82219950
'00:18:10.524,0.059082,0.029297,1.005371,0.426829,1.402439,-0.548781,-4.800000,17.506250,19.387501,31.235,0.56838634,-0.00980700,-0.02888870,-0.82219598
'00:18:10.534,0.059570,0.030762,1.003418,0.304878,1.341463,-0.548781,-4.800000,17.506250,19.387501,31.220,0.56839086,-0.00980591,-0.02889615,-0.82219261
'00:18:10.544,0.058594,0.029297,1.002930,0.304878,1.341463,-0.548781,-4.793750,17.487501,19.318750,31.205,0.56839599,-0.00980521,-0.02889171,-0.82218923
'00:18:10.555,0.059570,0.030273,1.002930,0.304878,1.341463,-0.548781,-4.793750,17.487501,19.318750,31.220,0.56840135,-0.00980618,-0.02889719,-0.82218532
'00:18:10.564,0.060547,0.028320,1.003418,0.304878,1.341463,-0.609756,-4.775000,17.518751,19.356251,31.190,0.56840382,-0.00982008,-0.02889676,-0.82218346
'00:18:10.574,0.060547,0.029785,1.003906,0.304878,1.280488,-0.609756,-4.775000,17.518751,19.356251,31.250,0.56840608,-0.00983377,-0.02890744,-0.82218136
'00:18:10.584,0.060059,0.028809,1.004883,0.304878,1.341463,-0.548781,-5.237500,18.181250,19.812500,31.205,0.56839546,-0.00982674,-0.02888699,-0.82218951
'00:18:10.594,0.059570,0.029297,1.004883,0.304878,1.341463,-0.548781,-4.881250,17.693750,19.462500,31.190,0.56839873,-0.00982861,-0.02888350,-0.82218734
'00:18:10.604,0.060547,0.029785,1.003906,0.304878,1.341463,-0.609756,-4.881250,17.693750,19.462500,31.220,0.56839749,-0.00983397,-0.02888701,-0.82218801
'00:18:10.614,0.058594,0.030762,1.005371,0.365854,1.341463,-0.609756,-4.762500,17.525000,19.412500,31.220,0.56840064,-0.00982605,-0.02889761,-0.82218556
'00:18:10.624,0.059082,0.029785,1.004883,0.365854,1.341463,-0.548781,-4.762500,17.525000,19.412500,31.220,0.56840833,-0.00982509,-0.02890451,-0.82218001
'00:18:10.634,0.058594,0.029785,1.002441,0.304878,1.341463,-0.548781,-4.831250,17.475000,19.381250,31.205,0.56841006,-0.00981987,-0.02889940,-0.82217906
'00:18:10.644,0.059082,0.028809,1.003418,0.304878,1.341463,-0.609756,-4.831250,17.475000,19.381250,31.220,0.56840762,-0.00982097,-0.02889037,-0.82218104
'00:18:10.654,0.058594,0.028809,1.002441,0.365854,1.341463,-0.548781,-4.875000,17.562500,19.412500,31.190,0.56840856,-0.00981531,-0.02888299,-0.82218072
'00:18:10.664,0.060547,0.029785,1.003906,0.304878,1.341463,-0.548781,-4.875000,17.562500,19.412500,31.205,0.56840921,-0.00981944,-0.02888388,-0.82218019
'00:18:10.674,0.059082,0.028320,1.003906,0.243902,1.341463,-0.609756,-5.193750,18.156250,19.812500,31.175,0.56839661,-0.00981445,-0.02885603,-0.82218994
'00:18:10.684,0.059570,0.028809,1.006348,0.304878,1.280488,-0.548781,-5.193750,18.156250,19.812500,31.175,0.56838829,-0.00981137,-0.02883963,-0.82219630
'00:18:10.694,0.060547,0.028320,1.004883,0.304878,1.341463,-0.609756,-5.193750,18.043751,19.737501,31.220,0.56837358,-0.00980959,-0.02881962,-0.82220720
'00:18:10.704,0.060059,0.029297,1.004883,0.304878,1.341463,-0.548781,-5.193750,18.043751,19.737501,31.235,0.56836313,-0.00980171,-0.02880347,-0.82221508
'00:18:10.714,0.060547,0.029785,1.004883,0.365854,1.280488,-0.548781,-4.812500,17.568750,19.418751,31.129,0.56836846,-0.00981142,-0.02881788,-0.82221078
'00:18:10.724,0.059570,0.030273,1.004395,0.365854,1.341463,-0.548781,-4.812500,17.568750,19.418751,31.220,0.56837381,-0.00980933,-0.02882819,-0.82220674
'00:18:10.734,0.059082,0.030273,1.003906,0.365854,1.341463,-0.548781,-4.818750,17.506250,19.343750,31.205,0.56837753,-0.00980317,-0.02883480,-0.82220401
'00:18:10.744,0.058594,0.030762,1.002930,0.304878,1.280488,-0.548781,-4.818750,17.506250,19.343750,31.235,0.56838095,-0.00980002,-0.02884122,-0.82220146
'00:18:10.754,0.058594,0.029785,1.003906,0.304878,1.280488,-0.548781,-4.806250,17.531250,19.343750,31.175,0.56838603,-0.00980168,-0.02884317,-0.82219786
'00:18:10.764,0.059082,0.028320,1.004883,0.304878,1.341463,-0.548781,-4.806250,17.531250,19.343750,31.190,0.56839154,-0.00980721,-0.02883524,-0.82219426
'00:18:10.774,0.060547,0.029297,1.005371,0.304878,1.341463,-0.609756,-5.031250,17.950001,19.668751,31.205,0.56838551,-0.00980963,-0.02883044,-0.82219857
'00:18:10.784,0.059570,0.029297,1.004883,0.365854,1.341463,-0.609756,-5.031250,17.950001,19.668751,31.235,0.56837959,-0.00980380,-0.02882658,-0.82220287
'00:18:10.794,0.060547,0.030273,1.003418,0.304878,1.341463,-0.548781,-5.081250,17.981251,19.631250,31.220,0.56837530,-0.00980051,-0.02882522,-0.82220592
'00:18:10.804,0.061035,0.029785,1.003906,0.304878,1.341463,-0.548781,-5.081250,17.981251,19.631250,31.205,0.56837113,-0.00980171,-0.02882284,-0.82220887
'00:18:10.814,0.060547,0.029785,1.003906,0.304878,1.341463,-0.609756,-4.875000,17.581251,19.356251,31.220,0.56836834,-0.00980620,-0.02882550,-0.82221065
'00:18:10.824,0.060059,0.030273,1.003418,0.365854,1.341463,-0.609756,-4.875000,17.581251,19.356251,31.220,0.56836551,-0.00980310,-0.02883356,-0.82221236
'00:18:10.834,0.060547,0.028320,1.002930,0.304878,1.341463,-0.548781,-4.787500,17.512501,19.306250,31.175,0.56837205,-0.00981801,-0.02883340,-0.82220767
'00:18:10.845,0.059570,0.029785,1.003418,0.304878,1.341463,-0.548781,-4.775000,17.525000,19.381250,31.220,0.56837984,-0.00982302,-0.02883920,-0.82220202
'00:18:10.854,0.058594,0.029785,1.005371,0.304878,1.341463,-0.609756,-4.775000,17.525000,19.381250,31.250,0.56838230,-0.00982160,-0.02883975,-0.82220032
'00:18:10.864,0.060059,0.029297,1.004883,0.365854,1.341463,-0.548781,-4.793750,17.518751,19.325001,31.250,0.56838826,-0.00982594,-0.02884627,-0.82219592
'00:18:10.874,0.060059,0.029297,1.002930,0.365854,1.341463,-0.548781,-4.793750,17.518751,19.325001,31.220,0.56839416,-0.00983060,-0.02885344,-0.82219153
'00:18:10.884,0.060059,0.030273,1.003906,0.426829,1.341463,-0.609756,-4.893750,17.693750,19.493750,31.235,0.56839201,-0.00982467,-0.02886602,-0.82219265
'00:18:10.894,0.061035,0.029297,1.002441,0.304878,1.280488,-0.609756,-4.893750,17.693750,19.493750,31.220,0.56838975,-0.00983876,-0.02887153,-0.82219385
'00:18:10.904,0.061035,0.029297,1.002441,0.304878,1.280488,-0.609756,-4.781250,17.468750,19.431250,31.220,0.56839018,-0.00985640,-0.02888047,-0.82219302
'00:18:10.914,0.060547,0.028320,1.003906,0.304878,1.341463,-0.548781,-4.781250,17.468750,19.431250,31.220,0.56839533,-0.00987037,-0.02887807,-0.82218938
'00:18:10.924,0.059570,0.028809,1.002930,0.365854,1.341463,-0.609756,-4.837500,17.668751,19.525000,31.144,0.56839649,-0.00987328,-0.02887969,-0.82218849
'00:18:10.934,0.060547,0.028809,1.005859,0.365854,1.280488,-0.548781,-4.837500,17.668751,19.525000,31.159,0.56840184,-0.00988544,-0.02888688,-0.82218439
'00:18:10.944,0.060547,0.029297,1.002930,0.365854,1.341463,-0.609756,-4.800000,17.550001,19.437500,31.190,0.56840296,-0.00989203,-0.02889516,-0.82218325
'00:18:10.954,0.059570,0.029785,1.000977,0.365854,1.341463,-0.548781,-4.800000,17.550001,19.437500,31.220,0.56840833,-0.00989170,-0.02890302,-0.82217926
'00:18:10.964,0.059082,0.031250,1.002930,0.304878,1.341463,-0.548781,-4.825000,17.612501,19.337500,31.190,0.56841351,-0.00988452,-0.02891177,-0.82217546
'00:18:10.974,0.058594,0.029785,1.004883,0.243902,1.341463,-0.609756,-4.825000,17.612501,19.337500,31.144,0.56841459,-0.00988295,-0.02890511,-0.82217496
'00:18:10.984,0.059082,0.028809,1.003418,0.243902,1.280488,-0.548781,-4.818750,17.575001,19.437500,31.205,0.56841920,-0.00989293,-0.02889775,-0.82217191
'00:18:10.994,0.059570,0.028320,1.004883,0.365854,1.341463,-0.548781,-4.818750,17.575001,19.437500,31.235,0.56842415,-0.00989666,-0.02889474,-0.82216856
'00:18:11.004,0.059570,0.029785,1.003418,0.365854,1.402439,-0.609756,-4.862500,17.556250,19.400000,31.235,0.56842121,-0.00988730,-0.02889392,-0.82217073
'00:18:11.014,0.060059,0.028809,1.004395,0.304878,1.341463,-0.548781,-4.862500,17.556250,19.400000,31.190,0.56842267,-0.00989195,-0.02888771,-0.82216989
'00:18:11.024,0.059570,0.029785,1.002930,0.304878,1.341463,-0.609756,-4.918750,17.650000,19.456251,31.190,0.56841766,-0.00988822,-0.02888365,-0.82217353
'00:18:11.034,0.060059,0.028320,1.003906,0.365854,1.341463,-0.548781,-4.918750,17.650000,19.456251,31.205,0.56841741,-0.00988990,-0.02887724,-0.82217391
'00:18:11.044,0.059082,0.028809,1.001465,0.365854,1.341463,-0.548781,-4.775000,17.518751,19.387501,31.190,0.56842423,-0.00989162,-0.02887899,-0.82216912
'00:18:11.054,0.057617,0.029785,1.002930,0.243902,1.341463,-0.609756,-4.775000,17.518751,19.387501,31.205,0.56842641,-0.00988678,-0.02887129,-0.82216794
'00:18:11.064,0.059082,0.029297,1.005371,0.304878,1.341463,-0.609756,-4.737500,17.462500,19.362501,31.205,0.56843013,-0.00989012,-0.02887171,-0.82216531
'00:18:11.075,0.060547,0.028320,1.006348,0.304878,1.341463,-0.548781,-5.081250,17.962500,19.668751,31.205,0.56842480,-0.00989226,-0.02885529,-0.82216955
'00:18:11.084,0.061035,0.029785,1.003906,0.365854,1.341463,-0.609756,-5.081250,17.962500,19.668751,31.220,0.56841630,-0.00988895,-0.02885592,-0.82217544
'00:18:11.094,0.059082,0.029785,1.003418,0.365854,1.341463,-0.548781,-5.081250,17.962500,19.668751,31.175,0.56841129,-0.00987497,-0.02884936,-0.82217930
'00:18:11.104,0.060059,0.030762,1.002930,0.365854,1.341463,-0.548781,-5.268750,18.200001,19.837500,31.205,0.56839863,-0.00985594,-0.02884372,-0.82218848
'00:18:11.114,0.059082,0.029785,1.003906,0.365854,1.341463,-0.548781,-4.831250,17.543751,19.400000,31.190,0.56840206,-0.00985080,-0.02884692,-0.82218606
'00:18:11.124,0.059570,0.029785,1.003906,0.365854,1.341463,-0.548781,-4.831250,17.543751,19.400000,31.220,0.56840545,-0.00984844,-0.02885196,-0.82218356
'00:18:11.134,0.059570,0.029297,1.003418,0.365854,1.341463,-0.548781,-4.825000,17.625000,19.412500,31.205,0.56841125,-0.00984966,-0.02885675,-0.82217937
'00:18:11.144,0.059570,0.029297,1.003418,0.304878,1.280488,-0.548781,-4.825000,17.625000,19.412500,31.235,0.56841681,-0.00985824,-0.02886009,-0.82217531
'00:18:11.154,0.060547,0.029297,1.004395,0.304878,1.341463,-0.548781,-4.825000,17.618750,19.400000,31.235,0.56842235,-0.00986735,-0.02886359,-0.82217125
'00:18:11.164,0.059082,0.029297,1.004395,0.304878,1.341463,-0.548781,-4.825000,17.618750,19.400000,31.190,0.56842792,-0.00986820,-0.02886133,-0.82216747
'00:18:11.174,0.060547,0.028320,1.004395,0.365854,1.341463,-0.548781,-4.981250,17.800001,19.562500,31.159,0.56842653,-0.00987134,-0.02885557,-0.82216859
'00:18:11.184,0.059570,0.028809,1.004883,0.365854,1.341463,-0.609756,-4.981250,17.800001,19.562500,31.205,0.56842072,-0.00986694,-0.02884877,-0.82217290
'00:18:11.194,0.059570,0.030273,1.004395,0.304878,1.280488,-0.548781,-5.206250,18.112501,19.775000,31.220,0.56841025,-0.00985646,-0.02883929,-0.82218060
'00:18:11.205,0.060059,0.029297,1.003906,0.304878,1.341463,-0.548781,-5.206250,18.112501,19.775000,31.235,0.56839919,-0.00984746,-0.02882208,-0.82218896
'00:18:11.214,0.060547,0.029297,1.003906,0.365854,1.341463,-0.609756,-5.025000,17.843750,19.631250,31.220,0.56839201,-0.00984561,-0.02882054,-0.82219399
'00:18:11.224,0.060059,0.029297,1.004883,0.365854,1.341463,-0.548781,-5.025000,17.843750,19.631250,31.205,0.56838846,-0.00984088,-0.02881658,-0.82219664
'00:18:11.234,0.059570,0.029297,1.003906,0.304878,1.341463,-0.548781,-4.843750,17.550001,19.437500,31.235,0.56839115,-0.00984313,-0.02881411,-0.82219484
'00:18:11.245,0.058594,0.029785,1.003418,0.365854,1.341463,-0.609756,-4.843750,17.550001,19.437500,31.190,0.56838927,-0.00983408,-0.02881539,-0.82219621
'00:18:11.254,0.058594,0.030273,1.003418,0.304878,1.341463,-0.548781,-4.862500,17.543751,19.387501,31.175,0.56839042,-0.00982672,-0.02881362,-0.82219556
'00:18:11.264,0.060059,0.029785,1.003906,0.365854,1.341463,-0.548781,-4.862500,17.543751,19.387501,31.220,0.56839183,-0.00982556,-0.02881876,-0.82219442
'00:18:11.274,0.059570,0.029785,1.003418,0.365854,1.341463,-0.548781,-4.775000,17.531250,19.375000,31.220,0.56839909,-0.00982701,-0.02882872,-0.82218904
'00:18:11.284,0.059570,0.029785,1.003906,0.304878,1.341463,-0.548781,-4.775000,17.531250,19.375000,31.190,0.56840626,-0.00983131,-0.02883392,-0.82218384
'00:18:11.294,0.059570,0.029297,1.003418,0.365854,1.341463,-0.548781,-5.025000,17.800001,19.562500,31.205,0.56840192,-0.00982359,-0.02882756,-0.82218716
'00:18:11.304,0.059570,0.029785,1.005859,0.304878,1.280488,-0.548781,-5.025000,17.800001,19.562500,31.205,0.56839734,-0.00982099,-0.02882175,-0.82219056
'00:18:11.314,0.060059,0.028809,1.005859,0.304878,1.341463,-0.548781,-5.037500,17.900000,19.656250,31.205,0.56839424,-0.00982140,-0.02881067,-0.82219308
'00:18:11.325,0.059570,0.030273,1.002930,0.304878,1.341463,-0.548781,-5.037500,17.900000,19.656250,31.235,0.56839053,-0.00981339,-0.02880690,-0.82219588
'00:18:11.334,0.059570,0.030273,1.004395,0.304878,1.341463,-0.609756,-4.806250,17.575001,19.362501,31.205,0.56839206,-0.00981430,-0.02881308,-0.82219460
'00:18:11.344,0.060059,0.029785,1.004883,0.304878,1.341463,-0.548781,-4.806250,17.575001,19.362501,31.250,0.56839820,-0.00981997,-0.02881870,-0.82219009
'00:18:11.354,0.059570,0.029785,1.006348,0.304878,1.341463,-0.609756,-4.750000,17.537500,19.362501,31.190,0.56840301,-0.00982534,-0.02882532,-0.82218646
'00:18:11.364,0.059570,0.030273,1.003906,0.304878,1.402439,-0.548781,-4.800000,17.550001,19.393751,31.205,0.56840885,-0.00982212,-0.02882877,-0.82218235
'00:18:11.374,0.059082,0.029297,1.004395,0.304878,1.341463,-0.548781,-4.800000,17.550001,19.393751,31.190,0.56841474,-0.00982434,-0.02882751,-0.82217829
'00:18:11.384,0.059570,0.028809,1.003906,0.365854,1.280488,-0.609756,-5.031250,17.868750,19.600000,31.220,0.56840702,-0.00982338,-0.02882249,-0.82218381
'00:18:11.394,0.059082,0.028320,1.003906,0.365854,1.341463,-0.609756,-5.031250,17.868750,19.600000,31.205,0.56839960,-0.00981732,-0.02880995,-0.82218945
'00:18:11.406,0.059570,0.028809,1.003418,0.243902,1.219512,-0.609756,-5.100000,17.956251,19.568750,31.265,0.56838722,-0.00982553,-0.02879424,-0.82219847
'00:18:11.414,0.060059,0.030762,1.004395,0.426829,1.402439,-0.609756,-5.100000,17.956251,19.568750,31.190,0.56837917,-0.00980918,-0.02879703,-0.82220413
'00:18:11.424,0.059570,0.029785,1.002930,0.243902,1.280488,-0.548781,-4.825000,17.593750,19.400000,31.220,0.56838417,-0.00981930,-0.02879940,-0.82220047
'00:18:11.434,0.060059,0.030273,1.002441,0.365854,1.341463,-0.548781,-4.825000,17.593750,19.400000,31.159,0.56838925,-0.00981972,-0.02881228,-0.82219650
'00:18:11.444,0.060547,0.028320,1.003906,0.243902,1.341463,-0.548781,-4.806250,17.562500,19.468750,31.220,0.56839488,-0.00983720,-0.02880694,-0.82219259
'00:18:11.454,0.059082,0.029785,1.003418,0.365854,1.341463,-0.548781,-4.806250,17.562500,19.468750,31.220,0.56840031,-0.00983451,-0.02881323,-0.82218864
'00:18:11.464,0.060059,0.029297,1.004395,0.243902,1.280488,-0.548781,-4.781250,17.518751,19.375000,31.250,0.56840664,-0.00985009,-0.02881545,-0.82218401
'00:18:11.474,0.060547,0.029297,1.004395,0.304878,1.402439,-0.609756,-4.781250,17.518751,19.375000,31.250,0.56840888,-0.00985621,-0.02881785,-0.82218230
'00:18:11.484,0.060059,0.029785,1.002930,0.304878,1.280488,-0.548781,-4.831250,17.587500,19.393751,31.220,0.56841313,-0.00986469,-0.02882534,-0.82217900
'00:18:11.494,0.060547,0.029297,1.002930,0.365854,1.402439,-0.548781,-4.831250,17.587500,19.393751,31.250,0.56841778,-0.00986587,-0.02883011,-0.82217560
'00:18:11.504,0.060547,0.030762,1.003906,0.365854,1.280488,-0.548781,-5.162500,18.100000,19.731251,31.235,0.56841004,-0.00985813,-0.02883490,-0.82218088
'00:18:11.514,0.059570,0.031250,1.003906,0.365854,1.341463,-0.548781,-5.162500,18.100000,19.731251,31.220,0.56840240,-0.00983899,-0.02883564,-0.82218636
'00:18:11.524,0.059570,0.029785,1.004395,0.304878,1.341463,-0.548781,-4.987500,17.787500,19.550001,31.144,0.56840020,-0.00983409,-0.02882979,-0.82218815
'00:18:11.534,0.060059,0.028809,1.003906,0.365854,1.341463,-0.548781,-4.987500,17.787500,19.550001,31.205,0.56839827,-0.00983283,-0.02882501,-0.82218966
'00:18:11.544,0.059570,0.027832,1.002930,0.304878,1.341463,-0.548781,-4.831250,17.506250,19.462500,31.144,0.56840094,-0.00984141,-0.02881423,-0.82218809
'00:18:11.554,0.058594,0.029785,1.004395,0.365854,1.341463,-0.548781,-4.831250,17.506250,19.462500,31.220,0.56840330,-0.00983334,-0.02881476,-0.82218654
'00:18:11.565,0.059082,0.029785,1.002930,0.304878,1.341463,-0.548781,-4.793750,17.493750,19.418751,31.220,0.56840857,-0.00983349,-0.02881631,-0.82218284
'00:18:11.574,0.059570,0.030273,1.003418,0.365854,1.280488,-0.548781,-4.793750,17.493750,19.418751,31.220,0.56841266,-0.00983542,-0.02882823,-0.82217957
'00:18:11.584,0.060059,0.029297,1.004395,0.365854,1.402439,-0.609756,-4.831250,17.518751,19.325001,31.220,0.56841168,-0.00983273,-0.02882910,-0.82218025
'00:18:11.594,0.059570,0.028320,1.003418,0.304878,1.280488,-0.609756,-4.831250,17.518751,19.325001,31.235,0.56841056,-0.00984319,-0.02882460,-0.82218105
'00:18:11.604,0.060059,0.029785,1.004883,0.365854,1.280488,-0.609756,-5.062500,17.900000,19.637501,31.220,0.56840110,-0.00983935,-0.02882484,-0.82218763
'00:18:11.614,0.061035,0.029297,1.003906,0.304878,1.280488,-0.548781,-5.062500,17.900000,19.637501,31.190,0.56839606,-0.00984618,-0.02882208,-0.82219113
'00:18:11.624,0.060547,0.030762,1.004395,0.304878,1.341463,-0.548781,-5.143750,17.956251,19.725000,31.220,0.56838646,-0.00983643,-0.02881748,-0.82219805
'00:18:11.634,0.060547,0.029297,1.004395,0.304878,1.341463,-0.548781,-4.737500,17.531250,19.356251,31.205,0.56839646,-0.00985020,-0.02882672,-0.82219065
'00:18:11.644,0.060059,0.029785,1.003418,0.304878,1.341463,-0.548781,-4.737500,17.531250,19.356251,31.220,0.56840629,-0.00985927,-0.02883704,-0.82218338
'00:18:11.654,0.060059,0.029785,1.003418,0.304878,1.341463,-0.548781,-4.806250,17.537500,19.412500,31.220,0.56841114,-0.00986412,-0.02884171,-0.82217980
'00:18:11.664,0.059570,0.029297,1.002930,0.365854,1.341463,-0.609756,-4.806250,17.537500,19.412500,31.250,0.56841176,-0.00986502,-0.02884622,-0.82217921
'00:18:11.674,0.059082,0.030273,1.003418,0.304878,1.341463,-0.609756,-4.812500,17.518751,19.450001,31.190,0.56841109,-0.00986166,-0.02884872,-0.82217962
'00:18:11.684,0.059570,0.030273,1.003906,0.365854,1.341463,-0.548781,-4.812500,17.518751,19.450001,31.190,0.56841483,-0.00985811,-0.02885721,-0.82217678
'00:18:11.694,0.059570,0.029785,1.003418,0.304878,1.341463,-0.609756,-5.162500,18.043751,19.693750,31.205,0.56840186,-0.00984665,-0.02884412,-0.82218635
'00:18:11.704,0.059570,0.029297,1.003418,0.365854,1.280488,-0.609756,-5.162500,18.043751,19.693750,31.220,0.56838896,-0.00983864,-0.02883600,-0.82219564
'00:18:11.715,0.058594,0.028809,1.005371,0.304878,1.341463,-0.548781,-5.118750,18.031250,19.693750,31.205,0.56838279,-0.00982703,-0.02881440,-0.82220080
'00:18:11.725,0.060059,0.029297,1.004395,0.304878,1.280488,-0.548781,-5.118750,18.031250,19.693750,31.220,0.56837697,-0.00982735,-0.02880680,-0.82220509
'00:18:11.734,0.059570,0.029785,1.005371,0.365854,1.341463,-0.548781,-4.831250,17.593750,19.462500,31.220,0.56838105,-0.00982617,-0.02881248,-0.82220209
'00:18:11.744,0.060547,0.029785,1.002930,0.365854,1.341463,-0.609756,-4.831250,17.593750,19.462500,31.235,0.56838112,-0.00983065,-0.02882348,-0.82220159
'00:18:11.754,0.058594,0.028809,1.003418,0.365854,1.341463,-0.548781,-4.868750,17.550001,19.437500,31.220,0.56838229,-0.00982511,-0.02881699,-0.82220108
'00:18:11.764,0.058594,0.030273,1.005371,0.304878,1.341463,-0.609756,-4.868750,17.550001,19.437500,31.190,0.56837876,-0.00981635,-0.02881384,-0.82220374
'00:18:11.775,0.059570,0.029297,1.003418,0.365854,1.341463,-0.548781,-4.825000,17.550001,19.337500,31.205,0.56838376,-0.00981702,-0.02881817,-0.82220012
'00:18:11.784,0.059570,0.029785,1.003906,0.304878,1.341463,-0.609756,-4.825000,17.550001,19.337500,31.220,0.56838375,-0.00981830,-0.02882007,-0.82220005
'00:18:11.794,0.059082,0.029297,1.003906,0.304878,1.341463,-0.548781,-4.750000,17.550001,19.350000,31.205,0.56839344,-0.00982376,-0.02882328,-0.82219317
'00:18:11.804,0.059570,0.030273,1.003418,0.304878,1.341463,-0.548781,-4.750000,17.550001,19.350000,31.235,0.56840285,-0.00982805,-0.02883407,-0.82218624
'00:18:11.814,0.060059,0.028809,1.003906,0.365854,1.341463,-0.609756,-5.018750,17.843750,19.568750,31.205,0.56839567,-0.00982567,-0.02882823,-0.82219143
'00:18:11.824,0.059570,0.030273,1.003418,0.304878,1.280488,-0.548781,-5.018750,17.843750,19.568750,31.190,0.56839240,-0.00982266,-0.02882763,-0.82219375
'00:18:11.834,0.059082,0.030273,1.002441,0.304878,1.341463,-0.548781,-5.012500,17.825001,19.637501,31.235,0.56838901,-0.00981312,-0.02882239,-0.82219639
'00:18:11.844,0.059570,0.028809,1.004395,0.304878,1.341463,-0.548781,-5.012500,17.825001,19.637501,31.235,0.56838596,-0.00981173,-0.02881014,-0.82219894
'00:18:11.854,0.060547,0.029785,1.004395,0.365854,1.341463,-0.548781,-4.818750,17.556250,19.375000,31.250,0.56839079,-0.00981624,-0.02882083,-0.82219518
'00:18:11.864,0.059082,0.029297,1.004883,0.365854,1.341463,-0.609756,-4.818750,17.556250,19.375000,31.190,0.56839137,-0.00981422,-0.02882274,-0.82219474
'00:18:11.874,0.060059,0.029297,1.003418,0.365854,1.341463,-0.548781,-4.768750,17.531250,19.375000,31.235,0.56839916,-0.00982087,-0.02883226,-0.82218893
'00:18:11.884,0.059082,0.030273,1.003418,0.365854,1.280488,-0.548781,-4.812500,17.556250,19.431250,31.220,0.56840388,-0.00982024,-0.02884341,-0.82218529
'00:18:11.894,0.059570,0.029785,1.004883,0.365854,1.341463,-0.548781,-4.812500,17.556250,19.431250,31.220,0.56840882,-0.00981955,-0.02884986,-0.82218166
'00:18:11.904,0.060059,0.028809,1.004883,0.304878,1.341463,-0.548781,-4.912500,17.687500,19.456251,31.205,0.56840995,-0.00982415,-0.02884354,-0.82218104
'00:18:11.914,0.059082,0.029297,1.004395,0.304878,1.341463,-0.548781,-4.912500,17.687500,19.456251,31.220,0.56841100,-0.00982150,-0.02883649,-0.82218059
'00:18:11.925,0.059570,0.029297,1.003418,0.365854,1.341463,-0.609756,-5.093750,17.906250,19.706251,31.280,0.56839846,-0.00981057,-0.02882623,-0.82218976
'00:18:11.934,0.059570,0.029785,1.004883,0.304878,1.341463,-0.548781,-5.093750,17.906250,19.706251,31.205,0.56839207,-0.00980269,-0.02881599,-0.82219463
'00:18:11.944,0.060059,0.028809,1.002930,0.365854,1.341463,-0.609756,-4.806250,17.562500,19.393751,31.205,0.56839366,-0.00980956,-0.02882087,-0.82219327
'00:18:11.954,0.060059,0.029785,1.004395,0.304878,1.280488,-0.548781,-4.806250,17.562500,19.393751,31.175,0.56839920,-0.00981967,-0.02882921,-0.82218903
'00:18:11.965,0.060059,0.029297,1.004883,0.365854,1.341463,-0.548781,-4.806250,17.550001,19.412500,31.220,0.56840517,-0.00982435,-0.02883603,-0.82218461
'00:18:11.974,0.060059,0.029785,1.004883,0.365854,1.341463,-0.548781,-4.806250,17.550001,19.412500,31.175,0.56840993,-0.00982634,-0.02884399,-0.82218102
'00:18:11.984,0.060547,0.029785,1.004883,0.365854,1.341463,-0.609756,-4.850000,17.606251,19.431250,31.205,0.56840900,-0.00982917,-0.02885249,-0.82218132
'00:18:11.994,0.061035,0.029297,1.003418,0.304878,1.341463,-0.548781,-4.850000,17.606251,19.431250,31.220,0.56841244,-0.00984005,-0.02885614,-0.82217868
'00:18:12.006,0.060547,0.029785,1.003418,0.365854,1.341463,-0.548781,-5.281250,18.200001,19.868750,31.220,0.56839643,-0.00982457,-0.02884366,-0.82219038
'00:18:12.014,0.059570,0.030273,1.003418,0.365854,1.341463,-0.609756,-5.281250,18.200001,19.868750,31.175,0.56838226,-0.00980865,-0.02883481,-0.82220067
'00:18:12.024,0.060059,0.029297,1.003418,0.304878,1.341463,-0.609756,-5.106250,17.943750,19.631250,31.235,0.56837125,-0.00980427,-0.02882332,-0.82220874
'00:18:12.034,0.059570,0.029785,1.003906,0.365854,1.341463,-0.548781,-5.106250,17.943750,19.631250,31.205,0.56836465,-0.00979251,-0.02881705,-0.82221367
'00:18:12.046,0.059570,0.029785,1.003418,0.365854,1.341463,-0.609756,-4.800000,17.562500,19.362501,31.220,0.56836715,-0.00979337,-0.02882784,-0.82221155
'00:18:12.054,0.059570,0.029785,1.004395,0.365854,1.402439,-0.548781,-4.800000,17.562500,19.362501,31.220,0.56837242,-0.00979037,-0.02883212,-0.82220779
'00:18:12.064,0.060059,0.029785,1.003906,0.365854,1.280488,-0.609756,-4.787500,17.543751,19.387501,31.220,0.56837461,-0.00979865,-0.02884605,-0.82220569
'00:18:12.074,0.059570,0.029785,1.003906,0.365854,1.341463,-0.609756,-4.787500,17.543751,19.387501,31.205,0.56837693,-0.00979968,-0.02885481,-0.82220376
'00:18:12.086,0.060059,0.029297,1.003418,0.365854,1.341463,-0.548781,-4.800000,17.525000,19.362501,31.205,0.56838356,-0.00980542,-0.02886258,-0.82219884
'00:18:12.094,0.061035,0.029785,1.003906,0.365854,1.341463,-0.548781,-4.800000,17.525000,19.362501,31.220,0.56838783,-0.00981186,-0.02887273,-0.82219545
'00:18:12.104,0.060547,0.030273,1.004395,0.365854,1.341463,-0.548781,-5.125000,17.962500,19.731251,31.159,0.56837974,-0.00980259,-0.02887060,-0.82220123
'00:18:12.114,0.059570,0.029297,1.002930,0.365854,1.280488,-0.548781,-5.125000,17.962500,19.731251,31.190,0.56837175,-0.00979662,-0.02886300,-0.82220709
'00:18:12.125,0.059570,0.029297,1.004883,0.365854,1.341463,-0.609756,-5.112500,17.918751,19.706251,31.250,0.56835830,-0.00978482,-0.02885064,-0.82221697
'00:18:12.134,0.060059,0.028320,1.004395,0.365854,1.341463,-0.548781,-5.112500,17.918751,19.706251,31.235,0.56835147,-0.00978140,-0.02883767,-0.82222219
'00:18:12.144,0.058594,0.030273,1.003906,0.304878,1.341463,-0.609756,-4.956250,17.781250,19.525000,31.190,0.56834717,-0.00977188,-0.02883359,-0.82222542
'00:18:12.154,0.059082,0.029785,1.002441,0.365854,1.341463,-0.609756,-4.812500,17.550001,19.287500,31.220,0.56834847,-0.00976928,-0.02883980,-0.82222432
'00:18:12.167,0.058594,0.029785,1.003906,0.365854,1.341463,-0.609756,-4.812500,17.550001,19.287500,31.265,0.56835020,-0.00976202,-0.02884455,-0.82222305
'00:18:12.174,0.059570,0.030273,1.003418,0.365854,1.341463,-0.609756,-4.881250,17.593750,19.387501,31.235,0.56834811,-0.00975836,-0.02884858,-0.82222439
'00:18:12.184,0.058594,0.028809,1.003906,0.365854,1.341463,-0.609756,-4.881250,17.593750,19.387501,31.220,0.56834549,-0.00975343,-0.02884204,-0.82222650
'00:18:12.194,0.060547,0.028320,1.004395,0.365854,1.341463,-0.548781,-4.818750,17.556250,19.400000,31.220,0.56835069,-0.00976475,-0.02884407,-0.82222269
'00:18:12.206,0.059570,0.028809,1.003906,0.365854,1.280488,-0.609756,-4.818750,17.556250,19.400000,31.220,0.56835138,-0.00977449,-0.02884912,-0.82222193
'00:18:12.214,0.060059,0.028320,1.003906,0.365854,1.341463,-0.609756,-5.093750,17.943750,19.662500,31.220,0.56834345,-0.00977259,-0.02883954,-0.82222777
'00:18:12.224,0.059570,0.029297,1.004395,0.365854,1.280488,-0.548781,-5.093750,17.943750,19.662500,31.220,0.56833761,-0.00976830,-0.02883411,-0.82223204
'00:18:12.234,0.059570,0.030273,1.003418,0.304878,1.341463,-0.609756,-5.131250,17.962500,19.700001,31.205,0.56832513,-0.00975721,-0.02882482,-0.82224113
'00:18:12.247,0.060547,0.030273,1.003906,0.365854,1.341463,-0.548781,-5.131250,17.962500,19.700001,31.175,0.56831472,-0.00974614,-0.02882320,-0.82224851
'00:18:12.254,0.059082,0.029785,1.003906,0.365854,1.341463,-0.548781,-4.837500,17.606251,19.431250,31.220,0.56831812,-0.00974431,-0.02882668,-0.82224606
'00:18:12.264,0.059570,0.029785,1.003418,0.365854,1.280488,-0.548781,-4.837500,17.606251,19.431250,31.235,0.56832277,-0.00974889,-0.02883668,-0.82224244
'00:18:12.274,0.059570,0.029785,1.003418,0.365854,1.341463,-0.609756,-4.850000,17.562500,19.350000,31.175,0.56832161,-0.00974724,-0.02884169,-0.82224309
'00:18:12.286,0.060547,0.030273,1.003906,0.304878,1.341463,-0.548781,-4.850000,17.562500,19.350000,31.205,0.56832522,-0.00975314,-0.02884989,-0.82224024
'00:18:12.294,0.060059,0.029297,1.004395,0.365854,1.280488,-0.548781,-4.856250,17.581251,19.418751,31.220,0.56832748,-0.00975895,-0.02885491,-0.82223843
'00:18:12.304,0.060059,0.028809,1.004395,0.365854,1.402439,-0.548781,-4.856250,17.581251,19.418751,31.220,0.56833068,-0.00975929,-0.02885227,-0.82223630
'00:18:12.314,0.060547,0.029785,1.004395,0.304878,1.341463,-0.548781,-5.062500,17.887501,19.656250,31.190,0.56832566,-0.00975833,-0.02884673,-0.82223998
'00:18:12.326,0.059082,0.031250,1.004395,0.304878,1.280488,-0.548781,-5.062500,17.887501,19.656250,31.220,0.56831916,-0.00974606,-0.02884694,-0.82224461
'00:18:12.334,0.059570,0.028809,1.003906,0.304878,1.341463,-0.548781,-5.243750,18.100000,19.850000,31.235,0.56830914,-0.00973870,-0.02882847,-0.82225227
'00:18:12.344,0.059570,0.029785,1.003418,0.304878,1.280488,-0.548781,-5.243750,18.100000,19.850000,31.235,0.56829635,-0.00973041,-0.02881434,-0.82226171
'00:18:12.354,0.059570,0.028809,1.003906,0.304878,1.341463,-0.548781,-4.837500,17.500000,19.437500,31.190,0.56829888,-0.00973625,-0.02880889,-0.82226008
'00:18:12.366,0.059570,0.028809,1.003906,0.304878,1.341463,-0.609756,-4.818750,17.531250,19.481251,31.265,0.56829890,-0.00974504,-0.02880504,-0.82226010
'00:18:12.374,0.059570,0.029785,1.005371,0.365854,1.280488,-0.609756,-4.818750,17.531250,19.481251,31.205,0.56829867,-0.00974853,-0.02881243,-0.82225995
'00:18:12.384,0.059570,0.029785,1.005371,0.365854,1.280488,-0.609756,-4.818750,17.531250,19.481251,31.205,0.56829836,-0.00975283,-0.02882154,-0.82225980
'00:18:12.394,0.060059,0.029785,1.004883,0.304878,1.341463,-0.548781,-4.818750,17.506250,19.462500,31.175,0.56830196,-0.00975827,-0.02882457,-0.82225714
'00:18:12.406,0.060059,0.029785,1.003418,0.365854,1.341463,-0.548781,-5.018750,17.750000,19.562500,31.220,0.56829629,-0.00975124,-0.02882231,-0.82226122
'00:18:12.414,0.060059,0.029297,1.004395,0.365854,1.341463,-0.609756,-5.018750,17.750000,19.562500,31.250,0.56828912,-0.00974788,-0.02881840,-0.82226635
'00:18:12.424,0.060059,0.029297,1.003906,0.243902,1.341463,-0.548781,-5.137500,18.050001,19.700001,31.220,0.56828298,-0.00974758,-0.02880303,-0.82227114
'00:18:12.434,0.059082,0.029785,1.003418,0.304878,1.341463,-0.548781,-5.137500,18.050001,19.700001,31.190,0.56827687,-0.00973724,-0.02879150,-0.82227589
'00:18:12.446,0.059082,0.030273,1.003418,0.365854,1.341463,-0.609756,-4.918750,17.712500,19.487501,31.205,0.56827354,-0.00972813,-0.02879720,-0.82227809
'00:18:12.454,0.059082,0.030273,1.003418,0.365854,1.341463,-0.609756,-4.918750,17.712500,19.487501,31.205,0.56827134,-0.00972216,-0.02880096,-0.82227956
'00:18:12.464,0.059082,0.029297,1.003418,0.365854,1.341463,-0.548781,-4.887500,17.568750,19.418751,31.235,0.56827220,-0.00971849,-0.02879913,-0.82227907
'00:18:12.474,0.058594,0.029297,1.003906,0.304878,1.341463,-0.609756,-4.887500,17.568750,19.418751,31.190,0.56826867,-0.00971493,-0.02879093,-0.82228184
'00:18:12.486,0.059570,0.029785,1.004395,0.304878,1.341463,-0.609756,-4.812500,17.568750,19.418751,31.220,0.56827056,-0.00972035,-0.02879593,-0.82228029
'00:18:12.494,0.059570,0.029785,1.004395,0.304878,1.341463,-0.609756,-4.812500,17.568750,19.418751,31.220,0.56827180,-0.00972389,-0.02879919,-0.82227928
'00:18:12.504,0.061523,0.030273,1.003906,0.365854,1.341463,-0.548781,-4.800000,17.587500,19.381250,31.190,0.56827904,-0.00973527,-0.02881952,-0.82227343
'00:18:12.514,0.059082,0.029785,1.003418,0.365854,1.341463,-0.609756,-4.800000,17.587500,19.381250,31.220,0.56828203,-0.00973479,-0.02882754,-0.82227109
'00:18:12.526,0.059570,0.029297,1.004883,0.426829,1.341463,-0.548781,-5.112500,17.943750,19.693750,31.144,0.56827397,-0.00972035,-0.02882118,-0.82227705
'00:18:12.534,0.059570,0.029785,1.004395,0.365854,1.341463,-0.609756,-5.112500,17.943750,19.693750,31.250,0.56826502,-0.00971178,-0.02881594,-0.82228352
'00:18:12.544,0.059570,0.029785,1.002930,0.304878,1.280488,-0.548781,-4.993750,17.875000,19.550001,31.159,0.56826498,-0.00971472,-0.02881631,-0.82228350
'00:18:12.554,0.060059,0.029785,1.003906,0.304878,1.280488,-0.548781,-4.993750,17.875000,19.550001,31.190,0.56826493,-0.00972008,-0.02881815,-0.82228341
'00:18:12.565,0.059570,0.030273,1.003418,0.304878,1.280488,-0.548781,-4.825000,17.531250,19.450001,31.220,0.56826904,-0.00972668,-0.02882684,-0.82228018
'00:18:12.575,0.060547,0.029785,1.002930,0.304878,1.341463,-0.548781,-4.825000,17.531250,19.450001,31.220,0.56827295,-0.00973565,-0.02883276,-0.82227717
'00:18:12.585,0.061035,0.029785,1.004883,0.365854,1.341463,-0.548781,-4.831250,17.575001,19.412500,31.190,0.56827763,-0.00974380,-0.02884466,-0.82227342
'00:18:12.594,0.060059,0.029785,1.003418,0.365854,1.341463,-0.548781,-4.831250,17.575001,19.412500,31.190,0.56828183,-0.00974643,-0.02885230,-0.82227022
'00:18:12.604,0.060547,0.029297,1.004395,0.304878,1.341463,-0.548781,-4.787500,17.525000,19.318750,31.235,0.56828875,-0.00975846,-0.02885745,-0.82226511
'00:18:12.614,0.060059,0.028809,1.004883,0.365854,1.341463,-0.487805,-4.787500,17.525000,19.318750,31.235,0.56830017,-0.00976653,-0.02886194,-0.82225696
'00:18:12.624,0.059570,0.028809,1.003418,0.426829,1.341463,-0.548781,-4.906250,17.656250,19.481251,31.220,0.56830142,-0.00976383,-0.02886296,-0.82225610
'00:18:12.634,0.060059,0.030273,1.004395,0.365854,1.341463,-0.548781,-4.906250,17.656250,19.481251,31.250,0.56830229,-0.00976094,-0.02886936,-0.82225531
'00:18:12.644,0.058105,0.029785,1.002930,0.304878,1.341463,-0.548781,-5.162500,18.018751,19.693750,31.159,0.56829363,-0.00974315,-0.02885059,-0.82226216
'00:18:12.655,0.059570,0.030273,1.004395,0.304878,1.341463,-0.609756,-4.831250,17.593750,19.418751,31.220,0.56829420,-0.00974444,-0.02885604,-0.82226156
'00:18:12.664,0.059570,0.028320,1.005859,0.304878,1.280488,-0.548781,-4.831250,17.593750,19.418751,31.220,0.56829883,-0.00975618,-0.02885259,-0.82225834
'00:18:12.674,0.060059,0.028809,1.004395,0.304878,1.280488,-0.548781,-4.793750,17.531250,19.400000,31.205,0.56830502,-0.00977156,-0.02885548,-0.82225378
