# FW/GUI: v9.6.1-multi17-dual (PyQt5)
# StartTime: 2026-04-03 16:19:57
# Slot: 13
# DeviceID: 13
# Label: EMG13
# IP: 192.168.137.206
# TCP: 3333
# DeviceFW: EMG_FW_v9.6_MULTI17_DUALCH_RUNTIMECFG_CHEN
# IMU1_RefTime = format(imu_ms) = relative since power-on Time (IMU acquisition time)
IMU1_RefTime,ax_g,ay_g,az_g,gx_dps,gy_dps,gz_dps,mx_uT,my_uT,mz_uT,temp_C,qw,qx,qy,qz
'00:11:51.094,0.061035,0.029297,1.003418,0.304878,1.280488,-0.609756,-5.012500,18.387501,20.093750,29.786,0.57454242,-0.01008269,-0.02884000,-0.81790440
'00:11:51.104,0.060059,0.029297,1.003906,0.243902,1.280488,-0.548781,-5.012500,18.387501,20.093750,29.786,0.57453022,-0.01007637,-0.02882185,-0.81791369
'00:11:51.116,0.060059,0.029297,1.003418,0.304878,1.280488,-0.609756,-4.568750,17.800001,19.637501,29.786,0.57453296,-0.01008652,-0.02883170,-0.81791129
'00:11:51.124,0.060059,0.028320,1.003418,0.365854,1.341463,-0.548781,-4.568750,17.800001,19.637501,29.801,0.57453857,-0.01009051,-0.02883461,-0.81790720
'00:11:51.134,0.061035,0.028320,1.003418,0.365854,1.341463,-0.609756,-4.537500,17.800001,19.681250,29.740,0.57454315,-0.01010287,-0.02884448,-0.81790347
'00:11:51.144,0.060059,0.029297,1.003906,0.304878,1.341463,-0.548781,-4.537500,17.800001,19.681250,29.755,0.57455182,-0.01010864,-0.02885130,-0.81789707
'00:11:51.157,0.061035,0.028809,1.003906,0.243902,1.280488,-0.548781,-4.556250,17.743750,19.662500,29.771,0.57455956,-0.01013273,-0.02885612,-0.81789117
'00:11:51.164,0.059570,0.028320,1.003418,0.243902,1.280488,-0.548781,-4.556250,17.743750,19.662500,29.740,0.57456379,-0.01014112,-0.02885267,-0.81788821
'00:11:51.174,0.060547,0.028809,1.001953,0.304878,1.341463,-0.548781,-4.856250,18.231251,19.887501,29.755,0.57455934,-0.01013798,-0.02884389,-0.81789169
'00:11:51.184,0.059570,0.028320,1.003906,0.426829,1.463415,-0.609756,-4.856250,18.231251,19.887501,29.740,0.57455114,-0.01011609,-0.02883060,-0.81789819
'00:11:51.196,0.059082,0.028809,1.003906,0.487805,1.463415,-0.609756,-4.931250,18.375000,20.050001,29.755,0.57453842,-0.01007856,-0.02881795,-0.81790803
'00:11:51.204,0.060059,0.028320,1.004395,0.365854,1.341463,-0.548781,-4.931250,18.375000,20.050001,29.786,0.57453326,-0.01007173,-0.02880836,-0.81791208
'00:11:51.214,0.059570,0.028809,1.003906,0.243902,1.280488,-0.609756,-4.568750,17.868750,19.675001,29.755,0.57453705,-0.01008347,-0.02880898,-0.81790926
'00:11:51.224,0.060059,0.028320,1.003906,0.243902,1.219512,-0.609756,-4.568750,17.868750,19.675001,29.801,0.57454073,-0.01010408,-0.02881174,-0.81790632
'00:11:51.234,0.058594,0.028809,1.003906,0.304878,1.280488,-0.548781,-4.537500,17.768751,19.587500,29.786,0.57454918,-0.01010731,-0.02881300,-0.81790029
'00:11:51.244,0.060547,0.027832,1.002930,0.365854,1.341463,-0.609756,-4.537500,17.768751,19.587500,29.740,0.57455356,-0.01011807,-0.02881812,-0.81789691
'00:11:51.254,0.060547,0.027832,1.002930,0.365854,1.341463,-0.609756,-4.575000,17.818750,19.631250,29.740,0.57455621,-0.01012702,-0.02882119,-0.81789483
'00:11:51.264,0.060059,0.028809,1.002930,0.426829,1.402439,-0.548781,-4.575000,17.818750,19.631250,29.771,0.57456319,-0.01012189,-0.02882911,-0.81788970
'00:11:51.276,0.060059,0.028320,1.002930,0.426829,1.402439,-0.609756,-4.575000,17.831251,19.643751,29.740,0.57456673,-0.01011821,-0.02883543,-0.81788704
'00:11:51.284,0.060547,0.028809,1.002930,0.365854,1.402439,-0.548781,-4.993750,18.412500,20.018751,29.801,0.57455891,-0.01010565,-0.02882430,-0.81789308
'00:11:51.296,0.060059,0.029297,1.003906,0.304878,1.280488,-0.609756,-4.993750,18.412500,20.018751,29.740,0.57454153,-0.01009527,-0.02881059,-0.81790591
'00:11:51.306,0.061035,0.028320,1.003418,0.304878,1.280488,-0.609756,-4.762500,17.956251,19.768751,29.786,0.57453355,-0.01010319,-0.02880539,-0.81791160
'00:11:51.316,0.061035,0.028320,1.003418,0.304878,1.280488,-0.609756,-4.762500,17.956251,19.768751,29.786,0.57452559,-0.01011101,-0.02880030,-0.81791727
'00:11:51.324,0.060547,0.028809,1.003418,0.365854,1.402439,-0.609756,-4.593750,17.843750,19.675001,29.801,0.57452703,-0.01011104,-0.02880416,-0.81791612
'00:11:51.334,0.060547,0.029297,1.003418,0.426829,1.402439,-0.548781,-4.593750,17.843750,19.675001,29.755,0.57453311,-0.01010619,-0.02881603,-0.81791149
'00:11:51.344,0.060547,0.028320,1.002930,0.365854,1.402439,-0.548781,-4.575000,17.787500,19.606251,29.740,0.57453965,-0.01010874,-0.02881827,-0.81790679
'00:11:51.357,0.060059,0.028809,1.005371,0.365854,1.341463,-0.548781,-4.575000,17.787500,19.606251,29.771,0.57454783,-0.01011081,-0.02882493,-0.81790078
'00:11:51.364,0.060059,0.028809,1.005371,0.365854,1.341463,-0.548781,-4.581250,17.812500,19.681250,29.771,0.57455207,-0.01011198,-0.02882834,-0.81789767
'00:11:51.374,0.060547,0.029297,1.004395,0.304878,1.280488,-0.548781,-4.581250,17.812500,19.681250,29.771,0.57455776,-0.01012198,-0.02883699,-0.81789324
'00:11:51.384,0.060547,0.030273,1.003418,0.304878,1.341463,-0.548781,-4.812500,18.168751,19.887501,29.816,0.57455464,-0.01011481,-0.02883804,-0.81789549
'00:11:51.397,0.060059,0.028320,1.003418,0.365854,1.402439,-0.548781,-4.812500,18.168751,19.887501,29.755,0.57455143,-0.01010261,-0.02882431,-0.81789838
'00:11:51.404,0.060547,0.027832,1.003418,0.365854,1.402439,-0.548781,-4.818750,18.218750,19.950001,29.801,0.57455010,-0.01009974,-0.02881685,-0.81789960
'00:11:51.414,0.059570,0.029785,1.003418,0.426829,1.341463,-0.548781,-4.818750,18.218750,19.950001,29.725,0.57454776,-0.01008384,-0.02882093,-0.81790130
'00:11:51.424,0.061035,0.028809,1.004395,0.243902,1.341463,-0.609756,-4.568750,17.768751,19.675001,29.786,0.57454928,-0.01009778,-0.02882155,-0.81790004
'00:11:51.437,0.061035,0.029297,1.003418,0.365854,1.341463,-0.548781,-4.568750,17.768751,19.675001,29.725,0.57455685,-0.01010558,-0.02883772,-0.81789406
'00:11:51.444,0.061035,0.029297,1.003906,0.365854,1.341463,-0.548781,-4.568750,17.700001,19.650000,29.740,0.57455986,-0.01010890,-0.02884501,-0.81789165
'00:11:51.454,0.061035,0.028809,1.003418,0.365854,1.341463,-0.548781,-4.568750,17.700001,19.650000,29.786,0.57456423,-0.01011566,-0.02885265,-0.81788822
'00:11:51.464,0.059570,0.028809,1.003418,0.365854,1.402439,-0.548781,-4.537500,17.762501,19.606251,29.801,0.57457260,-0.01011239,-0.02885528,-0.81788229
'00:11:51.476,0.060547,0.027344,1.002930,0.426829,1.341463,-0.548781,-4.631250,17.906250,19.737501,29.771,0.57457817,-0.01011946,-0.02885676,-0.81787824
'00:11:51.484,0.060059,0.028320,1.003418,0.365854,1.280488,-0.548781,-4.631250,17.906250,19.737501,29.786,0.57458155,-0.01012456,-0.02885944,-0.81787570
'00:11:51.494,0.060059,0.028320,1.004883,0.304878,1.280488,-0.609756,-4.631250,17.906250,19.737501,29.801,0.57458136,-0.01013343,-0.02885785,-0.81787578
'00:11:51.504,0.059570,0.028320,1.003906,0.304878,1.280488,-0.548781,-4.931250,18.337500,20.050001,29.740,0.57457357,-0.01012822,-0.02884110,-0.81788191
'00:11:51.514,0.060547,0.028320,1.003418,0.304878,1.341463,-0.548781,-4.931250,18.337500,20.050001,29.740,0.57456597,-0.01012425,-0.02882560,-0.81788785
'00:11:51.524,0.060059,0.028809,1.002930,0.426829,1.341463,-0.548781,-4.575000,17.800001,19.625000,29.755,0.57457237,-0.01012320,-0.02883605,-0.81788299
'00:11:51.534,0.060547,0.029297,1.002930,0.426829,1.402439,-0.548781,-4.568750,17.700001,19.731251,29.771,0.57457647,-0.01011792,-0.02884595,-0.81787983
'00:11:51.544,0.059570,0.028809,1.004395,0.365854,1.341463,-0.609756,-4.568750,17.700001,19.731251,29.710,0.57457616,-0.01011608,-0.02884708,-0.81788003
'00:11:51.556,0.060059,0.029297,1.003418,0.304878,1.402439,-0.548781,-4.587500,17.743750,19.612501,29.786,0.57458119,-0.01011263,-0.02884549,-0.81787660
'00:11:51.564,0.060059,0.028809,1.004395,0.304878,1.280488,-0.609756,-4.587500,17.743750,19.612501,29.771,0.57458090,-0.01011861,-0.02884681,-0.81787668
'00:11:51.574,0.058105,0.028320,1.004395,0.243902,1.280488,-0.548781,-4.806250,18.187500,19.925001,29.740,0.57457867,-0.01011355,-0.02882614,-0.81787904
'00:11:51.584,0.061035,0.028320,1.003906,0.304878,1.341463,-0.609756,-4.806250,18.187500,19.925001,29.755,0.57457224,-0.01011738,-0.02881888,-0.81788376
'00:11:51.596,0.060547,0.028809,1.002930,0.304878,1.341463,-0.548781,-4.793750,18.087500,19.850000,29.801,0.57456838,-0.01011592,-0.02881036,-0.81788680
'00:11:51.604,0.060059,0.028809,1.002441,0.426829,1.402439,-0.548781,-4.793750,18.087500,19.850000,29.755,0.57456604,-0.01010454,-0.02880794,-0.81788866
'00:11:51.614,0.059570,0.028809,1.002930,0.365854,1.402439,-0.609756,-4.650000,17.987501,19.787500,29.725,0.57456661,-0.01009787,-0.02880745,-0.81788836
'00:11:51.624,0.059570,0.028809,1.003906,0.365854,1.341463,-0.548781,-4.650000,17.987501,19.787500,29.816,0.57457140,-0.01009558,-0.02880959,-0.81788495
'00:11:51.634,0.060547,0.028320,1.004395,0.304878,1.280488,-0.548781,-4.512500,17.781250,19.631250,29.771,0.57458165,-0.01011361,-0.02881775,-0.81787724
'00:11:51.644,0.059570,0.028320,1.003418,0.243902,1.219512,-0.487805,-4.512500,17.781250,19.631250,29.771,0.57459600,-0.01013359,-0.02882085,-0.81786680
'00:11:51.654,0.060059,0.029785,1.003418,0.365854,1.280488,-0.548781,-4.587500,17.837500,19.656250,29.771,0.57460172,-0.01013545,-0.02883517,-0.81786225
'00:11:51.664,0.060547,0.029297,1.004395,0.426829,1.402439,-0.548781,-4.587500,17.837500,19.656250,29.771,0.57460785,-0.01012998,-0.02884621,-0.81785763
'00:11:51.674,0.059082,0.029297,1.003906,0.487805,1.402439,-0.548781,-4.587500,17.731251,19.612501,29.755,0.57461183,-0.01011186,-0.02885343,-0.81785480
'00:11:51.684,0.060059,0.028809,1.004395,0.487805,1.402439,-0.609756,-4.587500,17.731251,19.612501,29.801,0.57461155,-0.01010121,-0.02886148,-0.81785485
'00:11:51.694,0.059570,0.030762,1.004395,0.304878,1.341463,-0.548781,-4.775000,18.112501,19.850000,29.771,0.57460961,-0.01008799,-0.02886220,-0.81785635
'00:11:51.705,0.060547,0.029785,1.003418,0.243902,1.219512,-0.548781,-4.775000,18.112501,19.850000,29.786,0.57460729,-0.01009707,-0.02886351,-0.81785782
'00:11:51.714,0.060547,0.028320,1.005371,0.182927,1.158537,-0.548781,-4.850000,18.218750,19.918751,29.755,0.57460283,-0.01011327,-0.02885221,-0.81786115
'00:11:51.724,0.061035,0.028320,1.003906,0.243902,1.219512,-0.548781,-4.850000,18.218750,19.918751,29.771,0.57459806,-0.01012665,-0.02884360,-0.81786464
'00:11:51.734,0.060547,0.027832,1.002930,0.304878,1.280488,-0.548781,-4.562500,17.756250,19.631250,29.725,0.57460410,-0.01014284,-0.02884427,-0.81786017
'00:11:51.744,0.059570,0.028809,1.003418,0.426829,1.402439,-0.670732,-4.562500,17.756250,19.631250,29.786,0.57460165,-0.01013408,-0.02884912,-0.81786183
'00:11:51.754,0.061523,0.028320,1.003906,0.487805,1.463415,-0.548781,-4.537500,17.712500,19.606251,29.786,0.57460901,-0.01013215,-0.02886091,-0.81785627
'00:11:51.764,0.061035,0.028320,1.003906,0.426829,1.402439,-0.548781,-4.537500,17.712500,19.606251,29.771,0.57461613,-0.01013488,-0.02886923,-0.81785093
'00:11:51.774,0.059082,0.029297,1.003418,0.426829,1.402439,-0.548781,-4.606250,17.850000,19.668751,29.771,0.57462113,-0.01012035,-0.02887301,-0.81784747
'00:11:51.784,0.061035,0.029785,1.003418,0.304878,1.280488,-0.609756,-4.606250,17.850000,19.668751,29.801,0.57462118,-0.01012963,-0.02888475,-0.81784691
'00:11:51.794,0.059570,0.029785,1.004395,0.304878,1.341463,-0.548781,-4.781250,18.093750,19.875000,29.801,0.57461838,-0.01011924,-0.02887851,-0.81784922
'00:11:51.804,0.060547,0.027832,1.003906,0.365854,1.280488,-0.548781,-4.906250,18.243750,19.962500,29.786,0.57461052,-0.01011834,-0.02886668,-0.81785518
'00:11:51.814,0.060059,0.028320,1.003418,0.365854,1.341463,-0.548781,-4.906250,18.243750,19.962500,29.786,0.57460276,-0.01010866,-0.02885304,-0.81786122
'00:11:51.824,0.059570,0.027832,1.003906,0.365854,1.341463,-0.548781,-4.587500,17.787500,19.637501,29.786,0.57460800,-0.01011084,-0.02884932,-0.81785765
'00:11:51.834,0.060059,0.028320,1.004395,0.365854,1.341463,-0.548781,-4.587500,17.787500,19.637501,29.786,0.57461310,-0.01011362,-0.02885021,-0.81785400
'00:11:51.844,0.058105,0.028320,1.002930,0.304878,1.341463,-0.609756,-4.593750,17.812500,19.637501,29.771,0.57461398,-0.01010853,-0.02883964,-0.81785382
'00:11:51.854,0.060059,0.028320,1.004395,0.304878,1.341463,-0.548781,-4.593750,17.812500,19.637501,29.771,0.57461916,-0.01011434,-0.02883641,-0.81785022
'00:11:51.864,0.059570,0.028809,1.003906,0.304878,1.280488,-0.609756,-4.575000,17.781250,19.706251,29.771,0.57462004,-0.01012058,-0.02883794,-0.81784947
'00:11:51.874,0.060059,0.027832,1.003418,0.304878,1.280488,-0.609756,-4.575000,17.781250,19.706251,29.755,0.57462109,-0.01013356,-0.02883594,-0.81784864
'00:11:51.884,0.061035,0.029297,1.003418,0.365854,1.341463,-0.609756,-4.693750,17.918751,19.781250,29.771,0.57461653,-0.01013305,-0.02884123,-0.81785166
'00:11:51.894,0.061035,0.029297,1.003906,0.426829,1.341463,-0.609756,-4.693750,17.918751,19.781250,29.755,0.57461204,-0.01012939,-0.02885060,-0.81785453
'00:11:51.904,0.059570,0.028320,1.003418,0.365854,1.402439,-0.548781,-4.818750,18.156250,19.918751,29.710,0.57460853,-0.01011643,-0.02883684,-0.81785765
'00:11:51.914,0.059570,0.029297,1.002930,0.426829,1.402439,-0.609756,-4.818750,18.156250,19.918751,29.755,0.57460057,-0.01009671,-0.02883345,-0.81786360
'00:11:51.924,0.060059,0.028809,1.003906,0.365854,1.341463,-0.548781,-4.706250,17.937500,19.787500,29.801,0.57460019,-0.01009289,-0.02883147,-0.81786399
'00:11:51.934,0.060059,0.029297,1.003418,0.365854,1.280488,-0.548781,-4.706250,17.937500,19.787500,29.755,0.57459956,-0.01009163,-0.02883557,-0.81786430
'00:11:51.944,0.059570,0.029785,1.003906,0.304878,1.280488,-0.548781,-4.556250,17.768751,19.643751,29.725,0.57460598,-0.01009532,-0.02884416,-0.81785944
'00:11:51.954,0.060547,0.029297,1.003906,0.243902,1.280488,-0.548781,-4.556250,17.768751,19.643751,29.771,0.57461236,-0.01010946,-0.02884931,-0.81785460
'00:11:51.964,0.061035,0.029297,1.004395,0.243902,1.280488,-0.548781,-4.562500,17.787500,19.606251,29.771,0.57461881,-0.01012571,-0.02885607,-0.81784963
'00:11:51.974,0.060547,0.027832,1.003906,0.304878,1.280488,-0.548781,-4.562500,17.787500,19.606251,29.725,0.57462559,-0.01014193,-0.02885687,-0.81784464
'00:11:51.984,0.061035,0.028809,1.003418,0.365854,1.402439,-0.548781,-4.531250,17.825001,19.625000,29.801,0.57463540,-0.01014754,-0.02886687,-0.81783733
'00:11:51.994,0.061035,0.028809,1.003418,0.365854,1.402439,-0.548781,-4.531250,17.825001,19.625000,29.801,0.57464515,-0.01015303,-0.02887666,-0.81783006
'00:11:52.004,0.061035,0.029297,1.002441,0.426829,1.402439,-0.609756,-4.712500,17.956251,19.781250,29.740,0.57464016,-0.01014423,-0.02888226,-0.81783348
'00:11:52.015,0.060547,0.029297,1.003906,0.365854,1.341463,-0.548781,-4.712500,17.956251,19.781250,29.786,0.57463929,-0.01013967,-0.02888410,-0.81783408
'00:11:52.024,0.060547,0.029297,1.003906,0.365854,1.341463,-0.548781,-4.900000,18.175001,19.956251,29.786,0.57463100,-0.01012891,-0.02887691,-0.81784029
'00:11:52.034,0.059082,0.028320,1.002930,0.243902,1.280488,-0.548781,-4.900000,18.175001,19.956251,29.755,0.57462181,-0.01012361,-0.02885260,-0.81784767
'00:11:52.044,0.059570,0.027832,1.003418,0.304878,1.280488,-0.548781,-4.543750,17.750000,19.606251,29.740,0.57462910,-0.01013520,-0.02885035,-0.81784248
'00:11:52.054,0.060059,0.028320,1.004395,0.304878,1.219512,-0.548781,-4.518750,17.818750,19.612501,29.755,0.57463937,-0.01015400,-0.02885907,-0.81783473
'00:11:52.064,0.058594,0.029297,1.002930,0.243902,1.219512,-0.609756,-4.518750,17.818750,19.612501,29.786,0.57464501,-0.01016345,-0.02886365,-0.81783049
'00:11:52.074,0.061035,0.029297,1.003418,0.304878,1.280488,-0.548781,-4.543750,17.800001,19.656250,29.755,0.57465266,-0.01017740,-0.02887639,-0.81782449
'00:11:52.084,0.060059,0.028809,1.004395,0.243902,1.219512,-0.548781,-4.543750,17.800001,19.656250,29.816,0.57466020,-0.01019478,-0.02888047,-0.81781883
'00:11:52.094,0.060547,0.029297,1.003906,0.121951,1.097561,-0.609756,-4.993750,18.425001,20.112501,29.786,0.57464439,-0.01020964,-0.02886567,-0.81783028
'00:11:52.104,0.062012,0.028809,1.002930,0.121951,1.097561,-0.548781,-4.993750,18.425001,20.112501,29.801,0.57463304,-0.01023461,-0.02885442,-0.81783834
'00:11:52.115,0.060547,0.028320,1.003906,0.060976,1.036585,-0.548781,-4.950000,18.312500,19.925001,29.771,0.57462174,-0.01026362,-0.02883246,-0.81784668
'00:11:52.124,0.061035,0.028320,1.003906,0.060976,1.036585,-0.548781,-4.950000,18.312500,19.925001,29.771,0.57461251,-0.01028944,-0.02881650,-0.81785341
'00:11:52.134,0.060059,0.028809,1.003906,0.000000,0.975610,-0.548781,-4.587500,17.881250,19.737501,29.786,0.57461766,-0.01033354,-0.02881475,-0.81784929
'00:11:52.144,0.061035,0.029297,1.002930,-0.121951,0.853659,-0.548781,-4.587500,17.881250,19.737501,29.771,0.57462214,-0.01039547,-0.02881744,-0.81784527
'00:11:52.154,0.060059,0.029297,1.003418,-0.182927,0.792683,-0.548781,-4.556250,17.768751,19.600000,29.710,0.57462655,-0.01045835,-0.02881481,-0.81784146
'00:11:52.164,0.062012,0.027832,1.001953,0.060976,1.036585,-0.609756,-4.556250,17.768751,19.600000,29.786,0.57462753,-0.01050769,-0.02881726,-0.81784006
'00:11:52.175,0.062012,0.027344,1.004395,0.243902,1.280488,-0.548781,-4.575000,17.787500,19.668751,29.755,0.57463297,-0.01053282,-0.02881514,-0.81783598
'00:11:52.184,0.060547,0.027832,1.003906,0.304878,1.341463,-0.548781,-4.575000,17.787500,19.668751,29.786,0.57463753,-0.01053730,-0.02881200,-0.81783283
'00:11:52.194,0.061035,0.027832,1.004395,0.243902,1.280488,-0.548781,-4.687500,17.818750,19.631250,29.786,0.57463542,-0.01054552,-0.02880106,-0.81783459
'00:11:52.204,0.061035,0.027832,1.003906,0.304878,1.280488,-0.548781,-4.687500,17.818750,19.631250,29.755,0.57463338,-0.01055069,-0.02879483,-0.81783618
'00:11:52.214,0.062012,0.028320,1.002441,0.304878,1.280488,-0.548781,-4.687500,17.987501,19.818750,29.755,0.57463420,-0.01056232,-0.02879934,-0.81783529
'00:11:52.224,0.061523,0.027832,1.003906,0.365854,1.341463,-0.609756,-4.687500,17.987501,19.818750,29.801,0.57463100,-0.01056513,-0.02879980,-0.81783749
'00:11:52.234,0.061035,0.028320,1.003906,0.365854,1.341463,-0.548781,-4.625000,17.856251,19.662500,29.755,0.57463407,-0.01056509,-0.02880330,-0.81783522
'00:11:52.244,0.061523,0.027832,1.004883,0.365854,1.402439,-0.548781,-4.625000,17.856251,19.662500,29.801,0.57463736,-0.01056516,-0.02880242,-0.81783293
'00:11:52.254,0.061035,0.029297,1.003906,0.426829,1.341463,-0.548781,-4.631250,17.768751,19.662500,29.771,0.57463783,-0.01055656,-0.02881326,-0.81783233
'00:11:52.264,0.062012,0.028320,1.003906,0.365854,1.341463,-0.609756,-4.631250,17.768751,19.662500,29.786,0.57463407,-0.01056036,-0.02881793,-0.81783476
'00:11:52.274,0.061035,0.028320,1.003418,0.365854,1.341463,-0.609756,-4.550000,17.731251,19.568750,29.786,0.57463555,-0.01056313,-0.02882463,-0.81783345
'00:11:52.284,0.061523,0.028320,1.004883,0.426829,1.402439,-0.548781,-4.550000,17.731251,19.568750,29.755,0.57464155,-0.01056099,-0.02883379,-0.81782894
'00:11:52.294,0.060059,0.027344,1.002930,0.426829,1.463415,-0.609756,-4.550000,17.762501,19.593750,29.771,0.57464420,-0.01055102,-0.02882977,-0.81782734
'00:11:52.304,0.061035,0.028320,1.003418,0.426829,1.463415,-0.609756,-4.550000,17.762501,19.593750,29.710,0.57464661,-0.01054261,-0.02883515,-0.81782557
'00:11:52.314,0.061523,0.028320,1.003418,0.487805,1.402439,-0.548781,-4.831250,18.175001,19.925001,29.725,0.57464186,-0.01052748,-0.02883664,-0.81782905
'00:11:52.324,0.060059,0.028320,1.004395,0.426829,1.402439,-0.548781,-4.725000,18.025000,19.762501,29.771,0.57464166,-0.01051134,-0.02883271,-0.81782953
'00:11:52.334,0.060547,0.028320,1.004395,0.426829,1.402439,-0.609756,-4.725000,18.025000,19.762501,29.771,0.57463713,-0.01049801,-0.02883085,-0.81783296
'00:11:52.344,0.060059,0.027344,1.004395,0.365854,1.341463,-0.609756,-4.618750,17.743750,19.693750,29.831,0.57463390,-0.01049614,-0.02882205,-0.81783556
'00:11:52.354,0.061523,0.028320,1.004395,0.243902,1.280488,-0.609756,-4.618750,17.743750,19.693750,29.786,0.57463017,-0.01050904,-0.02881923,-0.81783812
'00:11:52.364,0.061035,0.027344,1.001953,0.304878,1.280488,-0.609756,-4.593750,17.750000,19.668751,29.740,0.57462868,-0.01052207,-0.02881640,-0.81783909
'00:11:52.374,0.061035,0.027832,1.003418,0.426829,1.402439,-0.548781,-4.593750,17.750000,19.668751,29.755,0.57463185,-0.01051794,-0.02881836,-0.81783685
'00:11:52.384,0.062012,0.027832,1.003906,0.487805,1.463415,-0.609756,-4.618750,17.712500,19.650000,29.755,0.57462833,-0.01050954,-0.02882252,-0.81783929
'00:11:52.396,0.060547,0.029297,1.003906,0.365854,1.402439,-0.609756,-4.618750,17.712500,19.650000,29.725,0.57462350,-0.01049520,-0.02882379,-0.81784282
'00:11:52.404,0.059570,0.029297,1.004883,0.304878,1.280488,-0.670732,-5.018750,18.456251,20.118750,29.771,0.57460687,-0.01048054,-0.02881129,-0.81785513
'00:11:52.414,0.060059,0.027832,1.003418,0.243902,1.280488,-0.609756,-5.018750,18.456251,20.118750,29.771,0.57459076,-0.01047442,-0.02878589,-0.81786742
'00:11:52.426,0.060059,0.028320,1.002441,0.365854,1.280488,-0.548781,-4.981250,18.300001,20.050001,29.786,0.57457590,-0.01045801,-0.02876922,-0.81787866
'00:11:52.434,0.059570,0.029297,1.002930,0.426829,1.463415,-0.548781,-4.981250,18.300001,20.050001,29.771,0.57456633,-0.01042913,-0.02875721,-0.81788617
'00:11:52.444,0.062012,0.029297,1.003906,0.426829,1.402439,-0.609756,-4.625000,17.806250,19.693750,29.816,0.57456428,-0.01042485,-0.02877145,-0.81788717
'00:11:52.454,0.060059,0.029297,1.003418,0.304878,1.341463,-0.609756,-4.625000,17.806250,19.693750,29.755,0.57456203,-0.01042025,-0.02877228,-0.81788877
'00:11:52.464,0.060059,0.029297,1.003906,0.304878,1.280488,-0.548781,-4.625000,17.787500,19.681250,29.801,0.57456363,-0.01041984,-0.02877551,-0.81788754
'00:11:52.474,0.061035,0.027832,1.003418,0.243902,1.219512,-0.609756,-4.625000,17.787500,19.681250,29.786,0.57456092,-0.01043817,-0.02877312,-0.81788929
'00:11:52.484,0.061035,0.027344,1.003906,0.304878,1.280488,-0.548781,-4.581250,17.712500,19.650000,29.725,0.57456434,-0.01045255,-0.02877074,-0.81788680
'00:11:52.494,0.061035,0.028320,1.002930,0.487805,1.463415,-0.548781,-4.581250,17.712500,19.650000,29.771,0.57456813,-0.01044074,-0.02877828,-0.81788402
'00:11:52.504,0.061523,0.028320,1.003906,0.487805,1.463415,-0.548781,-4.587500,17.775000,19.668751,29.786,0.57457280,-0.01043210,-0.02878814,-0.81788050
'00:11:52.514,0.062012,0.028809,1.003906,0.304878,1.280488,-0.548781,-4.587500,17.775000,19.668751,29.786,0.57457670,-0.01044651,-0.02879871,-0.81787720
'00:11:52.525,0.059570,0.027832,1.003418,0.182927,1.158537,-0.548781,-4.762500,18.018751,19.800001,29.755,0.57457302,-0.01045988,-0.02878162,-0.81788022
'00:11:52.534,0.062012,0.027832,1.002930,0.243902,1.219512,-0.548781,-4.762500,18.018751,19.800001,29.786,0.57457012,-0.01047628,-0.02877787,-0.81788218
'00:11:52.544,0.061523,0.028320,1.002930,0.487805,1.402439,-0.548781,-4.618750,17.868750,19.737501,29.771,0.57457422,-0.01047110,-0.02879066,-0.81787891
'00:11:52.554,0.060059,0.029785,1.001953,0.487805,1.463415,-0.548781,-4.618750,17.868750,19.737501,29.786,0.57457819,-0.01044768,-0.02880316,-0.81787599
'00:11:52.565,0.060547,0.028809,1.005371,0.365854,1.463415,-0.548781,-4.556250,17.681250,19.600000,29.786,0.57458344,-0.01043672,-0.02880263,-0.81787246
'00:11:52.574,0.060059,0.027832,1.004883,0.304878,1.280488,-0.548781,-4.556250,17.681250,19.600000,29.755,0.57458748,-0.01044357,-0.02879989,-0.81786962
'00:11:52.584,0.061035,0.028320,1.003906,0.243902,1.158537,-0.548781,-4.593750,17.800001,19.668751,29.786,0.57459122,-0.01046594,-0.02880535,-0.81786652
'00:11:52.594,0.061035,0.027832,1.001953,0.365854,1.341463,-0.548781,-4.562500,17.743750,19.662500,29.786,0.57459648,-0.01047244,-0.02880936,-0.81786260
'00:11:52.604,0.060059,0.028320,1.002441,0.609756,1.585366,-0.670732,-4.562500,17.743750,19.662500,29.771,0.57459380,-0.01044130,-0.02881727,-0.81786461
'00:11:52.614,0.061523,0.029297,1.003418,0.548781,1.585366,-0.548781,-5.018750,18.368750,20.131250,29.801,0.57458086,-0.01040006,-0.02881004,-0.81787447
'00:11:52.624,0.059570,0.029785,1.003418,0.365854,1.402439,-0.548781,-5.018750,18.368750,20.131250,29.801,0.57456737,-0.01036909,-0.02879430,-0.81788490
'00:11:52.634,0.060059,0.029785,1.002930,0.243902,1.219512,-0.609756,-4.706250,18.012501,19.881250,29.771,0.57456298,-0.01037340,-0.02879754,-0.81788782
'00:11:52.645,0.060547,0.027344,1.003418,0.304878,1.219512,-0.548781,-4.706250,18.012501,19.881250,29.801,0.57456355,-0.01038859,-0.02879233,-0.81788741
'00:11:52.654,0.061035,0.027344,1.003906,0.426829,1.402439,-0.548781,-4.600000,17.781250,19.643751,29.755,0.57456729,-0.01038858,-0.02879245,-0.81788477
'00:11:52.664,0.060547,0.028320,1.003906,0.609756,1.585366,-0.609756,-4.600000,17.781250,19.643751,29.740,0.57456753,-0.01035951,-0.02880016,-0.81788470
'00:11:52.674,0.061035,0.027832,1.003906,0.670732,1.585366,-0.609756,-4.581250,17.775000,19.656250,29.710,0.57456906,-0.01033368,-0.02881257,-0.81788352
'00:11:52.684,0.060547,0.029297,1.003418,0.487805,1.524390,-0.548781,-4.581250,17.775000,19.656250,29.740,0.57457434,-0.01031331,-0.02882145,-0.81787975
'00:11:52.694,0.061035,0.028320,1.003418,0.426829,1.341463,-0.609756,-4.606250,17.762501,19.637501,29.786,0.57457300,-0.01031408,-0.02882919,-0.81788041
'00:11:52.704,0.060547,0.027344,1.003906,0.365854,1.341463,-0.548781,-4.606250,17.762501,19.637501,29.725,0.57457618,-0.01031913,-0.02882465,-0.81787828
'00:11:52.714,0.060547,0.028320,1.002441,0.426829,1.402439,-0.548781,-4.837500,18.156250,19.856251,29.725,0.57457149,-0.01030473,-0.02881845,-0.81788197
'00:11:52.726,0.059082,0.029297,1.002930,0.426829,1.463415,-0.609756,-4.837500,18.156250,19.856251,29.771,0.57456072,-0.01026788,-0.02880707,-0.81789040
'00:11:52.734,0.060547,0.028320,1.003418,0.426829,1.463415,-0.548781,-4.900000,18.187500,19.912500,29.786,0.57455428,-0.01025088,-0.02879643,-0.81789551
'00:11:52.744,0.060059,0.028809,1.002930,0.426829,1.402439,-0.609756,-4.900000,18.187500,19.912500,29.755,0.57454171,-0.01022961,-0.02878748,-0.81790492
'00:11:52.754,0.060059,0.028809,1.002930,0.426829,1.402439,-0.609756,-4.600000,17.768751,19.631250,29.755,0.57454138,-0.01022061,-0.02879276,-0.81790508
'00:11:52.766,0.059570,0.028320,1.003906,0.365854,1.402439,-0.548781,-4.600000,17.768751,19.631250,29.771,0.57454632,-0.01021263,-0.02878755,-0.81790189
'00:11:52.774,0.059570,0.028320,1.003906,0.365854,1.402439,-0.548781,-4.656250,17.800001,19.656250,29.771,0.57454697,-0.01020499,-0.02878116,-0.81790176
'00:11:52.784,0.060547,0.028320,1.002930,0.487805,1.463415,-0.609756,-4.656250,17.800001,19.656250,29.786,0.57454367,-0.01019062,-0.02878325,-0.81790418
'00:11:52.794,0.060059,0.028320,1.004395,0.609756,1.585366,-0.609756,-4.525000,17.725000,19.637501,29.725,0.57454841,-0.01016588,-0.02879405,-0.81790078
'00:11:52.806,0.060547,0.028809,1.003418,0.609756,1.524390,-0.609756,-4.800000,18.062500,19.837500,29.725,0.57453912,-0.01012850,-0.02879972,-0.81790757
'00:11:52.814,0.060547,0.028809,1.003418,0.609756,1.524390,-0.609756,-4.800000,18.062500,19.837500,29.725,0.57453300,-0.01010405,-0.02880350,-0.81791203
'00:11:52.824,0.060059,0.029297,1.004883,0.487805,1.524390,-0.609756,-4.800000,18.062500,19.837500,29.771,0.57452523,-0.01007502,-0.02879979,-0.81791798
'00:11:52.835,0.060547,0.028809,1.003906,0.487805,1.463415,-0.548781,-4.912500,18.181250,19.950001,29.786,0.57451562,-0.01004858,-0.02879205,-0.81792533
'00:11:52.845,0.060059,0.028809,1.003906,0.548781,1.524390,-0.548781,-4.637500,17.887501,19.681250,29.786,0.57452034,-0.01002694,-0.02879948,-0.81792202
'00:11:52.854,0.060059,0.028320,1.003906,0.670732,1.585366,-0.609756,-4.637500,17.887501,19.681250,29.801,0.57452102,-0.00999995,-0.02880868,-0.81792155
'00:11:52.864,0.060547,0.029785,1.004883,0.548781,1.524390,-0.609756,-4.681250,17.906250,19.781250,29.786,0.57451820,-0.00997524,-0.02881984,-0.81792344
'00:11:52.874,0.059570,0.029785,1.004395,0.426829,1.341463,-0.609756,-4.681250,17.906250,19.781250,29.786,0.57451488,-0.00996470,-0.02882766,-0.81792562
'00:11:52.886,0.060547,0.029785,1.004395,0.182927,1.158537,-0.548781,-4.556250,17.756250,19.631250,29.801,0.57452239,-0.00999580,-0.02883976,-0.81791954
'00:11:52.894,0.061035,0.028320,1.004883,0.121951,1.036585,-0.548781,-4.556250,17.756250,19.631250,29.816,0.57452727,-0.01003239,-0.02884366,-0.81791553
'00:11:52.904,0.060547,0.028320,1.002441,0.182927,1.158537,-0.609756,-4.743750,18.025000,19.893751,29.771,0.57452129,-0.01005596,-0.02883663,-0.81791969
'00:11:52.914,0.061523,0.029297,1.002930,0.426829,1.402439,-0.548781,-4.743750,18.025000,19.893751,29.755,0.57452023,-0.01005115,-0.02884405,-0.81792023
'00:11:52.926,0.059570,0.028809,1.004395,0.670732,1.585366,-0.548781,-4.787500,18.137501,19.881250,29.755,0.57451952,-0.01000265,-0.02884858,-0.81792116
'00:11:52.935,0.061523,0.028809,1.004883,0.609756,1.585366,-0.609756,-4.787500,18.137501,19.881250,29.786,0.57451504,-0.00997914,-0.02885483,-0.81792437
'00:11:52.944,0.060547,0.029785,1.003906,0.609756,1.585366,-0.609756,-4.775000,18.087500,19.881250,29.771,0.57451020,-0.00994789,-0.02886275,-0.81792788
'00:11:52.954,0.060059,0.029297,1.003906,0.487805,1.463415,-0.609756,-4.775000,18.087500,19.881250,29.816,0.57450458,-0.00992770,-0.02886422,-0.81793202
'00:11:52.967,0.060547,0.029297,1.003906,0.426829,1.402439,-0.548781,-4.581250,17.825001,19.625000,29.816,0.57451374,-0.00992542,-0.02887947,-0.81792507
'00:11:52.974,0.060059,0.030273,1.003906,0.243902,1.219512,-0.548781,-4.581250,17.825001,19.625000,29.786,0.57451808,-0.00993504,-0.02888734,-0.81792163
'00:11:52.984,0.059082,0.028320,1.002930,0.060976,1.097561,-0.548781,-4.606250,17.837500,19.668751,29.755,0.57452257,-0.00996782,-0.02887498,-0.81791851
'00:11:52.994,0.060547,0.028809,1.001953,0.121951,1.097561,-0.609756,-4.606250,17.837500,19.668751,29.725,0.57452253,-0.01000335,-0.02887619,-0.81791807
'00:11:53.006,0.061035,0.028809,1.002441,0.426829,1.402439,-0.548781,-4.537500,17.781250,19.675001,29.801,0.57453304,-0.01000865,-0.02889231,-0.81791005
'00:11:53.014,0.058594,0.027832,1.002930,0.670732,1.707317,-0.609756,-4.537500,17.781250,19.675001,29.816,0.57453758,-0.00997686,-0.02889203,-0.81790726
'00:11:53.024,0.058594,0.028320,1.004395,0.670732,1.768293,-0.609756,-4.862500,18.212500,19.956251,29.740,0.57452955,-0.00991749,-0.02887528,-0.81791421
'00:11:53.034,0.059082,0.028809,1.004395,0.609756,1.585366,-0.548781,-4.862500,18.212500,19.956251,29.816,0.57452540,-0.00987608,-0.02886836,-0.81791787
'00:11:53.047,0.059570,0.029297,1.004883,0.243902,1.219512,-0.548781,-4.843750,18.106251,19.875000,29.801,0.57451736,-0.00988106,-0.02885427,-0.81792396
'00:11:53.054,0.059082,0.029297,1.003906,0.000000,0.975610,-0.487805,-4.843750,18.106251,19.875000,29.755,0.57451553,-0.00990281,-0.02884213,-0.81792541
'00:11:53.064,0.060059,0.028809,1.001953,0.060976,0.975610,-0.548781,-4.606250,17.831251,19.662500,29.755,0.57451959,-0.00994849,-0.02884366,-0.81792195
'00:11:53.074,0.061035,0.028320,1.001953,0.487805,1.524390,-0.548781,-4.606250,17.831251,19.662500,29.816,0.57452536,-0.00994037,-0.02884910,-0.81791780
'00:11:53.086,0.060547,0.028320,1.001953,0.914634,2.012195,-0.609756,-4.531250,17.706251,19.662500,29.816,0.57453190,-0.00986375,-0.02886411,-0.81791361
'00:11:53.094,0.060059,0.028320,1.004883,1.097561,2.134146,-0.670732,-4.531250,17.706251,19.662500,29.771,0.57453326,-0.00979642,-0.02887708,-0.81791300
'00:11:53.104,0.059082,0.029297,1.003906,0.853659,1.890244,-0.609756,-4.618750,17.875000,19.637501,29.740,0.57453621,-0.00973042,-0.02888715,-0.81791136
'00:11:53.114,0.059082,0.029297,1.005371,0.487805,1.463415,-0.548781,-4.531250,17.887501,19.656250,29.740,0.57454857,-0.00971974,-0.02889891,-0.81790239
'00:11:53.124,0.059082,0.029297,1.003906,0.121951,1.097561,-0.548781,-4.531250,17.887501,19.656250,29.801,0.57455965,-0.00975389,-0.02890328,-0.81789405
'00:11:53.134,0.061035,0.029785,1.002930,0.060976,0.975610,-0.548781,-4.600000,17.781250,19.643751,29.801,0.57456287,-0.00980262,-0.02891239,-0.81789088
'00:11:53.144,0.060059,0.029297,1.002930,0.000000,1.036585,-0.548781,-4.600000,17.781250,19.643751,29.755,0.57456622,-0.00984578,-0.02890716,-0.81788819
'00:11:53.154,0.059082,0.029297,1.002930,0.182927,1.158537,-0.548781,-4.593750,17.800001,19.637501,29.771,0.57457089,-0.00986556,-0.02890591,-0.81788472
'00:11:53.166,0.060547,0.029297,1.001953,0.304878,1.280488,-0.609756,-4.593750,17.800001,19.637501,29.725,0.57457161,-0.00988107,-0.02891502,-0.81788370
'00:11:53.174,0.062012,0.028809,1.003418,0.548781,1.524390,-0.548781,-4.587500,17.818750,19.718750,29.786,0.57457665,-0.00987624,-0.02892757,-0.81787977
'00:11:53.184,0.060547,0.028320,1.001953,0.792683,1.829268,-0.609756,-4.587500,17.818750,19.718750,29.816,0.57457971,-0.00983024,-0.02893716,-0.81787784
'00:11:53.194,0.060059,0.027832,1.003906,1.097561,2.195122,-0.609756,-4.518750,17.818750,19.631250,29.816,0.57458936,-0.00974651,-0.02895016,-0.81787160
'00:11:53.206,0.057129,0.032227,1.006348,1.219512,2.317073,-0.731707,-4.518750,17.818750,19.631250,29.725,0.57459016,-0.00958749,-0.02898408,-0.81787172
'00:11:53.214,0.063477,0.026855,1.000000,-0.243902,0.609756,-0.426829,-4.750000,18.131250,19.875000,29.725,0.57459647,-0.00967900,-0.02897953,-0.81786637
'00:11:53.224,0.060547,0.028320,1.001465,1.158537,2.134146,-0.670732,-4.750000,18.131250,19.875000,29.740,0.57459163,-0.00959009,-0.02899379,-0.81787031
'00:11:53.234,0.059570,0.029297,1.002930,-0.243902,0.609756,-0.426829,-4.781250,18.206251,19.856251,29.786,0.57459877,-0.00967148,-0.02898465,-0.81786466
'00:11:53.248,0.058594,0.030273,1.005859,0.914634,1.951220,-0.609756,-4.781250,18.206251,19.856251,29.740,0.57459620,-0.00955409,-0.02899434,-0.81786751
'00:11:53.254,0.061523,0.025879,1.000488,0.000000,0.914634,-0.426829,-4.637500,17.925001,19.818750,29.755,0.57460370,-0.00960113,-0.02898642,-0.81786197
'00:11:53.264,0.055664,0.033691,1.006836,0.548781,1.585366,-0.670732,-4.637500,17.925001,19.818750,29.740,0.57459946,-0.00953680,-0.02899800,-0.81786528
'00:11:53.274,0.062500,0.026367,1.000000,0.426829,1.341463,-0.548781,-4.568750,17.837500,19.625000,29.801,0.57460817,-0.00956945,-0.02900468,-0.81785855
'00:11:53.284,0.057129,0.032227,1.006348,0.182927,1.219512,-0.548781,-4.568750,17.837500,19.625000,29.740,0.57461533,-0.00956732,-0.02900963,-0.81785337
'00:11:53.294,0.060547,0.029297,1.002930,0.609756,1.585366,-0.609756,-4.512500,17.781250,19.662500,29.816,0.57462237,-0.00955239,-0.02902791,-0.81784795
'00:11:53.304,0.061035,0.028320,1.002930,0.121951,1.097561,-0.548781,-4.512500,17.781250,19.662500,29.755,0.57463227,-0.00960373,-0.02903177,-0.81784025
'00:11:53.314,0.060059,0.030762,1.005371,0.487805,1.463415,-0.548781,-4.512500,17.781250,19.662500,29.755,0.57464281,-0.00959384,-0.02905244,-0.81783223
'00:11:53.326,0.062500,0.026855,1.000977,0.365854,1.341463,-0.609756,-4.512500,17.781250,19.662500,29.755,0.57465049,-0.00963636,-0.02906047,-0.81782605
'00:11:53.334,0.059570,0.030762,1.003418,0.243902,1.219512,-0.548781,-4.750000,18.062500,19.837500,29.786,0.57464944,-0.00964130,-0.02906133,-0.81782670
'00:11:53.344,0.059082,0.029785,1.002930,0.487805,1.524390,-0.548781,-4.750000,18.062500,19.837500,29.755,0.57464931,-0.00961475,-0.02905722,-0.81782724
'00:11:53.354,0.059570,0.028809,1.001953,0.304878,1.219512,-0.548781,-4.893750,18.368750,20.087500,29.831,0.57464464,-0.00962236,-0.02904779,-0.81783077
'00:11:53.366,0.058105,0.031250,1.005371,0.426829,1.341463,-0.548781,-4.893750,18.368750,20.087500,29.786,0.57463901,-0.00959145,-0.02904773,-0.81783509
'00:11:53.374,0.059082,0.029785,1.002930,0.365854,1.402439,-0.609756,-4.506250,17.781250,19.631250,29.755,0.57464439,-0.00959134,-0.02905319,-0.81783112
'00:11:53.384,0.058105,0.029785,1.003418,0.243902,1.219512,-0.548781,-4.525000,17.812500,19.668751,29.755,0.57465415,-0.00960417,-0.02905533,-0.81782404
'00:11:53.396,0.059082,0.029785,1.003906,0.365854,1.341463,-0.548781,-4.525000,17.812500,19.668751,29.786,0.57466623,-0.00960803,-0.02906534,-0.81781515
'00:11:53.405,0.061035,0.028809,1.002930,0.365854,1.341463,-0.548781,-4.562500,17.887501,19.700001,29.740,0.57467435,-0.00962325,-0.02907375,-0.81780896
'00:11:53.414,0.059082,0.029785,1.002441,0.365854,1.280488,-0.548781,-4.562500,17.887501,19.700001,29.725,0.57468217,-0.00962880,-0.02908298,-0.81780308
'00:11:53.424,0.060059,0.030273,1.002441,0.365854,1.341463,-0.609756,-4.881250,18.275000,19.943750,29.801,0.57467235,-0.00962009,-0.02908042,-0.81781017
'00:11:53.434,0.060547,0.029785,1.003906,0.365854,1.341463,-0.548781,-4.881250,18.275000,19.943750,29.755,0.57466703,-0.00961600,-0.02907647,-0.81781410
'00:11:53.447,0.060547,0.029297,1.004395,0.365854,1.280488,-0.548781,-4.950000,18.331251,20.012501,29.771,0.57465545,-0.00961475,-0.02906645,-0.81782261
'00:11:53.454,0.059082,0.030273,1.005371,0.365854,1.341463,-0.609756,-4.950000,18.331251,20.012501,29.801,0.57464619,-0.00960254,-0.02905865,-0.81782953
'00:11:53.464,0.059570,0.029297,1.002930,0.426829,1.341463,-0.609756,-4.556250,17.812500,19.681250,29.786,0.57464980,-0.00960558,-0.02906838,-0.81782661
'00:11:53.474,0.059570,0.029785,1.003906,0.365854,1.402439,-0.548781,-4.556250,17.812500,19.681250,29.786,0.57465773,-0.00960521,-0.02907291,-0.81782088
'00:11:53.484,0.058105,0.030762,1.001953,0.365854,1.341463,-0.548781,-4.581250,17.787500,19.700001,29.786,0.57466290,-0.00959544,-0.02907836,-0.81781717
'00:11:53.495,0.058105,0.030762,1.001953,0.365854,1.341463,-0.548781,-4.581250,17.787500,19.700001,29.786,0.57466858,-0.00958483,-0.02908425,-0.81781310
'00:11:53.504,0.059082,0.029297,1.002930,0.365854,1.341463,-0.548781,-4.587500,17.887501,19.681250,29.786,0.57467519,-0.00958723,-0.02908621,-0.81780835
'00:11:53.514,0.059082,0.029785,1.003906,0.365854,1.341463,-0.548781,-4.587500,17.887501,19.681250,29.755,0.57468241,-0.00958764,-0.02909074,-0.81780311
'00:11:53.524,0.059082,0.029785,1.004395,0.304878,1.402439,-0.548781,-4.562500,17.806250,19.662500,29.771,0.57468970,-0.00958708,-0.02908772,-0.81779810
'00:11:53.534,0.060059,0.028809,1.003906,0.426829,1.402439,-0.548781,-4.562500,17.806250,19.662500,29.740,0.57469724,-0.00958997,-0.02909188,-0.81779263
'00:11:53.544,0.061035,0.029785,1.003418,0.304878,1.402439,-0.609756,-4.831250,18.200001,19.912500,29.786,0.57468941,-0.00958950,-0.02908458,-0.81779839
'00:11:53.554,0.060547,0.029297,1.002930,0.365854,1.341463,-0.548781,-4.831250,18.200001,19.912500,29.801,0.57468598,-0.00958988,-0.02908032,-0.81780095
'00:11:53.564,0.060547,0.028809,1.002930,0.365854,1.341463,-0.548781,-4.562500,17.787500,19.743750,29.786,0.57469253,-0.00960314,-0.02908503,-0.81779602
'00:11:53.574,0.060547,0.029297,1.002930,0.304878,1.341463,-0.548781,-4.562500,17.787500,19.743750,29.771,0.57469887,-0.00961722,-0.02908810,-0.81779129
'00:11:53.584,0.059082,0.029297,1.003906,0.365854,1.280488,-0.548781,-4.518750,17.800001,19.668751,29.786,0.57470882,-0.00962662,-0.02909616,-0.81778390
'00:11:53.594,0.059082,0.030273,1.003418,0.426829,1.341463,-0.609756,-4.518750,17.800001,19.668751,29.771,0.57471434,-0.00962437,-0.02911123,-0.81777951
'00:11:53.604,0.059082,0.029785,1.003906,0.365854,1.402439,-0.548781,-4.493750,17.781250,19.612501,29.771,0.57472597,-0.00962407,-0.02911725,-0.81777113
'00:11:53.614,0.059570,0.030273,1.002930,0.426829,1.402439,-0.609756,-4.493750,17.781250,19.612501,29.755,0.57473311,-0.00962149,-0.02913270,-0.81776559
'00:11:53.624,0.060547,0.029785,1.002441,0.426829,1.341463,-0.548781,-4.550000,17.800001,19.593750,29.801,0.57474098,-0.00962756,-0.02914814,-0.81775944
'00:11:53.634,0.057129,0.030762,1.002930,0.365854,1.341463,-0.609756,-4.706250,18.025000,19.837500,29.786,0.57473752,-0.00960705,-0.02914312,-0.81776229
'00:11:53.644,0.059082,0.029785,1.004395,0.365854,1.402439,-0.609756,-4.706250,18.025000,19.837500,29.755,0.57473444,-0.00959712,-0.02913677,-0.81776480
'00:11:53.655,0.059082,0.029785,1.003906,0.426829,1.341463,-0.609756,-4.793750,18.150000,19.912500,29.786,0.57472715,-0.00958412,-0.02913391,-0.81777017
'00:11:53.664,0.059570,0.028320,1.004883,0.304878,1.280488,-0.548781,-4.793750,18.150000,19.912500,29.755,0.57472520,-0.00959074,-0.02912045,-0.81777195
'00:11:53.674,0.061035,0.029785,1.006836,0.304878,1.280488,-0.609756,-4.568750,17.775000,19.668751,29.786,0.57472639,-0.00960814,-0.02912849,-0.81777062
'00:11:53.684,0.059570,0.029297,1.004883,0.304878,1.219512,-0.548781,-4.568750,17.775000,19.668751,29.725,0.57473188,-0.00962394,-0.02913151,-0.81776647
'00:11:53.694,0.058594,0.029785,1.003906,0.304878,1.158537,-0.548781,-4.581250,17.850000,19.681250,29.725,0.57473786,-0.00963678,-0.02913751,-0.81776190
'00:11:53.704,0.061035,0.029297,1.001465,0.243902,1.219512,-0.548781,-4.581250,17.850000,19.681250,29.786,0.57474386,-0.00966431,-0.02914389,-0.81775713
'00:11:53.714,0.060059,0.030273,1.002930,0.365854,1.280488,-0.548781,-4.593750,17.800001,19.712500,29.801,0.57474775,-0.00966982,-0.02915466,-0.81775395
'00:11:53.724,0.059082,0.030762,1.002441,0.365854,1.463415,-0.609756,-4.593750,17.800001,19.712500,29.771,0.57474764,-0.00965461,-0.02915523,-0.81775419
'00:11:53.734,0.058594,0.029297,1.002930,0.365854,1.402439,-0.609756,-4.881250,18.293751,19.962500,29.771,0.57473818,-0.00963684,-0.02913714,-0.81776169
'00:11:53.744,0.053223,0.028809,1.002930,0.243902,1.463415,-0.792683,-4.881250,18.293751,19.962500,29.801,0.57471604,-0.00959279,-0.02908388,-0.81777966
'00:11:53.756,0.060059,0.030273,1.005859,0.243902,1.524390,-1.097561,-4.862500,18.225000,19.987501,29.786,0.57466291,-0.00957288,-0.02905831,-0.81781814
'00:11:53.764,0.060547,0.029785,1.005371,0.304878,1.402439,-1.036585,-4.862500,18.225000,19.987501,29.786,0.57463101,-0.00956842,-0.02904957,-0.81784092
'00:11:53.774,0.061523,0.029297,1.004883,0.304878,1.280488,-0.853659,-4.543750,17.756250,19.675001,29.786,0.57461665,-0.00959250,-0.02906086,-0.81785032
'00:11:53.784,0.060059,0.029785,1.003418,0.243902,1.280488,-0.731707,-4.543750,17.756250,19.675001,29.816,0.57461088,-0.00960969,-0.02906509,-0.81785403
'00:11:53.794,0.060547,0.029297,1.002930,0.182927,1.219512,-0.670732,-4.543750,17.775000,19.625000,29.771,0.57460993,-0.00963910,-0.02906776,-0.81785425
'00:11:53.804,0.061035,0.029297,1.002441,0.243902,1.280488,-0.609756,-4.543750,17.775000,19.625000,29.755,0.57461345,-0.00966365,-0.02907373,-0.81785128
'00:11:53.814,0.060059,0.029785,1.001465,0.365854,1.341463,-0.609756,-4.550000,17.793751,19.568750,29.801,0.57461732,-0.00966976,-0.02908456,-0.81784810
'00:11:53.824,0.060059,0.029785,1.004883,0.243902,1.280488,-0.609756,-4.550000,17.793751,19.568750,29.771,0.57462092,-0.00968547,-0.02908816,-0.81784526
'00:11:53.834,0.059570,0.028809,1.003906,0.243902,1.219512,-0.609756,-4.550000,17.762501,19.700001,29.725,0.57462328,-0.00970668,-0.02908647,-0.81784341
'00:11:53.844,0.060547,0.029785,1.005371,0.243902,1.158537,-0.548781,-4.550000,17.762501,19.700001,29.755,0.57462954,-0.00973327,-0.02909674,-0.81783833
'00:11:53.855,0.060059,0.029297,1.003906,0.182927,1.097561,-0.609756,-5.018750,18.475000,20.125000,29.786,0.57461219,-0.00974979,-0.02907949,-0.81785094
'00:11:53.864,0.058594,0.030273,1.001953,0.243902,1.219512,-0.609756,-5.018750,18.475000,20.125000,29.786,0.57459820,-0.00974230,-0.02906455,-0.81786139
'00:11:53.874,0.058105,0.030273,1.002441,0.365854,1.402439,-0.609756,-4.625000,17.912500,19.743750,29.755,0.57459883,-0.00972705,-0.02906342,-0.81786117
'00:11:53.884,0.056152,0.030762,1.000977,0.487805,1.585366,-0.853659,-4.625000,17.912500,19.743750,29.755,0.57458262,-0.00967952,-0.02905765,-0.81787332
'00:11:53.894,0.054199,0.033691,1.002930,0.426829,1.585366,-1.402439,-4.575000,17.787500,19.656250,29.786,0.57452785,-0.00961207,-0.02905781,-0.81791259
'00:11:53.904,0.047852,0.037109,1.001953,0.487805,1.707317,-2.439024,-4.518750,17.793751,19.643751,29.786,0.57440340,-0.00948415,-0.02905664,-0.81800153
'00:11:53.914,0.037109,0.048340,1.003418,0.609756,1.829268,-4.817073,-4.518750,17.793751,19.643751,29.801,0.57410770,-0.00922870,-0.02908152,-0.81821113
'00:11:53.924,0.025391,0.050293,1.003418,0.731707,1.524390,-9.146341,-4.568750,17.750000,19.531250,29.771,0.57349894,-0.00890490,-0.02909367,-0.81864108
'00:11:53.934,0.046387,0.041504,1.008789,-1.646341,-1.463415,-11.890244,-4.568750,17.750000,19.531250,29.755,0.57268944,-0.00906950,-0.02912230,-0.81920476
'00:11:53.944,0.090820,0.017090,0.999023,2.926829,4.329268,-12.682927,-4.981250,18.131250,19.875000,29.755,0.57182559,-0.00890126,-0.02920278,-0.81980697
'00:11:53.954,0.085938,0.013672,0.993652,1.463415,2.865854,-8.475610,-4.981250,18.131250,19.875000,29.755,0.57126072,-0.00891736,-0.02921641,-0.82020002
'00:11:53.964,0.070312,0.012695,1.002441,-1.280488,-0.670732,-4.573171,-4.943750,17.975000,19.731251,29.755,0.57096581,-0.00925822,-0.02914070,-0.82040426
'00:11:53.974,0.068359,0.025391,1.012695,0.000000,0.548781,-3.719512,-4.943750,17.975000,19.731251,29.786,0.57073423,-0.00938581,-0.02915556,-0.82056340
'00:11:53.984,0.076172,0.023438,1.007812,0.182927,1.097561,-2.682927,-4.731250,17.656250,19.493750,29.786,0.57058669,-0.00952477,-0.02918550,-0.82066334
'00:11:53.994,0.068359,0.027344,1.006348,0.548781,1.646341,-1.585366,-4.731250,17.656250,19.493750,29.801,0.57051922,-0.00955193,-0.02920625,-0.82070919
'00:11:54.004,0.063965,0.027832,1.004395,0.548781,1.646341,-0.731707,-4.750000,17.662500,19.425001,29.816,0.57051220,-0.00955436,-0.02921165,-0.82071385
'00:11:54.014,0.062012,0.027344,1.004883,0.182927,1.097561,-0.548781,-4.750000,17.662500,19.425001,29.771,0.57051677,-0.00960583,-0.02920741,-0.82071022
'00:11:54.024,0.059570,0.030273,1.006348,0.000000,0.914634,-0.548781,-4.743750,17.643751,19.450001,29.771,0.57052001,-0.00965356,-0.02920567,-0.82070747
'00:11:54.034,0.059082,0.029785,1.005371,0.060976,0.914634,-0.548781,-4.743750,17.643751,19.450001,29.771,0.57052331,-0.00969694,-0.02920394,-0.82070473
'00:11:54.044,0.058105,0.031250,1.005859,-0.304878,0.487805,-0.548781,-5.181250,18.275000,19.881250,29.740,0.57050820,-0.00976133,-0.02918250,-0.82071523
'00:11:54.054,0.049805,0.039062,1.014160,-3.231707,-2.621951,-0.243902,-5.181250,18.275000,19.881250,29.816,0.57050292,-0.01011712,-0.02911445,-0.82071701
'00:11:54.064,0.063477,0.026367,0.999512,-5.731708,-5.304878,0.060976,-5.181250,18.025000,19.837500,29.755,0.57050657,-0.01090713,-0.02898315,-0.82070900
'00:11:54.074,0.072754,0.015137,0.987305,-1.036585,-0.182927,-0.487805,-5.181250,18.025000,19.837500,29.771,0.57048898,-0.01117951,-0.02891244,-0.82072006
'00:11:54.084,0.065430,0.024414,0.999512,3.597561,4.817073,-0.853659,-4.825000,17.493750,19.462500,29.771,0.57047318,-0.01079504,-0.02895883,-0.82073455
'00:11:54.094,0.053711,0.036621,1.010742,2.621951,3.780488,-0.792683,-4.825000,17.493750,19.462500,29.831,0.57045658,-0.01042306,-0.02900582,-0.82074924
'00:11:54.104,0.059570,0.031250,1.006348,-0.487805,0.487805,-0.487805,-4.693750,17.525000,19.381250,29.801,0.57046250,-0.01051111,-0.02899932,-0.82074423
'00:11:54.114,0.066895,0.021484,0.996582,0.731707,1.829268,-0.609756,-4.693750,17.525000,19.381250,29.786,0.57046562,-0.01052238,-0.02899015,-0.82074224
'00:11:54.124,0.063477,0.026855,1.000977,3.170732,4.390244,-0.853659,-4.750000,17.456251,19.375000,29.725,0.57045356,-0.01018274,-0.02903800,-0.82075322
'00:11:54.134,0.058594,0.030762,1.004883,2.926829,4.085366,-0.792683,-4.750000,17.456251,19.375000,29.786,0.57044475,-0.00983876,-0.02908494,-0.82076187
'00:11:54.144,0.056152,0.032227,1.008789,1.707317,2.865854,-0.731707,-4.981250,17.987501,19.700001,29.755,0.57043171,-0.00962254,-0.02909648,-0.82077309
'00:11:54.154,0.060059,0.028809,1.005859,-0.853659,0.000000,-0.426829,-4.956250,17.956251,19.662500,29.786,0.57043317,-0.00977910,-0.02906556,-0.82077132
'00:11:54.164,0.060547,0.028320,1.001465,-0.670732,0.243902,-0.548781,-4.956250,17.956251,19.662500,29.755,0.57042649,-0.00991202,-0.02903681,-0.82077538
'00:11:54.174,0.063477,0.025391,0.997070,0.609756,1.707317,-0.609756,-4.831250,17.700001,19.550001,29.771,0.57042358,-0.00990704,-0.02902738,-0.82077780
'00:11:54.184,0.060547,0.029297,1.001465,2.500000,3.658537,-0.792683,-4.831250,17.700001,19.550001,29.755,0.57041348,-0.00963546,-0.02906553,-0.82078670
'00:11:54.194,0.054688,0.033691,1.009277,-1.158537,-0.426829,-0.304878,-4.700000,17.568750,19.343750,29.801,0.57043155,-0.00979741,-0.02905118,-0.82077273
'00:11:54.204,0.062988,0.025879,1.000977,0.670732,1.646341,-0.548781,-4.700000,17.568750,19.343750,29.831,0.57043990,-0.00979592,-0.02905593,-0.82076678
'00:11:54.214,0.062988,0.025879,1.000977,0.670732,1.646341,-0.548781,-4.718750,17.587500,19.425001,29.831,0.57044700,-0.00979381,-0.02905934,-0.82076175
'00:11:54.224,0.053223,0.035156,1.010254,0.670732,1.768293,-0.609756,-4.718750,17.587500,19.425001,29.755,0.57044847,-0.00968932,-0.02906765,-0.82076168
'00:11:54.234,0.059570,0.031250,1.006836,-1.036585,-0.243902,-0.487805,-4.812500,17.637501,19.443750,29.725,0.57044748,-0.00986253,-0.02905152,-0.82076088
'00:11:54.244,0.058105,0.031738,1.007324,-2.195122,-1.341463,-0.365854,-4.812500,17.637501,19.443750,29.771,0.57045106,-0.01015944,-0.02900381,-0.82075645
'00:11:54.254,0.063477,0.026855,0.998047,-2.439024,-1.646341,-0.365854,-5.087500,18.056250,19.843750,29.816,0.57044348,-0.01052694,-0.02893923,-0.82075937
'00:11:54.265,0.067383,0.020508,0.991211,0.243902,1.341463,-0.609756,-5.087500,18.056250,19.843750,29.801,0.57042758,-0.01059471,-0.02889713,-0.82077103
'00:11:54.274,0.064453,0.023926,1.000000,3.475610,4.634146,-0.914634,-4.893750,17.750000,19.550001,29.786,0.57041090,-0.01027002,-0.02893526,-0.82078540
'00:11:54.284,0.059082,0.029785,0.998535,3.597561,5.000000,-0.914634,-4.893750,17.750000,19.550001,29.786,0.57039283,-0.00982974,-0.02898093,-0.82080174
'00:11:54.294,0.039062,0.046875,1.025391,0.060976,1.219512,-0.670732,-4.725000,17.600000,19.468750,29.771,0.57038554,-0.00966581,-0.02897872,-0.82080883
'00:11:54.304,0.066406,0.022461,0.997559,0.487805,1.646341,-0.792683,-4.725000,17.600000,19.468750,29.801,0.57037573,-0.00970739,-0.02896578,-0.82081562
'00:11:54.314,0.051270,0.037109,1.011719,-0.060976,0.853659,-0.609756,-4.737500,17.556250,19.450001,29.755,0.57037228,-0.00968573,-0.02896974,-0.82081813
'00:11:54.324,0.059082,0.029785,1.001953,0.670732,1.707317,-1.036585,-4.737500,17.556250,19.450001,29.786,0.57034240,-0.00964109,-0.02897674,-0.82083917
'00:11:54.334,0.053223,0.033691,1.003418,-0.121951,0.853659,-1.036585,-4.731250,17.587500,19.437500,29.801,0.57031045,-0.00964948,-0.02896954,-0.82086152
'00:11:54.344,0.062012,0.028809,0.999023,0.121951,1.097561,-1.219512,-4.731250,17.587500,19.437500,29.786,0.57026702,-0.00969768,-0.02897635,-0.82089089
'00:11:54.354,0.063965,0.024414,0.999512,0.121951,1.097561,-0.670732,-4.987500,17.925001,19.637501,29.801,0.57025326,-0.00976341,-0.02895316,-0.82090049
'00:11:54.364,0.055664,0.034668,1.005859,1.280488,2.439024,-0.792683,-4.987500,17.925001,19.637501,29.771,0.57023322,-0.00958769,-0.02896951,-0.82091590
'00:11:54.374,0.065430,0.024414,0.999023,0.426829,1.341463,-0.609756,-5.137500,18.200001,19.818750,29.786,0.57022062,-0.00962560,-0.02895725,-0.82092464
'00:11:54.384,0.057617,0.030762,1.006348,-0.121951,0.792683,-0.487805,-5.137500,18.200001,19.818750,29.771,0.57021384,-0.00966197,-0.02893559,-0.82092969
'00:11:54.394,0.056152,0.032715,1.008789,0.426829,1.463415,-0.609756,-4.731250,17.650000,19.393751,29.786,0.57021672,-0.00962106,-0.02894344,-0.82092789
'00:11:54.404,0.062500,0.028320,1.000488,0.426829,1.402439,-0.609756,-4.731250,17.650000,19.393751,29.786,0.57022009,-0.00963950,-0.02895727,-0.82092485
'00:11:54.414,0.061523,0.030762,1.000977,0.182927,1.158537,-0.548781,-4.712500,17.543751,19.356251,29.801,0.57022544,-0.00967184,-0.02897445,-0.82092014
'00:11:54.424,0.059082,0.031738,1.002930,0.365854,1.402439,-0.548781,-4.737500,17.562500,19.456251,29.786,0.57022964,-0.00965814,-0.02898576,-0.82091699
'00:11:54.434,0.060547,0.027344,1.001953,0.426829,1.341463,-0.609756,-4.737500,17.562500,19.456251,29.801,0.57023023,-0.00967173,-0.02898531,-0.82091644
'00:11:54.444,0.059570,0.027344,1.005371,0.243902,1.219512,-0.548781,-4.812500,17.781250,19.556250,29.755,0.57023425,-0.00969543,-0.02897181,-0.82091384
'00:11:54.454,0.058594,0.030273,1.005371,0.365854,1.280488,-0.548781,-4.812500,17.781250,19.556250,29.695,0.57023791,-0.00969138,-0.02897699,-0.82091116
'00:11:54.464,0.058594,0.030273,1.003418,0.365854,1.402439,-0.670732,-4.925000,17.856251,19.662500,29.786,0.57022673,-0.00967327,-0.02896978,-0.82091940
'00:11:54.474,0.059570,0.030273,1.001953,0.243902,1.280488,-0.548781,-4.925000,17.856251,19.662500,29.801,0.57022390,-0.00967628,-0.02896435,-0.82092152
'00:11:54.484,0.060547,0.029785,1.004395,0.487805,1.463415,-0.609756,-4.775000,17.606251,19.506250,29.755,0.57022258,-0.00966603,-0.02897350,-0.82092223
'00:11:54.495,0.058105,0.030273,1.002441,0.426829,1.463415,-0.609756,-4.775000,17.606251,19.506250,29.786,0.57022105,-0.00964156,-0.02897204,-0.82092363
'00:11:54.504,0.058594,0.028809,1.002441,0.365854,1.341463,-0.548781,-4.706250,17.562500,19.412500,29.786,0.57022748,-0.00964343,-0.02897071,-0.82091919
'00:11:54.514,0.060059,0.029297,1.005859,0.365854,1.280488,-0.609756,-4.706250,17.562500,19.412500,29.755,0.57022994,-0.00965516,-0.02897949,-0.82091703
'00:11:54.524,0.060059,0.029785,1.006836,0.182927,1.097561,-0.548781,-4.718750,17.600000,19.425001,29.725,0.57023597,-0.00968663,-0.02898632,-0.82091224
'00:11:54.534,0.061035,0.030273,1.003418,0.121951,1.097561,-0.548781,-4.718750,17.600000,19.425001,29.771,0.57024167,-0.00972483,-0.02899656,-0.82090747
'00:11:54.544,0.060547,0.031738,1.000000,0.304878,1.341463,-0.609756,-4.825000,17.693750,19.506250,29.786,0.57023782,-0.00972284,-0.02900906,-0.82090972
'00:11:54.554,0.060547,0.031250,1.000977,0.365854,1.402439,-0.548781,-4.825000,17.693750,19.506250,29.786,0.57023865,-0.00971537,-0.02901947,-0.82090887
'00:11:54.565,0.060059,0.028809,1.001953,0.426829,1.524390,-0.609756,-4.962500,17.793751,19.612501,29.755,0.57022752,-0.00969422,-0.02900196,-0.82091746
'00:11:54.576,0.058594,0.028320,1.004883,0.426829,1.463415,-0.548781,-4.962500,17.793751,19.612501,29.725,0.57022132,-0.00967100,-0.02897761,-0.82092291
'00:11:54.584,0.058594,0.028320,1.005859,0.365854,1.402439,-0.548781,-4.975000,17.825001,19.656250,29.786,0.57021650,-0.00966003,-0.02895864,-0.82092705
'00:11:54.594,0.059570,0.030273,1.006348,0.304878,1.280488,-0.548781,-4.975000,17.825001,19.656250,29.786,0.57020976,-0.00965593,-0.02895152,-0.82093204
'00:11:54.604,0.060059,0.030273,1.003906,0.243902,1.158537,-0.548781,-4.743750,17.562500,19.393751,29.786,0.57021347,-0.00967662,-0.02896138,-0.82092887
'00:11:54.614,0.058594,0.031738,1.000977,-0.060976,0.914634,-0.548781,-4.743750,17.562500,19.393751,29.771,0.57021595,-0.00971617,-0.02896516,-0.82092654
'00:11:54.624,0.060059,0.030273,1.000977,-0.670732,0.365854,-0.487805,-4.768750,17.637501,19.456251,29.846,0.57022082,-0.00983852,-0.02894942,-0.82092226
'00:11:54.634,0.065430,0.023926,0.994629,0.731707,1.768293,-0.609756,-4.768750,17.637501,19.456251,29.786,0.57022251,-0.00984483,-0.02895173,-0.82092093
'00:11:54.644,0.049805,0.042480,1.020508,1.524390,2.743902,-1.036585,-4.718750,17.506250,19.343750,29.816,0.57019435,-0.00957602,-0.02899758,-0.82094204
'00:11:54.654,0.056641,0.031250,1.002930,1.097561,2.378049,-2.256098,-4.718750,17.506250,19.343750,29.755,0.57008032,-0.00944168,-0.02900211,-0.82102263
'00:11:54.664,0.062988,0.026855,1.001465,0.609756,1.768293,-2.012195,-5.018750,17.987501,19.656250,29.755,0.56997245,-0.00941986,-0.02899047,-0.82109818
'00:11:54.676,0.062012,0.025879,1.002441,0.060976,0.975610,-1.280488,-5.137500,18.200001,19.806250,29.725,0.56989938,-0.00949076,-0.02896036,-0.82114914
'00:11:54.684,0.062012,0.030273,1.001953,0.060976,0.975610,-0.914634,-5.137500,18.200001,19.806250,29.740,0.56987102,-0.00952479,-0.02896008,-0.82116844
'00:11:54.695,0.061035,0.029297,1.001953,0.304878,1.219512,-0.670732,-4.768750,17.600000,19.443750,29.786,0.56986614,-0.00955206,-0.02897147,-0.82117111
'00:11:54.704,0.060059,0.029785,1.000488,0.365854,1.402439,-0.609756,-4.768750,17.600000,19.443750,29.771,0.56986642,-0.00955329,-0.02897592,-0.82117075
'00:11:54.714,0.060059,0.029785,1.000488,0.304878,1.219512,-0.609756,-4.806250,17.487501,19.381250,29.740,0.56986120,-0.00956670,-0.02897999,-0.82117407
'00:11:54.724,0.060059,0.028809,1.007324,0.487805,1.524390,-0.548781,-4.806250,17.487501,19.381250,29.771,0.56986152,-0.00955153,-0.02897361,-0.82117425
'00:11:54.734,0.059570,0.028320,1.007812,0.304878,1.341463,-0.487805,-4.793750,17.525000,19.425001,29.786,0.56986732,-0.00955948,-0.02896020,-0.82117060
'00:11:54.744,0.059570,0.029297,1.004395,0.304878,1.219512,-0.609756,-4.793750,17.525000,19.425001,29.740,0.56986385,-0.00957262,-0.02896005,-0.82117287
'00:11:54.754,0.058105,0.031738,1.003418,0.365854,1.341463,-0.609756,-4.937500,17.793751,19.493750,29.786,0.56985639,-0.00955154,-0.02896191,-0.82117822
'00:11:54.764,0.058594,0.030273,1.000488,0.243902,1.280488,-0.548781,-4.937500,17.793751,19.493750,29.786,0.56985337,-0.00955038,-0.02895287,-0.82118065
'00:11:54.774,0.060547,0.028809,1.003906,0.243902,1.280488,-0.548781,-5.168750,18.106251,19.800001,29.771,0.56984126,-0.00955644,-0.02893145,-0.82118973
'00:11:54.784,0.058105,0.030273,1.004395,0.182927,1.097561,-0.609756,-5.168750,18.106251,19.800001,29.786,0.56982409,-0.00955949,-0.02891379,-0.82120224
'00:11:54.794,0.059082,0.029297,1.005371,-0.487805,0.426829,-0.548781,-4.781250,17.587500,19.425001,29.786,0.56982491,-0.00966784,-0.02889734,-0.82120098
'00:11:54.804,0.063965,0.027344,1.002441,-0.243902,0.792683,-0.548781,-4.781250,17.587500,19.425001,29.786,0.56982687,-0.00977151,-0.02888927,-0.82119868
'00:11:54.814,0.062012,0.026855,1.004395,0.853659,1.890244,-0.609756,-4.806250,17.618750,19.450001,29.755,0.56982707,-0.00973004,-0.02889290,-0.82119890
'00:11:54.824,0.058594,0.029297,1.003906,1.097561,2.134146,-0.609756,-4.806250,17.618750,19.450001,29.816,0.56982778,-0.00963121,-0.02890265,-0.82119923
'00:11:54.834,0.058594,0.032227,1.002441,0.548781,1.646341,-0.609756,-4.762500,17.568750,19.450001,29.771,0.56982818,-0.00958669,-0.02891688,-0.82119897
'00:11:54.844,0.059082,0.029785,1.000488,0.243902,1.219512,-0.548781,-4.762500,17.568750,19.450001,29.771,0.56983217,-0.00960157,-0.02891901,-0.82119596
'00:11:54.854,0.059570,0.029297,1.003906,0.121951,1.097561,-0.548781,-4.762500,17.531250,19.400000,29.786,0.56983513,-0.00963428,-0.02891536,-0.82119365
'00:11:54.864,0.060059,0.030273,1.005371,-0.060976,0.914634,-0.548781,-4.762500,17.531250,19.400000,29.771,0.56983721,-0.00968719,-0.02891458,-0.82119161
'00:11:54.874,0.060547,0.029785,1.007324,-0.609756,0.304878,-0.487805,-4.950000,17.893751,19.643751,29.801,0.56983624,-0.00980874,-0.02889656,-0.82119148
'00:11:54.884,0.062012,0.028809,1.006348,-0.731707,0.121951,-0.426829,-4.950000,17.893751,19.643751,29.786,0.56983902,-0.00995979,-0.02887948,-0.82118833
'00:11:54.894,0.060059,0.028320,1.002930,-0.487805,0.426829,-0.487805,-4.762500,17.593750,19.400000,29.771,0.56984517,-0.01007318,-0.02886370,-0.82118323
'00:11:54.904,0.059082,0.029297,1.005371,-1.036585,-0.121951,-0.426829,-4.762500,17.593750,19.400000,29.786,0.56985348,-0.01024174,-0.02883667,-0.82117633
'00:11:54.914,0.060059,0.028320,0.997559,-1.158537,-0.243902,-0.426829,-4.781250,17.506250,19.493750,29.755,0.56985739,-0.01043145,-0.02880458,-0.82117236
'00:11:54.924,0.064453,0.025879,0.995605,0.365854,1.280488,-0.548781,-4.781250,17.506250,19.493750,29.801,0.56985779,-0.01046784,-0.02881021,-0.82117142
'00:11:54.935,0.060547,0.027832,1.002930,1.768293,2.865854,-0.731707,-4.806250,17.487501,19.412500,29.786,0.56984730,-0.01026866,-0.02883008,-0.82118052
'00:11:54.944,0.056641,0.032227,1.008789,1.036585,2.012195,-0.609756,-4.793750,17.550001,19.456251,29.725,0.56984562,-0.01016154,-0.02884615,-0.82118245
'00:11:54.954,0.062012,0.027832,1.003906,0.182927,1.219512,-0.548781,-4.793750,17.550001,19.456251,29.771,0.56984625,-0.01019184,-0.02884003,-0.82118185
'00:11:54.964,0.063965,0.025879,1.000000,1.646341,2.804878,-0.731707,-5.068750,17.918751,19.631250,29.786,0.56982861,-0.01004278,-0.02884582,-0.82119572
'00:11:54.974,0.063965,0.025879,1.000000,1.646341,2.804878,-0.731707,-5.068750,17.918751,19.631250,29.786,0.56981127,-0.00989596,-0.02885182,-0.82120933
'00:11:54.984,0.062012,0.028809,1.004883,2.987805,4.207317,-0.853659,-5.275000,18.331251,19.950001,29.755,0.56978439,-0.00955565,-0.02888533,-0.82123083
'00:11:54.994,0.047852,0.041016,1.017090,1.097561,2.317073,-0.731707,-5.275000,18.331251,19.950001,29.786,0.56975815,-0.00932489,-0.02888595,-0.82125166
'00:11:55.005,0.060059,0.029785,1.002930,-0.060976,0.975610,-0.609756,-4.712500,17.562500,19.381250,29.786,0.56976162,-0.00939021,-0.02888647,-0.82124850
'00:11:55.016,0.059570,0.030762,1.005371,-0.853659,0.060976,-0.487805,-4.712500,17.562500,19.381250,29.831,0.56977110,-0.00956225,-0.02887723,-0.82124026
'00:11:55.024,0.059570,0.030762,1.005371,-0.853659,0.060976,-0.487805,-4.806250,17.587500,19.456251,29.831,0.56977270,-0.00968107,-0.02886478,-0.82123820
'00:11:55.034,0.062012,0.029785,1.001465,-1.341463,-0.365854,-0.426829,-4.806250,17.587500,19.456251,29.786,0.56977743,-0.00990094,-0.02884094,-0.82123313
'00:11:55.044,0.063965,0.025391,0.996094,0.000000,1.097561,-0.548781,-4.806250,17.506250,19.387501,29.771,0.56977705,-0.00997384,-0.02882349,-0.82123312
'00:11:55.054,0.064453,0.023926,0.997070,2.804878,4.024390,-0.792683,-4.806250,17.506250,19.387501,29.771,0.56976917,-0.00970435,-0.02885503,-0.82124071
'00:11:55.064,0.050293,0.035645,1.018555,3.902439,5.243903,-0.975610,-5.137500,18.081251,19.800001,29.740,0.56973994,-0.00915853,-0.02889535,-0.82126584
'00:11:55.074,0.075684,0.011230,0.986328,-0.670732,0.060976,-0.487805,-5.137500,18.081251,19.800001,29.801,0.56973380,-0.00945473,-0.02883979,-0.82126869
'00:11:55.084,0.043457,0.044434,1.018555,-0.121951,0.853659,-0.609756,-5.006250,17.987501,19.681250,29.786,0.56972220,-0.00936155,-0.02884083,-0.82127777
'00:11:55.096,0.062012,0.028809,1.002930,0.731707,1.951220,-1.097561,-5.006250,17.987501,19.681250,29.786,0.56967430,-0.00930340,-0.02883918,-0.82131172
'00:11:55.104,0.058105,0.033691,1.009277,-1.097561,-0.182927,-0.609756,-4.806250,17.593750,19.493750,29.816,0.56966853,-0.00943279,-0.02883119,-0.82131453
'00:11:55.114,0.062012,0.028809,0.997559,-2.073171,-1.280488,-0.487805,-4.806250,17.593750,19.493750,29.771,0.56966703,-0.00976345,-0.02879784,-0.82131287
'00:11:55.124,0.071777,0.020508,0.989746,0.609756,1.707317,-0.792683,-4.793750,17.518751,19.400000,29.786,0.56965353,-0.00982808,-0.02880147,-0.82132134
'00:11:55.134,0.067383,0.025879,1.000000,5.000000,6.280488,-1.158537,-4.793750,17.518751,19.400000,29.816,0.56962817,-0.00929822,-0.02890200,-0.82134156
'00:11:55.144,0.055176,0.030762,1.008301,-2.378049,-1.890244,-0.121951,-4.775000,17.562500,19.456251,29.786,0.56965286,-0.00964389,-0.02885791,-0.82132200
'00:11:55.154,0.052734,0.037598,1.022461,1.524390,2.621951,-0.914634,-4.775000,17.562500,19.456251,29.831,0.56963344,-0.00942218,-0.02889350,-0.82133680
'00:11:55.164,0.061035,0.026855,0.999023,-0.975610,-0.182927,-0.609756,-4.668750,17.512501,19.393751,29.816,0.56963550,-0.00962903,-0.02887694,-0.82133355
'00:11:55.174,0.052246,0.032227,1.001953,-1.768293,-0.731707,-0.792683,-4.668750,17.512501,19.393751,29.786,0.56962129,-0.00983887,-0.02882603,-0.82134271
'00:11:55.184,0.052246,0.033203,0.997070,-0.853659,0.182927,-1.951220,-5.225000,18.143751,19.800001,29.755,0.56950183,-0.00990752,-0.02877618,-0.82142646
'00:11:55.194,0.059570,0.026367,0.992676,1.890244,2.926829,-3.414634,-5.225000,18.143751,19.800001,29.801,0.56928843,-0.00970663,-0.02878073,-0.82157661
'00:11:55.204,0.059082,0.028320,1.011719,5.121951,6.158537,-5.000000,-4.943750,17.750000,19.562500,29.755,0.56898340,-0.00910958,-0.02887217,-0.82179152
'00:11:55.214,0.056152,0.027832,0.985352,-1.341463,-0.487805,-1.890244,-4.787500,17.487501,19.393751,29.801,0.56888631,-0.00932359,-0.02883024,-0.82185781
'00:11:55.224,0.063477,0.029297,1.016113,-0.365854,0.304878,-1.890244,-4.787500,17.487501,19.393751,29.740,0.56879163,-0.00945770,-0.02884437,-0.82192131
'00:11:55.234,0.059570,0.033691,1.006348,0.792683,1.463415,-2.865854,-4.793750,17.450001,19.331251,29.771,0.56862898,-0.00940931,-0.02889728,-0.82203254
'00:11:55.245,0.064453,0.029297,1.006836,-1.646341,-0.853659,-2.195122,-4.793750,17.450001,19.331251,29.755,0.56849566,-0.00972330,-0.02888171,-0.82212164
'00:11:55.255,0.076660,0.018066,0.994141,-1.585366,-0.670732,-0.853659,-4.812500,17.456251,19.325001,29.771,0.56847119,-0.01010150,-0.02884874,-0.82213515
'00:11:55.264,0.064941,0.023438,0.996094,2.256098,3.353659,-0.731707,-4.812500,17.456251,19.325001,29.786,0.56846838,-0.00993172,-0.02887355,-0.82213829
'00:11:55.274,0.052734,0.034180,1.011230,2.439024,3.475610,-0.792683,-5.050000,17.831251,19.537500,29.786,0.56845158,-0.00960695,-0.02890620,-0.82215262
'00:11:55.284,0.060059,0.026855,1.004395,-0.975610,-0.182927,-0.426829,-5.050000,17.831251,19.537500,29.771,0.56845079,-0.00978911,-0.02886504,-0.82215247
'00:11:55.297,0.058594,0.029297,1.004395,-0.304878,0.548781,-0.487805,-5.025000,17.781250,19.512501,29.786,0.56844707,-0.00988918,-0.02883877,-0.82215477
'00:11:55.304,0.058594,0.031250,1.001953,-0.243902,0.731707,-0.548781,-5.025000,17.781250,19.512501,29.801,0.56844198,-0.00992572,-0.02882986,-0.82215816
'00:11:55.314,0.061523,0.028320,1.000488,-0.060976,0.975610,-0.548781,-4.818750,17.525000,19.275000,29.786,0.56844500,-0.00998694,-0.02882387,-0.82215554
'00:11:55.324,0.064453,0.025391,0.997070,1.036585,2.195122,-0.670732,-4.818750,17.525000,19.275000,29.786,0.56844364,-0.00993341,-0.02883225,-0.82215684
'00:11:55.336,0.063477,0.026855,1.000977,2.378049,3.597561,-0.792683,-4.743750,17.481251,19.343750,29.786,0.56844163,-0.00966053,-0.02888353,-0.82215967
'00:11:55.344,0.051758,0.036621,1.013672,-0.548781,0.365854,-0.487805,-4.743750,17.481251,19.343750,29.786,0.56844839,-0.00969833,-0.02888157,-0.82215463
'00:11:55.354,0.054688,0.035645,1.014160,1.097561,2.195122,-0.792683,-4.868750,17.487501,19.425001,29.801,0.56843204,-0.00954470,-0.02890226,-0.82216700
'00:11:55.364,0.065430,0.024902,1.001465,-0.121951,0.731707,-0.548781,-4.868750,17.487501,19.425001,29.771,0.56843057,-0.00966352,-0.02889360,-0.82216693
'00:11:55.375,0.055176,0.034668,1.012207,-1.158537,-0.304878,-0.487805,-5.081250,17.737501,19.550001,29.801,0.56841795,-0.00981483,-0.02885957,-0.82217506
'00:11:55.384,0.060059,0.030273,1.001465,-3.109756,-2.256098,-0.243902,-5.081250,17.737501,19.550001,29.801,0.56841792,-0.01019144,-0.02879157,-0.82217288
'00:11:55.394,0.068359,0.022461,0.989746,-0.914634,0.000000,-0.426829,-5.218750,18.037500,19.762501,29.740,0.56841019,-0.01040744,-0.02875148,-0.82217692
'00:11:55.404,0.067383,0.023438,0.993164,3.353659,4.634146,-0.853659,-5.218750,18.037500,19.762501,29.816,0.56838689,-0.01006586,-0.02878878,-0.82219598
'00:11:55.416,0.056641,0.033203,1.008301,4.451220,5.670732,-1.036585,-4.750000,17.475000,19.381250,29.801,0.56837020,-0.00941030,-0.02890345,-0.82221126
'00:11:55.424,0.055664,0.032227,1.012207,-1.768293,-1.036585,-0.243902,-4.750000,17.475000,19.381250,29.816,0.56838791,-0.00961208,-0.02887929,-0.82219753
'00:11:55.434,0.067383,0.023926,1.003418,1.707317,2.804878,-0.670732,-4.812500,17.512501,19.362501,29.786,0.56838934,-0.00950788,-0.02890587,-0.82219682
'00:11:55.444,0.055176,0.033691,1.013672,-0.914634,-0.182927,-0.365854,-4.812500,17.512501,19.362501,29.786,0.56840161,-0.00964269,-0.02889623,-0.82218710
'00:11:55.456,0.061523,0.030273,1.001465,0.548781,1.524390,-0.609756,-4.775000,17.437500,19.275000,29.831,0.56840359,-0.00963006,-0.02892281,-0.82218495
'00:11:55.464,0.057617,0.033691,1.004395,-0.121951,0.731707,-0.487805,-4.775000,17.437500,19.275000,29.786,0.56840938,-0.00966533,-0.02893560,-0.82218008
'00:11:55.474,0.061035,0.029785,1.001465,-1.097561,-0.182927,-0.426829,-4.937500,17.643751,19.450001,29.846,0.56841135,-0.00985133,-0.02891068,-0.82217739
'00:11:55.484,0.064453,0.026367,0.996582,-0.060976,0.975610,-0.487805,-5.081250,17.837500,19.575001,29.816,0.56840738,-0.00992726,-0.02889213,-0.82217987
'00:11:55.494,0.066406,0.023926,1.000000,2.195122,3.292683,-0.731707,-5.081250,17.837500,19.575001,29.816,0.56839408,-0.00974252,-0.02891339,-0.82219053
'00:11:55.504,0.044434,0.042480,1.024414,1.707317,3.048780,-0.853659,-4.968750,17.687500,19.487501,29.846,0.56837236,-0.00940954,-0.02892670,-0.82220895
'00:11:55.514,0.070312,0.015137,0.990234,0.670732,1.646341,-0.609756,-4.968750,17.687500,19.487501,29.755,0.56836910,-0.00948774,-0.02889501,-0.82221142
'00:11:55.524,0.054199,0.034668,1.011230,-0.914634,-0.121951,-0.365854,-4.806250,17.487501,19.362501,29.755,0.56838129,-0.00960962,-0.02888525,-0.82220193
'00:11:55.537,0.056152,0.032715,1.005859,-0.792683,0.121951,-0.426829,-4.806250,17.487501,19.362501,29.786,0.56839246,-0.00976036,-0.02886639,-0.82219309
'00:11:55.545,0.058105,0.031250,1.002441,-2.012195,-1.219512,-0.365854,-4.850000,17.437500,19.318750,29.755,0.56839598,-0.00998791,-0.02883483,-0.82218903
'00:11:55.556,0.064453,0.025391,0.994629,-1.158537,-0.243902,-0.487805,-4.850000,17.437500,19.318750,29.786,0.56839530,-0.01023913,-0.02879964,-0.82218765
'00:11:55.564,0.066406,0.022949,0.997070,1.768293,2.926829,-0.670732,-4.856250,17.500000,19.287500,29.786,0.56839374,-0.01013637,-0.02881157,-0.82218958
'00:11:55.575,0.060547,0.027344,1.005859,3.292683,4.512195,-0.853659,-4.856250,17.500000,19.287500,29.786,0.56838253,-0.00973202,-0.02886061,-0.82220049
'00:11:55.584,0.054688,0.034668,1.012207,1.951220,3.109756,-0.792683,-5.193750,18.006250,19.600000,29.755,0.56836150,-0.00949132,-0.02887842,-0.82221722
'00:11:55.594,0.063477,0.026855,1.001465,-0.731707,0.182927,-0.426829,-5.193750,18.006250,19.600000,29.786,0.56835658,-0.00965017,-0.02884516,-0.82221994
'00:11:55.604,0.060547,0.028320,1.001953,0.182927,1.097561,-0.487805,-5.075000,17.906250,19.631250,29.786,0.56835533,-0.00968008,-0.02883550,-0.82222079
'00:11:55.615,0.060059,0.029785,1.003906,-0.243902,0.670732,-0.548781,-5.075000,17.906250,19.631250,29.755,0.56834723,-0.00975966,-0.02882075,-0.82222597
'00:11:55.624,0.058594,0.030273,1.005371,-1.097561,-0.182927,-0.426829,-4.800000,17.512501,19.393751,29.755,0.56835520,-0.00991729,-0.02879957,-0.82221932
'00:11:55.634,0.061035,0.028320,1.004883,-1.585366,-0.670732,-0.426829,-4.800000,17.512501,19.393751,29.786,0.56836241,-0.01017053,-0.02876383,-0.82221249
'00:11:55.644,0.065430,0.026367,0.999023,-0.365854,0.670732,-0.548781,-4.787500,17.468750,19.375000,29.786,0.56836494,-0.01029649,-0.02875744,-0.82220940
'00:11:55.654,0.062988,0.027344,1.000000,1.524390,2.682927,-0.670732,-4.787500,17.468750,19.375000,29.771,0.56836516,-0.01016483,-0.02878258,-0.82221000
'00:11:55.664,0.060547,0.028320,1.000977,2.682927,3.841464,-0.792683,-4.868750,17.431250,19.293751,29.786,0.56835444,-0.00987094,-0.02882190,-0.82221961
'00:11:55.674,0.056641,0.031738,1.006348,2.378049,3.536585,-0.731707,-4.868750,17.431250,19.293751,29.816,0.56834695,-0.00958233,-0.02885643,-0.82222699
'00:11:55.684,0.053711,0.036621,1.010254,-0.304878,0.609756,-0.487805,-4.962500,17.800001,19.518751,29.786,0.56834824,-0.00960571,-0.02885916,-0.82222573
'00:11:55.696,0.061523,0.030762,1.004395,-0.670732,0.243902,-0.487805,-5.050000,17.875000,19.637501,29.831,0.56834388,-0.00976227,-0.02884570,-0.82222738
'00:11:55.704,0.061523,0.030762,1.004395,-0.670732,0.243902,-0.487805,-5.050000,17.875000,19.637501,29.831,0.56834076,-0.00986484,-0.02883670,-0.82222862
'00:11:55.714,0.060547,0.029297,1.005859,-0.853659,0.121951,-0.487805,-5.050000,17.875000,19.637501,29.801,0.56833658,-0.01000936,-0.02880592,-0.82223084
'00:11:55.724,0.062500,0.026855,1.001953,-0.609756,0.304878,-0.548781,-4.806250,17.437500,19.350000,29.831,0.56833641,-0.01015565,-0.02878796,-0.82222980
'00:11:55.737,0.064453,0.024902,0.998047,0.609756,1.646341,-0.609756,-4.812500,17.481251,19.325001,29.816,0.56833726,-0.01016440,-0.02879020,-0.82222903
'00:11:55.744,0.061523,0.027344,1.001953,2.012195,3.231707,-0.731707,-4.812500,17.481251,19.325001,29.801,0.56833500,-0.01002196,-0.02880755,-0.82223173
'00:11:55.754,0.058594,0.030273,1.004883,2.317073,3.475610,-0.792683,-4.875000,17.487501,19.306250,29.755,0.56832388,-0.00975576,-0.02884155,-0.82224142
'00:11:55.764,0.057617,0.029297,1.005859,-0.731707,0.060976,-0.365854,-4.875000,17.487501,19.306250,29.786,0.56833285,-0.00988868,-0.02881610,-0.82223453
'00:11:55.776,0.059082,0.029297,1.004395,0.365854,1.280488,-0.548781,-5.106250,17.825001,19.593750,29.816,0.56832170,-0.00987530,-0.02880326,-0.82224285
'00:11:55.784,0.055664,0.034180,1.010254,-0.670732,0.243902,-0.487805,-5.106250,17.825001,19.593750,29.786,0.56831429,-0.00993632,-0.02878594,-0.82224783
'00:11:55.794,0.057617,0.033203,1.009766,-2.865854,-2.073171,-0.304878,-5.106250,17.881250,19.568750,29.771,0.56831194,-0.01030240,-0.02872541,-0.82224707
'00:11:55.804,0.064453,0.025391,1.000977,-3.292683,-2.560976,-0.243902,-5.106250,17.881250,19.568750,29.755,0.56831307,-0.01078818,-0.02864485,-0.82224287
'00:11:55.814,0.067383,0.023438,0.996094,-1.341463,-0.365854,-0.426829,-5.037500,17.575001,19.468750,29.786,0.56830566,-0.01103682,-0.02859606,-0.82224640
'00:11:55.824,0.067383,0.022461,0.998047,0.975610,2.073171,-0.670732,-5.037500,17.575001,19.468750,29.786,0.56828893,-0.01099485,-0.02858695,-0.82225883
'00:11:55.834,0.064941,0.025879,0.999512,2.926829,4.085366,-0.792683,-4.887500,17.512501,19.425001,29.740,0.56827870,-0.01069390,-0.02863767,-0.82226811
'00:11:55.844,0.056152,0.032715,1.005859,2.743902,3.902439,-0.792683,-4.887500,17.512501,19.425001,29.755,0.56826718,-0.01034259,-0.02868629,-0.82227887
'00:11:55.857,0.055176,0.034668,1.008789,0.243902,1.341463,-0.548781,-4.831250,17.437500,19.318750,29.786,0.56826724,-0.01027806,-0.02869262,-0.82227942
'00:11:55.864,0.060547,0.029297,1.003906,-1.097561,-0.182927,-0.426829,-4.831250,17.437500,19.318750,29.831,0.56827060,-0.01040376,-0.02867610,-0.82227609
'00:11:55.874,0.062012,0.026367,1.002930,-0.548781,0.487805,-0.487805,-4.925000,17.493750,19.418751,29.771,0.56826801,-0.01052105,-0.02864201,-0.82227758
'00:11:55.884,0.062012,0.027344,1.004395,0.243902,1.280488,-0.548781,-4.925000,17.493750,19.418751,29.816,0.56826341,-0.01053625,-0.02863084,-0.82228095
'00:11:55.894,0.061523,0.027344,1.004883,0.731707,1.707317,-0.609756,-5.225000,17.950001,19.656250,29.846,0.56824576,-0.01048285,-0.02861988,-0.82229421
'00:11:55.905,0.062988,0.026367,1.003906,1.158537,2.195122,-0.670732,-5.225000,17.950001,19.656250,29.801,0.56822367,-0.01037611,-0.02861590,-0.82231097
'00:11:55.915,0.061523,0.029297,1.003418,1.402439,2.500000,-0.670732,-5.012500,17.700001,19.456251,29.786,0.56821326,-0.01023619,-0.02863603,-0.82231921
'00:11:55.924,0.060547,0.029785,1.002930,1.219512,2.317073,-0.670732,-5.012500,17.700001,19.456251,29.801,0.56820349,-0.01012567,-0.02864974,-0.82232686
'00:11:55.934,0.059570,0.030762,1.002930,0.487805,1.524390,-0.609756,-4.875000,17.475000,19.350000,29.816,0.56819889,-0.01009334,-0.02865889,-0.82233012
'00:11:55.944,0.059570,0.029785,0.999512,-0.243902,0.792683,-0.487805,-4.875000,17.475000,19.350000,29.786,0.56820079,-0.01015507,-0.02864748,-0.82232844
'00:11:55.954,0.062012,0.027832,1.001953,-0.243902,0.853659,-0.548781,-4.887500,17.506250,19.343750,29.831,0.56819862,-0.01023162,-0.02863037,-0.82232958
'00:11:55.964,0.063965,0.027832,1.001953,0.609756,1.707317,-0.609756,-4.887500,17.506250,19.343750,29.755,0.56819479,-0.01021409,-0.02863986,-0.82233211
'00:11:55.974,0.062012,0.027344,1.003906,1.768293,2.804878,-0.731707,-4.806250,17.418751,19.343750,29.816,0.56818975,-0.01005513,-0.02867122,-0.82233646
'00:11:55.984,0.059570,0.029785,1.006348,2.134146,3.231707,-0.731707,-4.806250,17.418751,19.343750,29.786,0.56818593,-0.00982613,-0.02871091,-0.82234049
'00:11:55.994,0.059082,0.029785,1.008301,1.524390,2.682927,-0.670732,-5.118750,17.893751,19.631250,29.831,0.56817371,-0.00965591,-0.02871805,-0.82235070
'00:11:56.004,0.057617,0.030762,1.003418,0.670732,1.707317,-0.670732,-4.775000,17.487501,19.350000,29.816,0.56817353,-0.00960367,-0.02873154,-0.82235096
'00:11:56.015,0.059570,0.029785,1.000488,0.121951,1.036585,-0.548781,-4.775000,17.487501,19.350000,29.801,0.56818078,-0.00964715,-0.02874290,-0.82234505
'00:11:56.025,0.059570,0.030762,1.001465,0.121951,1.158537,-0.548781,-4.793750,17.518751,19.375000,29.771,0.56818668,-0.00967247,-0.02875130,-0.82234038
'00:11:56.034,0.061035,0.029297,1.002441,0.304878,1.341463,-0.609756,-4.793750,17.518751,19.375000,29.816,0.56818876,-0.00968714,-0.02875960,-0.82233848
'00:11:56.044,0.060059,0.029785,1.003418,0.304878,1.280488,-0.548781,-4.781250,17.525000,19.362501,29.816,0.56819627,-0.00970099,-0.02877139,-0.82233272
'00:11:56.054,0.059082,0.028809,1.003906,-0.121951,0.975610,-0.548781,-4.781250,17.525000,19.362501,29.816,0.56820284,-0.00975593,-0.02875790,-0.82232800
'00:11:56.064,0.062012,0.026367,1.002930,0.365854,1.402439,-0.609756,-4.843750,17.568750,19.343750,29.801,0.56820355,-0.00977764,-0.02875249,-0.82232744
'00:11:56.074,0.062988,0.026855,1.002930,1.585366,2.682927,-0.670732,-4.843750,17.568750,19.343750,29.801,0.56820395,-0.00965009,-0.02877768,-0.82232779
'00:11:56.084,0.055664,0.033691,1.005859,-0.304878,0.548781,-0.487805,-4.906250,17.687500,19.425001,29.831,0.56820771,-0.00970185,-0.02877980,-0.82232451
'00:11:56.094,0.056641,0.034668,1.006348,0.975610,2.195122,-0.731707,-4.906250,17.687500,19.425001,29.816,0.56819884,-0.00957225,-0.02880127,-0.82233140
'00:11:56.104,0.065918,0.022949,0.994629,0.426829,1.524390,-0.548781,-5.087500,17.887501,19.637501,29.786,0.56819477,-0.00961136,-0.02878129,-0.82233446
'00:11:56.114,0.058594,0.030273,1.003418,0.000000,0.975610,-0.487805,-5.087500,17.887501,19.637501,29.801,0.56819211,-0.00964074,-0.02876765,-0.82233643
'00:11:56.124,0.056641,0.033203,1.006836,0.426829,1.585366,-0.609756,-4.893750,17.568750,19.400000,29.786,0.56818864,-0.00958792,-0.02876999,-0.82233936
'00:11:56.134,0.061035,0.028809,1.003906,0.609756,1.646341,-0.609756,-4.893750,17.568750,19.400000,29.786,0.56818635,-0.00956462,-0.02877575,-0.82234102
'00:11:56.144,0.062988,0.027344,1.002441,0.243902,1.219512,-0.548781,-4.812500,17.475000,19.350000,29.816,0.56819090,-0.00961101,-0.02878032,-0.82233717
'00:11:56.154,0.060547,0.029785,1.005859,0.121951,1.158537,-0.548781,-4.812500,17.475000,19.350000,29.801,0.56819472,-0.00964329,-0.02878208,-0.82233409
'00:11:56.164,0.058105,0.030273,1.005859,0.365854,1.463415,-0.609756,-4.818750,17.493750,19.343750,29.786,0.56819509,-0.00962536,-0.02877949,-0.82233414
'00:11:56.174,0.061035,0.029297,1.002930,0.426829,1.463415,-0.609756,-4.818750,17.493750,19.343750,29.755,0.56819561,-0.00962540,-0.02878829,-0.82233347
'00:11:56.184,0.059570,0.029297,1.000977,0.304878,1.341463,-0.548781,-4.787500,17.481251,19.343750,29.786,0.56820201,-0.00963445,-0.02879146,-0.82232883
'00:11:56.194,0.057617,0.031738,1.003418,0.304878,1.341463,-0.548781,-4.787500,17.481251,19.343750,29.786,0.56820795,-0.00962223,-0.02879993,-0.82232457
'00:11:56.204,0.058594,0.031250,1.002930,0.426829,1.402439,-0.609756,-5.106250,17.993750,19.706251,29.786,0.56819863,-0.00959621,-0.02880210,-0.82233124
'00:11:56.214,0.060547,0.028809,1.002930,0.365854,1.402439,-0.609756,-5.106250,17.993750,19.706251,29.801,0.56818978,-0.00959369,-0.02879378,-0.82233768
'00:11:56.224,0.060547,0.029785,1.003906,0.304878,1.280488,-0.548781,-5.093750,17.856251,19.537500,29.816,0.56818310,-0.00959758,-0.02879035,-0.82234236
'00:11:56.234,0.059570,0.029297,1.005371,0.304878,1.341463,-0.548781,-5.093750,17.856251,19.537500,29.786,0.56817673,-0.00959335,-0.02877701,-0.82234728
'00:11:56.244,0.060547,0.029297,1.004395,0.365854,1.341463,-0.609756,-4.818750,17.500000,19.350000,29.771,0.56817718,-0.00960278,-0.02878530,-0.82234657
'00:11:56.254,0.060547,0.029785,1.003418,0.304878,1.341463,-0.548781,-4.775000,17.525000,19.318750,29.771,0.56818558,-0.00961649,-0.02879631,-0.82234022
'00:11:56.264,0.060547,0.029785,1.002930,0.365854,1.280488,-0.609756,-4.775000,17.525000,19.318750,29.786,0.56818944,-0.00963126,-0.02881472,-0.82233674
'00:11:56.274,0.060059,0.030273,1.002441,0.243902,1.341463,-0.609756,-4.818750,17.525000,19.275000,29.740,0.56819031,-0.00964003,-0.02881875,-0.82233589
'00:11:56.284,0.059082,0.029785,1.002441,0.304878,1.280488,-0.548781,-4.818750,17.525000,19.275000,29.786,0.56819557,-0.00964670,-0.02882350,-0.82233201
'00:11:56.294,0.060059,0.029785,1.004395,0.304878,1.341463,-0.548781,-5.031250,17.806250,19.525000,29.771,0.56819196,-0.00964556,-0.02881794,-0.82233471
'00:11:56.304,0.059570,0.029297,1.003906,0.304878,1.280488,-0.609756,-5.031250,17.806250,19.525000,29.801,0.56818397,-0.00964801,-0.02881116,-0.82234045
'00:11:56.314,0.058105,0.029785,1.004395,0.304878,1.280488,-0.609756,-5.175000,17.987501,19.700001,29.786,0.56816989,-0.00963512,-0.02879471,-0.82235090
'00:11:56.324,0.060059,0.029785,1.002930,0.304878,1.280488,-0.609756,-5.175000,17.987501,19.700001,29.816,0.56815586,-0.00963340,-0.02878657,-0.82236090
'00:11:56.334,0.060547,0.029785,1.003418,0.182927,1.280488,-0.548781,-4.862500,17.543751,19.375000,29.801,0.56815813,-0.00965210,-0.02878529,-0.82235916
'00:11:56.344,0.059082,0.029297,1.003418,0.304878,1.280488,-0.609756,-4.862500,17.543751,19.375000,29.816,0.56815625,-0.00965815,-0.02878437,-0.82236042
'00:11:56.354,0.058594,0.030273,1.005371,0.000000,1.036585,-0.548781,-4.793750,17.506250,19.343750,29.816,0.56816173,-0.00969351,-0.02878107,-0.82235633
'00:11:56.364,0.059570,0.030273,1.005371,-0.487805,0.487805,-0.548781,-4.793750,17.506250,19.343750,29.801,0.56816531,-0.00979726,-0.02877374,-0.82235289
'00:11:56.374,0.061035,0.028809,1.003418,-0.426829,0.487805,-0.487805,-4.900000,17.568750,19.375000,29.771,0.56816732,-0.00990520,-0.02876190,-0.82235062
'00:11:56.384,0.061523,0.028809,1.000977,-0.060976,1.036585,-0.548781,-4.900000,17.568750,19.375000,29.771,0.56816643,-0.00995714,-0.02875201,-0.82235095
'00:11:56.394,0.059570,0.029297,1.002441,0.365854,1.463415,-0.548781,-5.031250,17.712500,19.550001,29.755,0.56816063,-0.00993820,-0.02873932,-0.82235563
'00:11:56.404,0.058105,0.029785,1.005371,0.182927,1.219512,-0.548781,-5.031250,17.712500,19.550001,29.786,0.56815409,-0.00993557,-0.02872183,-0.82236079
'00:11:56.415,0.059082,0.029785,1.004395,-0.182927,0.853659,-0.548781,-5.187500,17.956251,19.675001,29.725,0.56813988,-0.00998190,-0.02869195,-0.82237109
'00:11:56.424,0.061035,0.029297,1.003418,-0.121951,0.853659,-0.548781,-5.187500,17.956251,19.675001,29.801,0.56812836,-0.01002795,-0.02867638,-0.82237903
'00:11:56.434,0.061035,0.028320,1.002930,0.304878,1.402439,-0.670732,-4.918750,17.493750,19.325001,29.771,0.56811729,-0.01003010,-0.02866746,-0.82238697
'00:11:56.444,0.060059,0.029297,1.004883,0.243902,1.219512,-0.609756,-4.918750,17.493750,19.325001,29.801,0.56810996,-0.01003895,-0.02866433,-0.82239203
'00:11:56.454,0.060059,0.029297,1.004883,0.243902,1.219512,-0.609756,-4.825000,17.425001,19.362501,29.801,0.56810734,-0.01005258,-0.02866681,-0.82239359
'00:11:56.464,0.062012,0.028809,1.002930,0.243902,1.280488,-0.548781,-4.825000,17.425001,19.362501,29.771,0.56810923,-0.01007497,-0.02867171,-0.82239184
'00:11:56.474,0.062500,0.026855,1.000488,0.914634,1.951220,-0.609756,-4.818750,17.425001,19.306250,29.786,0.56810999,-0.01002667,-0.02868379,-0.82239148
'00:11:56.484,0.058594,0.030762,1.003906,1.341463,2.439024,-0.670732,-4.818750,17.425001,19.306250,29.786,0.56810740,-0.00988501,-0.02870799,-0.82239414
'00:11:56.494,0.060059,0.030762,1.004395,-0.304878,0.548781,-0.487805,-4.856250,17.418751,19.343750,29.816,0.56810901,-0.00996874,-0.02870972,-0.82239195
'00:11:56.504,0.062500,0.026855,1.000977,-0.609756,0.365854,-0.487805,-5.025000,17.768751,19.512501,29.740,0.56810653,-0.01010382,-0.02868232,-0.82239298
'00:11:56.514,0.062500,0.027832,1.001465,0.365854,1.341463,-0.548781,-5.025000,17.768751,19.512501,29.801,0.56810258,-0.01011465,-0.02868209,-0.82239558
'00:11:56.524,0.060059,0.028809,1.005859,0.609756,1.646341,-0.609756,-5.043750,17.800001,19.593750,29.786,0.56809429,-0.01007274,-0.02867785,-0.82240197
'00:11:56.534,0.061523,0.027832,1.003906,0.365854,1.341463,-0.548781,-5.043750,17.800001,19.593750,29.786,0.56808964,-0.01007777,-0.02867224,-0.82240532
'00:11:56.544,0.060547,0.028809,1.001953,0.121951,1.219512,-0.609756,-4.825000,17.443750,19.400000,29.816,0.56808724,-0.01010255,-0.02866649,-0.82240687
'00:11:56.554,0.061035,0.029297,1.001953,0.182927,1.097561,-0.548781,-4.825000,17.443750,19.400000,29.801,0.56808880,-0.01013363,-0.02867584,-0.82240508
'00:11:56.564,0.060059,0.029297,1.002441,0.243902,1.280488,-0.609756,-4.850000,17.468750,19.356251,29.816,0.56808552,-0.01014106,-0.02867511,-0.82240728
'00:11:56.574,0.060547,0.029297,1.003906,0.487805,1.524390,-0.609756,-4.850000,17.468750,19.356251,29.801,0.56808306,-0.01012122,-0.02868110,-0.82240902
'00:11:56.584,0.061035,0.029297,1.004395,0.426829,1.402439,-0.609756,-4.843750,17.475000,19.381250,29.816,0.56808073,-0.01011658,-0.02869098,-0.82241034
'00:11:56.594,0.060059,0.030273,1.004395,0.304878,1.280488,-0.548781,-4.843750,17.475000,19.381250,29.831,0.56808219,-0.01011767,-0.02869973,-0.82240901
'00:11:56.604,0.058594,0.029785,1.004395,0.121951,1.097561,-0.548781,-5.181250,17.950001,19.656250,29.771,0.56807043,-0.01012233,-0.02868114,-0.82241773
'00:11:56.614,0.061035,0.028809,1.004395,0.121951,1.036585,-0.548781,-5.181250,17.950001,19.656250,29.786,0.56805873,-0.01014831,-0.02866973,-0.82242589
'00:11:56.624,0.060547,0.028809,1.001465,0.182927,1.219512,-0.548781,-5.118750,17.887501,19.637501,29.771,0.56805028,-0.01015851,-0.02865624,-0.82243207
'00:11:56.634,0.061523,0.028809,1.001953,0.365854,1.402439,-0.609756,-5.118750,17.887501,19.637501,29.786,0.56803809,-0.01015147,-0.02865061,-0.82244077
'00:11:56.644,0.061035,0.028809,1.002930,0.426829,1.402439,-0.548781,-4.906250,17.481251,19.375000,29.816,0.56803622,-0.01014517,-0.02865413,-0.82244201
'00:11:56.654,0.060059,0.028809,1.004395,0.243902,1.280488,-0.609756,-4.906250,17.481251,19.375000,29.786,0.56802957,-0.01015090,-0.02864624,-0.82244681
'00:11:56.665,0.061035,0.027832,1.002930,0.182927,1.158537,-0.609756,-4.925000,17.431250,19.343750,29.831,0.56801947,-0.01017844,-0.02863538,-0.82245383
'00:11:56.674,0.062012,0.028809,1.002930,0.182927,1.158537,-0.548781,-4.925000,17.431250,19.343750,29.801,0.56801493,-0.01020218,-0.02863493,-0.82245668
'00:11:56.685,0.059570,0.029297,1.002930,0.304878,1.219512,-0.548781,-4.800000,17.450001,19.306250,29.786,0.56801983,-0.01021103,-0.02864475,-0.82245285
'00:11:56.694,0.059570,0.030273,1.003906,0.182927,1.219512,-0.548781,-4.800000,17.450001,19.306250,29.771,0.56802351,-0.01021990,-0.02864940,-0.82245003
'00:11:56.704,0.061035,0.028320,1.004883,0.121951,1.036585,-0.548781,-5.081250,17.787500,19.656250,29.816,0.56801476,-0.01024995,-0.02863902,-0.82245607
'00:11:56.714,0.061035,0.028809,1.003418,0.000000,0.975610,-0.548781,-5.081250,17.787500,19.656250,29.786,0.56800562,-0.01028845,-0.02862637,-0.82246234
'00:11:56.726,0.059570,0.029297,1.003418,0.060976,1.036585,-0.548781,-4.962500,17.612501,19.468750,29.786,0.56800037,-0.01031810,-0.02861586,-0.82246595
'00:11:56.734,0.061035,0.028320,1.002930,0.121951,1.158537,-0.609756,-4.962500,17.612501,19.468750,29.816,0.56799377,-0.01033761,-0.02860793,-0.82247054
'00:11:56.744,0.061523,0.027832,1.001465,0.548781,1.585366,-0.609756,-4.956250,17.568750,19.431250,29.801,0.56798659,-0.01031456,-0.02860680,-0.82247583
'00:11:56.754,0.062988,0.027832,1.001953,1.158537,2.256098,-0.670732,-4.956250,17.568750,19.431250,29.846,0.56797727,-0.01022134,-0.02862175,-0.82248291
'00:11:56.764,0.061035,0.029297,1.003906,1.463415,2.560976,-0.670732,-4.837500,17.468750,19.387501,29.831,0.56797489,-0.01008147,-0.02865033,-0.82248529
'00:11:56.774,0.060547,0.029785,1.003906,1.097561,2.134146,-0.609756,-4.837500,17.468750,19.387501,29.771,0.56797562,-0.00998792,-0.02867442,-0.82248509
'00:11:56.785,0.059570,0.029785,1.004395,0.609756,1.646341,-0.609756,-4.793750,17.437500,19.287500,29.771,0.56797779,-0.00994769,-0.02868761,-0.82248361
'00:11:56.794,0.060059,0.029785,1.003418,0.426829,1.463415,-0.609756,-4.856250,17.531250,19.375000,29.771,0.56797679,-0.00993580,-0.02869409,-0.82248422
'00:11:56.804,0.061035,0.028809,1.002441,0.731707,1.768293,-0.609756,-4.856250,17.531250,19.375000,29.755,0.56797688,-0.00989526,-0.02870659,-0.82248421
'00:11:56.814,0.058594,0.029297,1.003418,0.853659,1.890244,-0.609756,-5.037500,17.850000,19.562500,29.740,0.56797179,-0.00981898,-0.02870803,-0.82248859
'00:11:56.824,0.059082,0.030273,1.003418,0.609756,1.585366,-0.548781,-5.037500,17.850000,19.562500,29.786,0.56797003,-0.00977684,-0.02871446,-0.82249009
'00:11:56.834,0.059570,0.030762,1.004883,0.182927,1.158537,-0.548781,-4.950000,17.700001,19.487501,29.801,0.56796951,-0.00979043,-0.02871866,-0.82249014
'00:11:56.844,0.060547,0.029297,1.003418,0.060976,1.036585,-0.548781,-4.950000,17.700001,19.487501,29.816,0.56796881,-0.00982998,-0.02871615,-0.82249023
'00:11:56.854,0.060547,0.028809,1.002441,0.365854,1.280488,-0.548781,-4.831250,17.468750,19.356251,29.755,0.56797225,-0.00984223,-0.02872497,-0.82248740
'00:11:56.864,0.059570,0.029297,1.002930,0.670732,1.646341,-0.609756,-4.831250,17.468750,19.356251,29.771,0.56797239,-0.00980533,-0.02873620,-0.82248736
'00:11:56.875,0.058594,0.029785,1.003906,0.548781,1.524390,-0.609756,-4.825000,17.537500,19.306250,29.786,0.56797460,-0.00977461,-0.02874643,-0.82248584
'00:11:56.884,0.059570,0.029297,1.004395,0.182927,1.158537,-0.548781,-4.825000,17.537500,19.306250,29.771,0.56797933,-0.00979643,-0.02874807,-0.82248226
'00:11:56.894,0.060547,0.028809,1.003906,0.121951,1.097561,-0.548781,-4.781250,17.481251,19.343750,29.846,0.56798593,-0.00983724,-0.02875165,-0.82247708
'00:11:56.904,0.060547,0.028809,1.002930,0.304878,1.280488,-0.548781,-4.781250,17.481251,19.343750,29.771,0.56799304,-0.00985544,-0.02875951,-0.82247168
'00:11:56.914,0.060547,0.029297,1.003418,0.487805,1.524390,-0.670732,-5.056250,17.837500,19.531250,29.801,0.56798079,-0.00983313,-0.02875785,-0.82248047
'00:11:56.924,0.060547,0.029785,1.004395,0.548781,1.585366,-0.548781,-5.056250,17.837500,19.531250,29.816,0.56797747,-0.00980201,-0.02875988,-0.82248306
'00:11:56.934,0.060059,0.029785,1.004883,0.365854,1.341463,-0.548781,-5.112500,17.931250,19.556250,29.786,0.56797180,-0.00979323,-0.02875685,-0.82248718
'00:11:56.945,0.059082,0.029785,1.003906,0.182927,1.219512,-0.609756,-5.112500,17.931250,19.556250,29.816,0.56796031,-0.00979756,-0.02874224,-0.82249558
'00:11:56.954,0.058594,0.028809,1.003418,0.304878,1.280488,-0.548781,-4.875000,17.568750,19.343750,29.801,0.56796293,-0.00980058,-0.02873795,-0.82249388
'00:11:56.964,0.060547,0.029785,1.002930,0.487805,1.463415,-0.609756,-4.875000,17.568750,19.343750,29.816,0.56796179,-0.00978861,-0.02875057,-0.82249437
'00:11:56.974,0.060547,0.029785,1.004883,0.487805,1.463415,-0.609756,-4.793750,17.431250,19.325001,29.771,0.56796313,-0.00977948,-0.02876536,-0.82249304
'00:11:56.984,0.059570,0.030273,1.002930,0.304878,1.341463,-0.548781,-4.793750,17.431250,19.325001,29.786,0.56796828,-0.00978148,-0.02877257,-0.82248921
'00:11:56.994,0.060059,0.029297,1.002930,0.182927,1.158537,-0.548781,-4.818750,17.506250,19.325001,29.786,0.56797307,-0.00980862,-0.02877613,-0.82248545
'00:11:57.004,0.060059,0.029785,1.004883,0.243902,1.219512,-0.548781,-4.818750,17.506250,19.325001,29.755,0.56797790,-0.00982560,-0.02878291,-0.82248167
'00:11:57.014,0.059570,0.030273,1.003906,0.365854,1.341463,-0.609756,-4.925000,17.681250,19.506250,29.771,0.56797467,-0.00981938,-0.02878907,-0.82248376
'00:11:57.026,0.060059,0.029297,1.002441,0.365854,1.402439,-0.609756,-4.925000,17.681250,19.506250,29.801,0.56797120,-0.00981499,-0.02878909,-0.82248621
'00:11:57.034,0.060547,0.029785,1.003418,0.426829,1.402439,-0.548781,-5.231250,18.062500,19.743750,29.816,0.56796236,-0.00980063,-0.02878443,-0.82249265
'00:11:57.044,0.059570,0.029297,1.003418,0.304878,1.280488,-0.548781,-5.231250,18.062500,19.743750,29.771,0.56795107,-0.00979429,-0.02876967,-0.82250104
'00:11:57.054,0.059082,0.029297,1.002441,0.365854,1.341463,-0.609756,-4.825000,17.550001,19.318750,29.801,0.56795280,-0.00979386,-0.02877443,-0.82249968
'00:11:57.064,0.059082,0.029785,1.003418,0.365854,1.341463,-0.609756,-4.812500,17.506250,19.312500,29.801,0.56795429,-0.00979144,-0.02878142,-0.82249844
'00:11:57.074,0.059570,0.030273,1.004883,0.365854,1.402439,-0.548781,-4.812500,17.506250,19.312500,29.801,0.56796018,-0.00978529,-0.02878930,-0.82249417
'00:11:57.084,0.059082,0.028809,1.003418,0.304878,1.341463,-0.548781,-4.793750,17.481251,19.325001,29.801,0.56796682,-0.00979084,-0.02878689,-0.82248960
'00:11:57.094,0.058594,0.029785,1.003906,0.304878,1.341463,-0.548781,-4.793750,17.481251,19.325001,29.786,0.56797325,-0.00978960,-0.02878797,-0.82248514
'00:11:57.104,0.059570,0.029297,1.003906,0.304878,1.341463,-0.548781,-4.937500,17.718750,19.493750,29.786,0.56797470,-0.00979065,-0.02878417,-0.82248426
'00:11:57.114,0.059570,0.029297,1.003418,0.304878,1.341463,-0.609756,-4.937500,17.718750,19.493750,29.831,0.56797177,-0.00979165,-0.02878068,-0.82248639
'00:11:57.124,0.060059,0.030273,1.004395,0.365854,1.280488,-0.609756,-4.906250,17.675001,19.518751,29.786,0.56796955,-0.00979402,-0.02879294,-0.82248747
'00:11:57.134,0.060059,0.029785,1.003906,0.304878,1.280488,-0.548781,-4.906250,17.675001,19.518751,29.786,0.56797172,-0.00980153,-0.02879801,-0.82248570
'00:11:57.145,0.059570,0.029297,1.003906,0.243902,1.219512,-0.548781,-5.050000,17.812500,19.487501,29.771,0.56796694,-0.00980947,-0.02878863,-0.82248924
'00:11:57.154,0.060059,0.029297,1.004395,0.304878,1.341463,-0.609756,-5.050000,17.812500,19.487501,29.786,0.56795942,-0.00980746,-0.02878113,-0.82249472
'00:11:57.164,0.059570,0.028320,1.003418,0.426829,1.402439,-0.609756,-4.800000,17.493750,19.356251,29.786,0.56796173,-0.00980663,-0.02878344,-0.82249305
'00:11:57.174,0.061035,0.028809,1.004395,0.304878,1.280488,-0.548781,-4.800000,17.493750,19.356251,29.786,0.56796784,-0.00982672,-0.02879102,-0.82248832
'00:11:57.185,0.060059,0.029297,1.002930,0.304878,1.341463,-0.548781,-4.787500,17.500000,19.287500,29.771,0.56797602,-0.00983664,-0.02879680,-0.82248236
'00:11:57.194,0.059570,0.028809,1.004395,0.365854,1.402439,-0.609756,-4.787500,17.500000,19.287500,29.771,0.56797903,-0.00983681,-0.02879795,-0.82248023
'00:11:57.204,0.059570,0.028809,1.004395,0.365854,1.402439,-0.609756,-4.862500,17.531250,19.312500,29.771,0.56797777,-0.00983284,-0.02879405,-0.82248129
'00:11:57.214,0.060059,0.029297,1.003418,0.365854,1.402439,-0.609756,-4.862500,17.531250,19.312500,29.816,0.56797640,-0.00982994,-0.02879525,-0.82248223
'00:11:57.225,0.059570,0.028320,1.003906,0.243902,1.341463,-0.609756,-4.893750,17.618750,19.493750,29.816,0.56797395,-0.00983918,-0.02878104,-0.82248431
'00:11:57.234,0.059570,0.028320,1.003906,0.243902,1.341463,-0.609756,-4.893750,17.618750,19.493750,29.816,0.56797195,-0.00984664,-0.02876962,-0.82248599
'00:11:57.244,0.059082,0.028809,1.003418,0.365854,1.341463,-0.487805,-5.150000,18.081251,19.643751,29.786,0.56797144,-0.00983623,-0.02875842,-0.82248686
'00:11:57.254,0.060547,0.028809,1.004395,0.304878,1.280488,-0.548781,-5.150000,18.081251,19.643751,29.801,0.56796636,-0.00984092,-0.02875125,-0.82249057
'00:11:57.265,0.060059,0.028809,1.002930,0.304878,1.341463,-0.548781,-4.812500,17.481251,19.293751,29.801,0.56797226,-0.00985082,-0.02875200,-0.82248635
'00:11:57.274,0.060547,0.028809,1.003418,0.365854,1.402439,-0.548781,-4.812500,17.481251,19.293751,29.786,0.56797722,-0.00985445,-0.02875531,-0.82248276
'00:11:57.285,0.061035,0.029785,1.003418,0.365854,1.341463,-0.548781,-4.775000,17.493750,19.356251,29.816,0.56798576,-0.00986534,-0.02877422,-0.82247608
'00:11:57.294,0.059570,0.029785,1.004395,0.304878,1.280488,-0.609756,-4.775000,17.493750,19.356251,29.816,0.56798862,-0.00987306,-0.02878275,-0.82247371
'00:11:57.306,0.061035,0.029785,1.003418,0.426829,1.341463,-0.609756,-4.781250,17.443750,19.312500,29.786,0.56799087,-0.00987924,-0.02880613,-0.82247126
'00:11:57.314,0.061035,0.029785,1.003418,0.426829,1.341463,-0.609756,-5.012500,17.856251,19.568750,29.786,0.56798655,-0.00987705,-0.02881447,-0.82247398
'00:11:57.324,0.060547,0.027832,1.002441,0.365854,1.341463,-0.548781,-5.012500,17.856251,19.568750,29.755,0.56798589,-0.00988263,-0.02880795,-0.82247460
'00:11:57.334,0.059082,0.028809,1.003418,0.365854,1.341463,-0.609756,-5.043750,17.837500,19.531250,29.801,0.56797832,-0.00987379,-0.02879840,-0.82248027
'00:11:57.347,0.059570,0.030273,1.003906,0.304878,1.280488,-0.548781,-5.043750,17.837500,19.531250,29.801,0.56797355,-0.00986831,-0.02879718,-0.82248367
'00:11:57.354,0.060059,0.028809,1.003906,0.304878,1.280488,-0.609756,-4.812500,17.475000,19.331251,29.816,0.56797382,-0.00987708,-0.02879879,-0.82248332
'00:11:57.364,0.060059,0.028809,1.002930,0.304878,1.341463,-0.609756,-4.812500,17.475000,19.331251,29.786,0.56797432,-0.00988531,-0.02879840,-0.82248289
'00:11:57.374,0.060059,0.028809,1.002441,0.426829,1.402439,-0.548781,-4.825000,17.550001,19.362501,29.786,0.56798022,-0.00988360,-0.02880465,-0.82247861
'00:11:57.385,0.059570,0.029785,1.003418,0.365854,1.341463,-0.609756,-4.825000,17.550001,19.362501,29.786,0.56798146,-0.00988224,-0.02881355,-0.82247747
'00:11:57.394,0.060547,0.029785,1.003418,0.304878,1.280488,-0.609756,-4.881250,17.568750,19.375000,29.786,0.56797907,-0.00988980,-0.02881929,-0.82247883
'00:11:57.404,0.060059,0.029297,1.003906,0.365854,1.280488,-0.548781,-4.881250,17.568750,19.375000,29.755,0.56798094,-0.00989433,-0.02882507,-0.82247727
'00:11:57.414,0.060547,0.029297,1.003906,0.365854,1.341463,-0.609756,-4.856250,17.500000,19.350000,29.816,0.56797875,-0.00989746,-0.02882998,-0.82247858
'00:11:57.426,0.060059,0.030273,1.003906,0.365854,1.402439,-0.548781,-4.856250,17.500000,19.350000,29.801,0.56798132,-0.00988825,-0.02883647,-0.82247669
'00:11:57.434,0.060059,0.030273,1.004883,0.365854,1.402439,-0.609756,-5.012500,17.806250,19.493750,29.831,0.56797631,-0.00987813,-0.02883645,-0.82248027
'00:11:57.445,0.059082,0.029297,1.003418,0.304878,1.280488,-0.609756,-5.012500,17.806250,19.493750,29.786,0.56796931,-0.00987595,-0.02882884,-0.82248540
'00:11:57.454,0.059570,0.029297,1.003418,0.365854,1.341463,-0.548781,-4.875000,17.568750,19.400000,29.786,0.56797148,-0.00987437,-0.02883008,-0.82248387
'00:11:57.466,0.059570,0.029297,1.003418,0.365854,1.402439,-0.548781,-4.875000,17.568750,19.400000,29.786,0.56797455,-0.00986703,-0.02882809,-0.82248191
'00:11:57.474,0.060547,0.029297,1.003418,0.365854,1.341463,-0.609756,-4.812500,17.537500,19.350000,29.786,0.56797600,-0.00987254,-0.02883567,-0.82248058
'00:11:57.484,0.058594,0.029297,1.003418,0.243902,1.280488,-0.548781,-4.812500,17.537500,19.350000,29.771,0.56798198,-0.00987906,-0.02883166,-0.82247651
'00:11:57.494,0.059570,0.028320,1.003906,0.304878,1.280488,-0.548781,-4.781250,17.525000,19.350000,29.816,0.56799005,-0.00989340,-0.02883223,-0.82247074
'00:11:57.504,0.060059,0.029785,1.004883,0.365854,1.341463,-0.548781,-4.781250,17.525000,19.350000,29.786,0.56799796,-0.00989683,-0.02884395,-0.82246483
'00:11:57.514,0.059570,0.029297,1.004395,0.365854,1.341463,-0.548781,-4.806250,17.462500,19.306250,29.801,0.56800287,-0.00989693,-0.02884759,-0.82246131
'00:11:57.524,0.060059,0.030273,1.003418,0.365854,1.402439,-0.548781,-4.806250,17.462500,19.306250,29.786,0.56800767,-0.00989170,-0.02885596,-0.82245777
'00:11:57.534,0.059570,0.030273,1.003906,0.304878,1.341463,-0.609756,-5.043750,17.825001,19.637501,29.801,0.56799882,-0.00988258,-0.02885042,-0.82246418
'00:11:57.545,0.060059,0.027832,1.002441,0.243902,1.280488,-0.548781,-4.781250,17.462500,19.362501,29.801,0.56800592,-0.00990610,-0.02884376,-0.82245923
'00:11:57.554,0.060547,0.029785,1.002930,0.365854,1.402439,-0.548781,-4.781250,17.462500,19.362501,29.755,0.56801165,-0.00990710,-0.02885238,-0.82245495
'00:11:57.564,0.060547,0.029297,1.002441,0.426829,1.463415,-0.548781,-4.781250,17.462500,19.362501,29.786,0.56801830,-0.00990281,-0.02886055,-0.82245013
'00:11:57.574,0.059082,0.029297,1.004395,0.487805,1.402439,-0.548781,-4.825000,17.525000,19.393751,29.786,0.56802319,-0.00988956,-0.02886749,-0.82244667
'00:11:57.586,0.060547,0.029785,1.003906,0.243902,1.280488,-0.548781,-4.837500,17.487501,19.318750,29.786,0.56802650,-0.00990461,-0.02887026,-0.82244411
'00:11:57.594,0.060059,0.028809,1.003418,0.182927,1.219512,-0.548781,-4.837500,17.487501,19.318750,29.801,0.56802868,-0.00992137,-0.02886518,-0.82244257
'00:11:57.604,0.059570,0.030273,1.002930,0.487805,1.402439,-0.548781,-4.831250,17.462500,19.318750,29.786,0.56803164,-0.00990551,-0.02887818,-0.82244026
'00:11:57.614,0.060059,0.029785,1.003418,0.548781,1.524390,-0.670732,-4.831250,17.462500,19.318750,29.771,0.56802631,-0.00988232,-0.02888833,-0.82244387
'00:11:57.626,0.059570,0.030273,1.003418,0.365854,1.402439,-0.609756,-5.275000,18.206251,19.756250,29.801,0.56800759,-0.00985360,-0.02887306,-0.82245768
'00:11:57.634,0.059082,0.029297,1.004395,0.182927,1.219512,-0.548781,-5.275000,18.206251,19.756250,29.801,0.56799839,-0.00985341,-0.02885383,-0.82246471
'00:11:57.644,0.060547,0.029297,1.002441,0.182927,1.158537,-0.548781,-5.181250,18.025000,19.668751,29.816,0.56798904,-0.00986848,-0.02884206,-0.82247140
'00:11:57.654,0.059570,0.028320,1.002930,0.365854,1.402439,-0.609756,-5.181250,18.025000,19.668751,29.816,0.56797633,-0.00985502,-0.02882232,-0.82248103
'00:11:57.664,0.059570,0.029297,1.003906,0.548781,1.463415,-0.548781,-4.943750,17.687500,19.456251,29.816,0.56797709,-0.00983330,-0.02882816,-0.82248056
'00:11:57.674,0.059570,0.029785,1.004395,0.365854,1.402439,-0.670732,-4.943750,17.687500,19.456251,29.771,0.56796872,-0.00982300,-0.02882650,-0.82248652
'00:11:57.684,0.060547,0.029297,1.003906,0.182927,1.219512,-0.548781,-4.831250,17.543751,19.387501,29.831,0.56797323,-0.00984747,-0.02882735,-0.82248308
'00:11:57.694,0.060059,0.028320,1.003418,0.243902,1.280488,-0.548781,-4.831250,17.543751,19.387501,29.816,0.56797811,-0.00986541,-0.02882224,-0.82247968
'00:11:57.704,0.061035,0.028809,1.002930,0.426829,1.402439,-0.609756,-4.787500,17.493750,19.325001,29.831,0.56798102,-0.00987056,-0.02883342,-0.82247721
'00:11:57.714,0.060059,0.030762,1.002930,0.548781,1.524390,-0.609756,-4.787500,17.493750,19.325001,29.816,0.56798393,-0.00984768,-0.02885445,-0.82247474
'00:11:57.724,0.060547,0.030273,1.004395,0.365854,1.463415,-0.548781,-4.812500,17.543751,19.293751,29.816,0.56799057,-0.00984206,-0.02886280,-0.82246993
'00:11:57.734,0.059570,0.030273,1.003418,0.243902,1.219512,-0.548781,-4.812500,17.543751,19.293751,29.786,0.56799649,-0.00985483,-0.02887098,-0.82246540
'00:11:57.745,0.059082,0.029297,1.003418,0.304878,1.219512,-0.548781,-5.168750,18.000000,19.712500,29.816,0.56798657,-0.00985147,-0.02885772,-0.82247276
'00:11:57.754,0.059570,0.029297,1.001953,0.304878,1.341463,-0.609756,-5.168750,18.000000,19.712500,29.801,0.56797483,-0.00984347,-0.02884388,-0.82248145
'00:11:57.764,0.060059,0.029297,1.002930,0.487805,1.463415,-0.609756,-4.893750,17.631250,19.400000,29.831,0.56797346,-0.00982974,-0.02884996,-0.82248234
'00:11:57.774,0.059570,0.029785,1.003906,0.365854,1.341463,-0.548781,-4.893750,17.631250,19.400000,29.786,0.56797599,-0.00982634,-0.02885369,-0.82248050
'00:11:57.784,0.059082,0.029785,1.004395,0.243902,1.219512,-0.548781,-4.812500,17.425001,19.350000,29.831,0.56797906,-0.00983691,-0.02885402,-0.82247825
'00:11:57.794,0.061035,0.028809,1.004395,0.243902,1.219512,-0.609756,-4.812500,17.425001,19.350000,29.831,0.56797786,-0.00986187,-0.02885637,-0.82247870
'00:11:57.804,0.060547,0.028320,1.003418,0.426829,1.463415,-0.609756,-4.793750,17.543751,19.312500,29.816,0.56798180,-0.00986199,-0.02885987,-0.82247585
'00:11:57.814,0.060059,0.028809,1.002930,0.487805,1.463415,-0.609756,-4.793750,17.543751,19.312500,29.786,0.56798569,-0.00985456,-0.02886874,-0.82247294
'00:11:57.824,0.061035,0.029785,1.004883,0.365854,1.402439,-0.609756,-4.781250,17.487501,19.275000,29.801,0.56798877,-0.00985865,-0.02888000,-0.82247037
'00:11:57.834,0.059082,0.029297,1.003906,0.243902,1.219512,-0.609756,-4.781250,17.487501,19.275000,29.846,0.56799144,-0.00987313,-0.02888144,-0.82246831
'00:11:57.844,0.059082,0.027832,1.002930,0.304878,1.280488,-0.548781,-5.156250,17.950001,19.593750,29.786,0.56798296,-0.00987088,-0.02885834,-0.82247500
'00:11:57.855,0.060059,0.030762,1.002930,0.426829,1.402439,-0.609756,-5.025000,17.887501,19.606251,29.771,0.56797665,-0.00985298,-0.02886741,-0.82247925
'00:11:57.864,0.060059,0.029785,1.003418,0.426829,1.463415,-0.609756,-5.025000,17.887501,19.606251,29.786,0.56797184,-0.00983796,-0.02886695,-0.82248277
'00:11:57.874,0.059570,0.029785,1.003418,0.304878,1.280488,-0.548781,-4.812500,17.550001,19.337500,29.801,0.56797810,-0.00984558,-0.02887376,-0.82247812
'00:11:57.884,0.059570,0.029785,1.003418,0.182927,1.219512,-0.548781,-4.812500,17.550001,19.337500,29.771,0.56798405,-0.00986347,-0.02887470,-0.82247376
'00:11:57.894,0.059570,0.028809,1.003906,0.304878,1.341463,-0.609756,-4.787500,17.543751,19.325001,29.771,0.56798786,-0.00987130,-0.02887443,-0.82247104
'00:11:57.904,0.059570,0.028809,1.003906,0.426829,1.402439,-0.609756,-4.787500,17.543751,19.325001,29.786,0.56799190,-0.00986859,-0.02887987,-0.82246809
'00:11:57.914,0.060547,0.029785,1.004395,0.426829,1.402439,-0.609756,-4.812500,17.518751,19.387501,29.771,0.56799307,-0.00986565,-0.02889162,-0.82246691
'00:11:57.924,0.060547,0.029785,1.004395,0.426829,1.402439,-0.609756,-4.812500,17.518751,19.387501,29.771,0.56799421,-0.00986274,-0.02890318,-0.82246575
'00:11:57.934,0.060059,0.029297,1.003418,0.304878,1.280488,-0.609756,-4.950000,17.775000,19.487501,29.816,0.56799120,-0.00986944,-0.02890287,-0.82246776
'00:11:57.944,0.059570,0.028809,1.003906,0.243902,1.280488,-0.548781,-4.950000,17.775000,19.487501,29.755,0.56799263,-0.00987834,-0.02889334,-0.82246700
'00:11:57.954,0.059082,0.028809,1.003418,0.365854,1.280488,-0.609756,-5.250000,18.200001,19.806250,29.755,0.56797842,-0.00986762,-0.02887830,-0.82247747
'00:11:57.964,0.060059,0.029785,1.004395,0.365854,1.341463,-0.548781,-5.250000,18.200001,19.806250,29.771,0.56796861,-0.00985426,-0.02886916,-0.82248473
'00:11:57.974,0.060059,0.029785,1.002930,0.365854,1.402439,-0.609756,-4.812500,17.500000,19.381250,29.786,0.56796943,-0.00985198,-0.02887508,-0.82248398
'00:11:57.984,0.059082,0.029297,1.002441,0.365854,1.341463,-0.548781,-4.812500,17.500000,19.381250,29.846,0.56797460,-0.00985084,-0.02887749,-0.82248034
'00:11:57.994,0.059570,0.029785,1.003418,0.365854,1.341463,-0.609756,-4.825000,17.481251,19.343750,29.786,0.56797409,-0.00984898,-0.02888284,-0.82248052
'00:11:58.004,0.060547,0.029785,1.002930,0.304878,1.280488,-0.609756,-4.825000,17.481251,19.343750,29.801,0.56797334,-0.00986007,-0.02889072,-0.82248063
'00:11:58.014,0.059082,0.030273,1.003418,0.426829,1.341463,-0.548781,-4.868750,17.550001,19.393751,29.801,0.56797552,-0.00984897,-0.02889917,-0.82247896
'00:11:58.024,0.059570,0.030273,1.003418,0.365854,1.402439,-0.548781,-4.868750,17.550001,19.393751,29.816,0.56797779,-0.00983937,-0.02890198,-0.82247741
'00:11:58.034,0.059570,0.028809,1.002930,0.304878,1.402439,-0.548781,-5.000000,17.806250,19.556250,29.771,0.56797672,-0.00983484,-0.02888806,-0.82247869
'00:11:58.044,0.059570,0.029297,1.003906,0.243902,1.219512,-0.548781,-5.000000,17.806250,19.556250,29.801,0.56797508,-0.00984443,-0.02888141,-0.82247994
'00:11:58.054,0.061035,0.028809,1.004395,0.243902,1.219512,-0.548781,-5.025000,17.837500,19.606251,29.786,0.56797234,-0.00986278,-0.02887626,-0.82248179
'00:11:58.064,0.062012,0.029297,1.001953,0.365854,1.341463,-0.609756,-5.025000,17.837500,19.606251,29.725,0.56796548,-0.00986990,-0.02888136,-0.82248627
'00:11:58.074,0.060059,0.030273,1.002930,0.609756,1.585366,-0.609756,-4.856250,17.550001,19.437500,29.786,0.56796473,-0.00983839,-0.02889591,-0.82248665
'00:11:58.084,0.059570,0.029297,1.004395,0.426829,1.463415,-0.609756,-4.856250,17.550001,19.437500,29.801,0.56796379,-0.00982597,-0.02889517,-0.82248748
'00:11:58.094,0.059082,0.029297,1.005371,0.182927,1.158537,-0.548781,-4.887500,17.537500,19.393751,29.816,0.56796402,-0.00984271,-0.02888713,-0.82248740
'00:11:58.104,0.061523,0.029785,1.002930,0.121951,1.097561,-0.548781,-4.756250,17.456251,19.312500,29.816,0.56797136,-0.00988552,-0.02889958,-0.82248138
'00:11:58.114,0.060547,0.029785,1.001953,0.365854,1.341463,-0.548781,-4.756250,17.456251,19.312500,29.801,0.56797944,-0.00989286,-0.02891375,-0.82247522
'00:11:58.124,0.060059,0.029297,1.003418,0.609756,1.585366,-0.609756,-4.850000,17.562500,19.306250,29.786,0.56798004,-0.00986482,-0.02892305,-0.82247481
'00:11:58.134,0.059570,0.031250,1.004395,0.487805,1.463415,-0.548781,-4.850000,17.562500,19.306250,29.771,0.56798425,-0.00984158,-0.02893826,-0.82247165
'00:11:58.144,0.059082,0.030273,1.004883,0.304878,1.219512,-0.548781,-5.225000,18.087500,19.712500,29.816,0.56797332,-0.00983267,-0.02892804,-0.82247966
'00:11:58.154,0.059082,0.029297,1.003906,0.121951,1.158537,-0.548781,-5.225000,18.087500,19.712500,29.801,0.56796234,-0.00984128,-0.02890296,-0.82248802
'00:11:58.164,0.059082,0.029297,1.003418,0.365854,1.341463,-0.548781,-4.900000,17.681250,19.431250,29.725,0.56796554,-0.00983736,-0.02890206,-0.82248589
'00:11:58.174,0.059082,0.030762,1.003906,0.548781,1.524390,-0.548781,-4.900000,17.681250,19.431250,29.786,0.56796904,-0.00980549,-0.02891329,-0.82248346
'00:11:58.184,0.059570,0.030273,1.003418,0.426829,1.402439,-0.609756,-4.781250,17.543751,19.375000,29.755,0.56797310,-0.00979863,-0.02892718,-0.82248025
'00:11:58.194,0.059570,0.029297,1.004395,0.243902,1.219512,-0.548781,-4.781250,17.543751,19.375000,29.771,0.56798111,-0.00981782,-0.02893076,-0.82247437
'00:11:58.204,0.060059,0.029785,1.002930,0.182927,1.158537,-0.609756,-4.800000,17.543751,19.356251,29.771,0.56798309,-0.00984380,-0.02893675,-0.82247248
'00:11:58.214,0.061523,0.029785,1.003418,0.365854,1.280488,-0.548781,-4.800000,17.543751,19.356251,29.831,0.56798979,-0.00985972,-0.02895506,-0.82246702
'00:11:58.224,0.060059,0.028809,1.003906,0.426829,1.463415,-0.609756,-4.781250,17.518751,19.375000,29.816,0.56799346,-0.00985559,-0.02895781,-0.82246444
'00:11:58.234,0.060059,0.029297,1.003906,0.426829,1.463415,-0.548781,-4.781250,17.518751,19.375000,29.816,0.56800138,-0.00984973,-0.02896324,-0.82245884
'00:11:58.244,0.059570,0.029785,1.004395,0.365854,1.341463,-0.609756,-5.075000,17.850000,19.500000,29.846,0.56799165,-0.00983805,-0.02895617,-0.82246595
'00:11:58.254,0.059570,0.029297,1.002930,0.304878,1.280488,-0.609756,-5.075000,17.850000,19.500000,29.771,0.56798186,-0.00983616,-0.02894576,-0.82247310
'00:11:58.264,0.059082,0.028809,1.003418,0.365854,1.341463,-0.548781,-5.025000,17.762501,19.468750,29.786,0.56797826,-0.00982785,-0.02893377,-0.82247611
'00:11:58.275,0.059570,0.029297,1.004395,0.365854,1.402439,-0.548781,-5.025000,17.762501,19.468750,29.771,0.56797440,-0.00981470,-0.02892213,-0.82247934
'00:11:58.284,0.059570,0.030273,1.004883,0.304878,1.341463,-0.609756,-4.806250,17.537500,19.287500,29.816,0.56797641,-0.00981577,-0.02892704,-0.82247777
'00:11:58.294,0.060547,0.029297,1.004883,0.182927,1.219512,-0.548781,-4.806250,17.537500,19.287500,29.801,0.56798275,-0.00984109,-0.02892789,-0.82247306
'00:11:58.304,0.061035,0.028809,1.004883,0.304878,1.280488,-0.609756,-4.775000,17.518751,19.343750,29.801,0.56798649,-0.00986195,-0.02893541,-0.82246995
'00:11:58.314,0.060547,0.028320,1.004395,0.365854,1.341463,-0.548781,-4.775000,17.518751,19.343750,29.755,0.56799488,-0.00987457,-0.02893960,-0.82246387
'00:11:58.324,0.061035,0.029785,1.004395,0.426829,1.341463,-0.609756,-4.818750,17.475000,19.350000,29.786,0.56799441,-0.00987740,-0.02895378,-0.82246365
'00:11:58.334,0.059570,0.030273,1.002930,0.365854,1.341463,-0.609756,-4.818750,17.475000,19.350000,29.786,0.56799381,-0.00987344,-0.02896106,-0.82246386
'00:11:58.344,0.059570,0.030273,1.002930,0.426829,1.402439,-0.548781,-4.962500,17.762501,19.518751,29.831,0.56799399,-0.00985804,-0.02896492,-0.82246379
'00:11:58.354,0.059570,0.028320,1.003906,0.365854,1.341463,-0.548781,-4.950000,17.681250,19.481251,29.786,0.56799349,-0.00985718,-0.02895509,-0.82246449
'00:11:58.364,0.060547,0.029297,1.003906,0.365854,1.280488,-0.548781,-4.950000,17.681250,19.481251,29.816,0.56799262,-0.00986230,-0.02895769,-0.82246494
'00:11:58.374,0.059570,0.029785,1.002441,0.365854,1.280488,-0.609756,-4.781250,17.500000,19.306250,29.755,0.56799540,-0.00986752,-0.02896904,-0.82246255
'00:11:58.384,0.060059,0.029297,1.004395,0.365854,1.341463,-0.548781,-4.781250,17.500000,19.306250,29.831,0.56800277,-0.00987264,-0.02897544,-0.82245717
'00:11:58.394,0.060547,0.029297,1.002441,0.304878,1.341463,-0.548781,-4.812500,17.556250,19.418751,29.755,0.56800868,-0.00988298,-0.02897864,-0.82245286
'00:11:58.404,0.060059,0.029297,1.002441,0.365854,1.341463,-0.548781,-4.812500,17.556250,19.418751,29.786,0.56801462,-0.00988740,-0.02898422,-0.82244851
'00:11:58.414,0.061035,0.029297,1.004883,0.304878,1.280488,-0.548781,-4.800000,17.500000,19.275000,29.816,0.56802044,-0.00990354,-0.02899109,-0.82244405
'00:11:58.424,0.060547,0.030273,1.004395,0.426829,1.341463,-0.548781,-4.800000,17.500000,19.275000,29.786,0.56802626,-0.00990258,-0.02900738,-0.82243947
'00:11:58.436,0.060547,0.030762,1.002930,0.426829,1.463415,-0.609756,-4.856250,17.618750,19.431250,29.801,0.56802608,-0.00988713,-0.02902113,-0.82243929
'00:11:58.444,0.060547,0.029785,1.003418,0.365854,1.463415,-0.548781,-4.856250,17.618750,19.431250,29.831,0.56802959,-0.00988252,-0.02902202,-0.82243690
'00:11:58.454,0.059570,0.029297,1.003906,0.243902,1.280488,-0.548781,-5.025000,17.781250,19.512501,29.801,0.56802550,-0.00988471,-0.02900756,-0.82244020
'00:11:58.465,0.059570,0.029297,1.002930,0.304878,1.280488,-0.548781,-5.025000,17.781250,19.512501,29.786,0.56802110,-0.00988404,-0.02899715,-0.82244362
'00:11:58.475,0.059082,0.028809,1.002930,0.426829,1.341463,-0.548781,-5.031250,17.812500,19.625000,29.755,0.56801736,-0.00987261,-0.02898893,-0.82244663
'00:11:58.484,0.060059,0.030273,1.002930,0.487805,1.463415,-0.609756,-5.031250,17.812500,19.625000,29.786,0.56801012,-0.00985148,-0.02899101,-0.82245181
'00:11:58.494,0.059570,0.029297,1.003418,0.304878,1.341463,-0.609756,-4.850000,17.543751,19.387501,29.816,0.56800891,-0.00985371,-0.02898668,-0.82245277
'00:11:58.504,0.060547,0.029297,1.003906,0.243902,1.158537,-0.548781,-4.850000,17.543751,19.387501,29.771,0.56801154,-0.00987751,-0.02899063,-0.82245053
'00:11:58.517,0.060059,0.028809,1.003906,0.243902,1.219512,-0.548781,-4.825000,17.481251,19.356251,29.786,0.56801573,-0.00990203,-0.02898629,-0.82244749
'00:11:58.524,0.061035,0.028809,1.004395,0.304878,1.341463,-0.548781,-4.825000,17.481251,19.356251,29.771,0.56801817,-0.00991045,-0.02898531,-0.82244574
'00:11:58.534,0.060547,0.030273,1.001953,0.487805,1.524390,-0.548781,-4.812500,17.531250,19.375000,29.771,0.56802394,-0.00989374,-0.02899754,-0.82244152
'00:11:58.544,0.060059,0.029297,1.003418,0.426829,1.463415,-0.609756,-4.812500,17.531250,19.375000,29.786,0.56802537,-0.00988531,-0.02900024,-0.82244054
'00:11:58.555,0.060059,0.028320,1.002930,0.182927,1.158537,-0.548781,-5.112500,17.975000,19.637501,29.786,0.56801872,-0.00990562,-0.02898069,-0.82244558
'00:11:58.565,0.060547,0.028809,1.001465,0.304878,1.280488,-0.548781,-5.112500,17.975000,19.637501,29.786,0.56801299,-0.00991015,-0.02897106,-0.82244982
'00:11:58.574,0.060059,0.029785,1.002930,0.487805,1.463415,-0.548781,-5.118750,17.993750,19.675001,29.786,0.56800813,-0.00988817,-0.02896878,-0.82245352
'00:11:58.584,0.059570,0.029785,1.004883,0.365854,1.341463,-0.609756,-5.118750,17.993750,19.675001,29.846,0.56799804,-0.00987567,-0.02896107,-0.82246091
'00:11:58.595,0.060547,0.028809,1.002930,0.243902,1.219512,-0.548781,-4.768750,17.475000,19.275000,29.755,0.56800621,-0.00990325,-0.02896542,-0.82245478
'00:11:58.604,0.059570,0.028809,1.002930,0.365854,1.463415,-0.548781,-4.768750,17.475000,19.275000,29.816,0.56801352,-0.00989937,-0.02896244,-0.82244989
'00:11:58.614,0.060059,0.029297,1.003906,0.365854,1.341463,-0.548781,-4.781250,17.487501,19.306250,29.786,0.56802048,-0.00990390,-0.02896873,-0.82244481
'00:11:58.624,0.060547,0.030273,1.003418,0.304878,1.280488,-0.548781,-4.787500,17.493750,19.375000,29.801,0.56802637,-0.00991458,-0.02898068,-0.82244019
'00:11:58.635,0.061523,0.029297,1.002441,0.365854,1.280488,-0.609756,-4.787500,17.493750,19.375000,29.771,0.56802821,-0.00993307,-0.02899690,-0.82243812
'00:11:58.644,0.060547,0.030273,1.003906,0.365854,1.341463,-0.609756,-5.006250,17.800001,19.518751,29.771,0.56802211,-0.00992754,-0.02899931,-0.82244232
'00:11:58.654,0.060059,0.029297,1.003906,0.365854,1.341463,-0.548781,-5.006250,17.800001,19.518751,29.816,0.56801994,-0.00992276,-0.02899461,-0.82244404
'00:11:58.664,0.060059,0.029785,1.002930,0.304878,1.341463,-0.609756,-5.262500,18.131250,19.768751,29.786,0.56800301,-0.00990973,-0.02897719,-0.82245651
'00:11:58.677,0.059570,0.029297,1.004395,0.304878,1.280488,-0.548781,-5.262500,18.131250,19.768751,29.740,0.56798678,-0.00989763,-0.02895227,-0.82246874
'00:11:58.684,0.059570,0.029297,1.004395,0.304878,1.280488,-0.548781,-4.818750,17.525000,19.306250,29.740,0.56799039,-0.00990282,-0.02895303,-0.82246616
'00:11:58.694,0.060547,0.029297,1.003906,0.304878,1.280488,-0.609756,-4.818750,17.525000,19.306250,29.771,0.56799110,-0.00991549,-0.02895809,-0.82246533
'00:11:58.704,0.060059,0.030273,1.001953,0.365854,1.402439,-0.548781,-4.812500,17.481251,19.343750,29.816,0.56799554,-0.00991012,-0.02896512,-0.82246208
'00:11:58.715,0.059082,0.028809,1.004883,0.243902,1.280488,-0.609756,-4.812500,17.481251,19.343750,29.816,0.56799556,-0.00992006,-0.02895516,-0.82246230
'00:11:58.724,0.059082,0.028809,1.004883,0.243902,1.280488,-0.609756,-4.831250,17.581251,19.356251,29.816,0.56799650,-0.00992831,-0.02894802,-0.82246180
'00:11:58.734,0.061035,0.029297,1.002930,0.182927,1.219512,-0.548781,-4.831250,17.581251,19.356251,29.801,0.56800150,-0.00995421,-0.02894986,-0.82245797
'00:11:58.744,0.060547,0.028809,1.002930,0.365854,1.341463,-0.548781,-4.837500,17.656250,19.462500,29.816,0.56800792,-0.00996208,-0.02895508,-0.82245326
'00:11:58.756,0.061035,0.028809,1.004883,0.365854,1.341463,-0.609756,-4.837500,17.656250,19.462500,29.816,0.56801032,-0.00997388,-0.02896261,-0.82245119
'00:11:58.764,0.061035,0.028809,1.004883,0.365854,1.341463,-0.609756,-5.018750,17.800001,19.487501,29.816,0.56800459,-0.00997439,-0.02895914,-0.82245526
'00:11:58.774,0.060059,0.028809,1.002930,0.182927,1.158537,-0.548781,-5.018750,17.800001,19.487501,29.816,0.56800122,-0.00999248,-0.02894781,-0.82245777
'00:11:58.784,0.061523,0.027832,1.002441,0.304878,1.341463,-0.548781,-4.987500,17.806250,19.493750,29.816,0.56800081,-0.01000500,-0.02893914,-0.82245821
'00:11:58.794,0.061035,0.029785,1.002441,0.487805,1.524390,-0.548781,-4.987500,17.806250,19.493750,29.801,0.56800062,-0.00998496,-0.02894370,-0.82245843
'00:11:58.804,0.059082,0.031738,1.003906,0.426829,1.463415,-0.548781,-4.793750,17.512501,19.318750,29.816,0.56800704,-0.00996102,-0.02895822,-0.82245377
'00:11:58.814,0.059570,0.030273,1.003418,0.182927,1.158537,-0.548781,-4.793750,17.512501,19.318750,29.816,0.56801278,-0.00997995,-0.02896389,-0.82244938
'00:11:58.824,0.059082,0.028809,1.004395,0.304878,1.341463,-0.609756,-4.825000,17.487501,19.331251,29.801,0.56801214,-0.00997987,-0.02895544,-0.82245011
'00:11:58.836,0.060059,0.029297,1.003906,0.487805,1.524390,-0.548781,-4.825000,17.487501,19.331251,29.816,0.56801722,-0.00995769,-0.02895839,-0.82244677
'00:11:58.844,0.058594,0.030762,1.003906,0.365854,1.402439,-0.609756,-4.818750,17.500000,19.306250,29.786,0.56801726,-0.00994413,-0.02896101,-0.82244682
'00:11:58.854,0.062012,0.029785,1.003418,0.243902,1.219512,-0.548781,-4.818750,17.500000,19.306250,29.771,0.56802120,-0.00996955,-0.02897237,-0.82244339
'00:11:58.864,0.062012,0.028809,1.003418,0.243902,1.280488,-0.548781,-5.031250,17.825001,19.518751,29.831,0.56801769,-0.00998608,-0.02896593,-0.82244584
'00:11:58.877,0.062012,0.029785,1.002930,0.426829,1.402439,-0.609756,-5.018750,17.812500,19.518751,29.786,0.56800848,-0.00997993,-0.02897510,-0.82245195
'00:11:58.884,0.062012,0.029785,1.002930,0.426829,1.402439,-0.609756,-5.018750,17.812500,19.518751,29.786,0.56800353,-0.00997669,-0.02897997,-0.82245524
'00:11:58.894,0.059082,0.027832,1.004883,0.487805,1.402439,-0.609756,-4.837500,17.518751,19.293751,29.831,0.56800346,-0.00996651,-0.02897559,-0.82245556
