# FW/GUI: v9.6.1-multi17-dual (PyQt5)
# StartTime: 2026-04-03 16:19:57
# Slot: 13
# DeviceID: 13
# Label: EMG13
# IP: 192.168.137.206
# TCP: 3333
# DeviceFW: EMG_FW_v9.6_MULTI17_DUALCH_RUNTIMECFG_CHEN
# EMG column notes: EMG_t_s=seconds since this Start; sample_idx=device sample index (ADS frame index); fs=sample rate (SPS); gain=gain; flags=0x01(TEST) 0x02(SHORT) 0x04(RLD); emg_valid=1 valid / 0 invalid (spike-guard decision); ch1_raw_uV=raw uV (after spike guard); ch1_filt_uV=filtered uV; ch1_env_uV=envelope (RMS) uV
EMG_t_s,sample_idx,fs,gain,flags,emg_valid,ch1_raw_uV,ch1_filt_uV,ch1_env_uV,ch2_raw_uV,ch2_filt_uV,ch2_env_uV
0.000000,653371,1000.00,12,0,1,1094.766,-2.480,3.113,997.386,-0.565,0.937
0.001000,653372,1000.00,12,0,1,1094.574,-0.783,3.065,996.690,-1.339,0.921
0.002000,653373,1000.00,12,0,1,1095.415,1.263,2.973,997.314,-0.514,0.924
0.003000,653374,1000.00,12,0,1,1094.478,1.530,2.926,997.170,-0.277,0.924
0.004000,653375,1000.00,12,0,1,1095.439,1.868,2.928,998.299,0.398,0.910
0.005000,653376,1000.00,12,0,1,1099.931,5.380,2.979,997.362,0.202,0.902
0.006000,653377,1000.00,12,0,1,1101.420,5.778,3.056,998.852,0.494,0.903
0.007000,653378,1000.00,12,0,1,1098.129,0.880,3.058,999.644,1.935,0.934
0.008000,653379,1000.00,12,0,1,1095.319,-3.771,2.998,998.996,0.560,0.937
0.009000,653380,1000.00,12,0,1,1103.606,0.916,2.582,998.756,0.250,0.932
0.010000,653381,1000.00,12,0,1,1109.251,5.916,2.603,998.804,0.055,0.924
0.011000,653382,1000.00,12,0,1,1110.067,3.354,2.629,997.530,-0.971,0.906
0.012000,653383,1000.00,12,0,1,1102.933,-3.613,2.676,998.011,-0.889,0.910
0.013000,653384,1000.00,12,0,1,1096.279,-11.531,3.133,998.011,-0.371,0.894
0.014000,653385,1000.00,12,0,1,1099.594,-8.017,3.327,998.107,-0.474,0.892
0.015000,653386,1000.00,12,0,1,1098.730,-5.722,3.422,1000.221,1.355,0.900
0.016000,653387,1000.00,12,0,1,1098.850,-5.483,3.507,1000.557,2.017,0.926
0.017000,653388,1000.00,12,0,1,1101.780,-0.073,3.453,999.716,0.706,0.931
0.018000,653389,1000.00,12,0,1,1106.464,4.894,3.458,998.203,-0.446,0.931
0.019000,653390,1000.00,12,0,1,1107.209,7.566,3.620,997.242,-1.531,0.955
0.020000,653391,1000.00,12,0,1,1110.019,9.059,3.823,999.692,0.659,0.957
0.021000,653392,1000.00,12,0,1,1107.161,8.063,3.977,1000.341,1.814,0.986
0.022000,653393,1000.00,12,0,1,1098.201,-0.805,3.976,998.371,-0.299,0.986
0.023000,653394,1000.00,12,0,1,1090.971,-6.976,4.095,999.044,-0.148,0.986
0.024000,653395,1000.00,12,0,1,1091.932,-5.784,4.172,997.362,-0.881,0.993
0.025000,653396,1000.00,12,0,1,1095.775,-1.176,4.163,997.026,-1.958,1.026
0.026000,653397,1000.00,12,0,1,1093.781,-2.382,4.177,997.554,-0.724,1.006
0.027000,653398,1000.00,12,0,1,1095.078,-3.200,4.201,997.482,-0.929,1.014
0.028000,653399,1000.00,12,0,1,1101.132,1.901,4.210,997.843,-0.494,1.011
0.029000,653400,1000.00,12,0,1,1101.108,0.967,4.167,996.642,-1.249,1.009
0.030000,653401,1000.00,12,0,1,1101.876,-0.906,4.119,997.843,-0.716,1.011
0.031000,653402,1000.00,12,0,1,1104.831,0.709,4.086,997.963,0.256,1.008
0.032000,653403,1000.00,12,0,1,1108.818,2.648,4.078,998.083,-0.282,0.995
0.033000,653404,1000.00,12,0,1,1106.632,0.595,4.078,998.443,0.472,0.936
0.034000,653405,1000.00,12,0,1,1106.080,-1.789,4.086,996.305,-1.317,0.893
0.035000,653406,1000.00,12,0,1,1105.455,-1.151,4.072,996.329,-1.596,0.921
0.036000,653407,1000.00,12,0,1,1105.936,-0.814,4.023,995.849,-1.055,0.932
0.037000,653408,1000.00,12,0,1,1103.942,-0.625,3.990,996.930,-0.455,0.902
0.038000,653409,1000.00,12,0,1,1101.732,-1.825,3.957,997.891,1.245,0.912
0.039000,653410,1000.00,12,0,1,1099.210,-1.944,3.952,996.233,-0.221,0.910
0.040000,653411,1000.00,12,0,1,1099.450,-0.464,3.941,997.194,0.283,0.911
0.041000,653412,1000.00,12,0,1,1101.996,3.421,3.971,995.681,-0.049,0.899
0.042000,653413,1000.00,12,0,1,1106.008,7.555,4.108,996.233,-0.481,0.901
0.043000,653414,1000.00,12,0,1,1095.679,0.239,4.106,996.065,0.525,0.895
0.044000,653415,1000.00,12,0,1,1091.788,-6.134,4.190,995.537,-0.542,0.898
0.045000,653416,1000.00,12,0,1,1097.240,0.352,4.190,996.209,0.412,0.899
0.046000,653417,1000.00,12,0,1,1099.883,2.486,4.205,996.089,0.383,0.897
0.047000,653418,1000.00,12,0,1,1100.411,1.499,4.210,998.371,1.843,0.934
0.048000,653419,1000.00,12,0,1,1099.258,-0.666,4.210,999.668,3.361,1.039
0.049000,653420,1000.00,12,0,1,1101.444,-1.180,4.202,999.044,1.956,1.072
0.050000,653421,1000.00,12,0,1,1108.890,4.171,4.229,997.362,0.318,1.070
0.051000,653422,1000.00,12,0,1,1113.622,6.726,4.333,998.203,0.239,1.054
0.052000,653423,1000.00,12,0,1,1106.897,-0.263,4.330,999.260,1.563,1.074
0.053000,653424,1000.00,12,0,1,1104.975,-5.237,4.387,997.987,0.165,1.074
0.054000,653425,1000.00,12,0,1,1106.056,-2.787,4.397,995.969,-1.727,1.100
0.055000,653426,1000.00,12,0,1,1108.026,-1.448,4.336,997.627,-0.553,1.102
0.056000,653427,1000.00,12,0,1,1108.146,0.297,4.258,996.594,-0.396,1.102
0.057000,653428,1000.00,12,0,1,1104.927,-1.780,4.264,995.609,-1.846,1.099
0.058000,653429,1000.00,12,0,1,1103.870,-1.748,4.238,995.801,-0.993,1.105
0.059000,653430,1000.00,12,0,1,1099.738,-2.696,4.253,994.744,-1.550,1.126
0.060000,653431,1000.00,12,0,1,1097.937,-3.633,4.201,994.528,-1.648,1.149
0.061000,653432,1000.00,12,0,1,1095.655,-2.503,4.189,999.356,2.539,1.196
0.062000,653433,1000.00,12,0,1,1090.514,-5.749,4.237,999.116,3.332,1.280
0.063000,653434,1000.00,12,0,1,1093.997,-1.988,3.920,997.867,0.797,1.284
0.064000,653435,1000.00,12,0,1,1099.402,4.653,3.810,996.353,-0.174,1.282
0.065000,653436,1000.00,12,0,1,1100.003,4.716,3.782,996.738,-0.569,1.270
0.066000,653437,1000.00,12,0,1,1100.291,3.482,3.735,999.044,1.644,1.259
0.067000,653438,1000.00,12,0,1,1102.261,3.547,3.768,999.260,1.842,1.282
0.068000,653439,1000.00,12,0,1,1104.615,3.789,3.743,998.251,0.294,1.281
0.069000,653440,1000.00,12,0,1,1107.497,4.062,3.632,996.498,-1.190,1.274
0.070000,653441,1000.00,12,0,1,1113.718,6.839,3.534,997.747,-0.780,1.275
0.071000,653442,1000.00,12,0,1,1113.286,5.236,3.426,998.683,0.825,1.255
0.072000,653443,1000.00,12,0,1,1110.956,-0.125,3.424,999.188,0.633,1.257
0.073000,653444,1000.00,12,0,1,1112.061,-0.188,3.279,996.690,-0.950,1.264
0.074000,653445,1000.00,12,0,1,1114.487,1.288,3.180,998.323,-0.665,1.262
0.075000,653446,1000.00,12,0,1,1113.502,0.707,3.177,998.924,1.185,1.242
0.076000,653447,1000.00,12,0,1,1099.786,-9.727,3.446,997.915,-0.414,1.239
0.077000,653448,1000.00,12,0,1,1099.666,-11.224,3.767,998.035,-0.125,1.232
0.078000,653449,1000.00,12,0,1,1104.591,-1.376,3.762,997.242,-0.560,1.233
0.079000,653450,1000.00,12,0,1,1100.987,-2.787,3.780,997.410,-0.691,1.224
0.080000,653451,1000.00,12,0,1,1097.384,-4.258,3.826,997.747,0.134,1.220
0.081000,653452,1000.00,12,0,1,1097.553,-2.240,3.838,997.963,0.041,1.220
0.082000,653453,1000.00,12,0,1,1096.736,-1.014,3.822,997.771,0.159,1.219
0.083000,653454,1000.00,12,0,1,1097.937,0.558,3.822,998.731,0.518,1.220
0.084000,653455,1000.00,12,0,1,1096.496,0.320,3.814,997.651,0.076,1.205
0.085000,653456,1000.00,12,0,1,1098.321,0.666,3.812,995.993,-1.959,1.216
0.086000,653457,1000.00,12,0,1,1099.738,2.057,3.821,1000.005,1.189,1.218
0.087000,653458,1000.00,12,0,1,1101.636,1.770,3.828,999.380,1.761,1.242
0.088000,653459,1000.00,12,0,1,1102.501,1.427,3.825,997.723,-1.131,1.240
0.089000,653460,1000.00,12,0,1,1105.792,1.911,3.824,997.603,-0.768,1.244
0.090000,653461,1000.00,12,0,1,1108.674,3.185,3.850,997.410,-1.129,1.254
0.091000,653462,1000.00,12,0,1,1107.665,0.699,3.821,994.912,-2.729,1.312
0.092000,653463,1000.00,12,0,1,1108.362,-0.659,3.670,997.170,-1.400,1.325
0.093000,653464,1000.00,12,0,1,1110.548,1.081,3.673,997.554,0.455,1.324
0.094000,653465,1000.00,12,0,1,1109.827,0.205,3.569,998.515,0.399,1.323
0.095000,653466,1000.00,12,0,1,1106.344,-2.415,3.585,998.203,0.969,1.329
0.096000,653467,1000.00,12,0,1,1107.641,-1.222,3.572,996.041,-1.254,1.340
0.097000,653468,1000.00,12,0,1,1108.746,2.072,3.578,997.074,-0.545,1.316
0.098000,653469,1000.00,12,0,1,1105.744,0.476,3.577,998.371,1.342,1.242
0.099000,653470,1000.00,12,0,1,1103.846,-0.110,3.573,998.203,0.890,1.218
0.100000,653471,1000.00,12,0,1,1102.813,0.630,3.525,997.554,0.469,1.219
0.101000,653472,1000.00,12,0,1,1101.684,0.743,3.396,996.570,-0.615,1.221
0.102000,653473,1000.00,12,0,1,1102.333,2.018,3.408,995.873,-1.035,1.210
0.103000,653474,1000.00,12,0,1,1101.780,2.149,3.340,998.059,0.578,1.212
0.104000,653475,1000.00,12,0,1,1099.835,0.073,3.317,999.548,2.402,1.235
0.105000,653476,1000.00,12,0,1,1098.489,-1.684,3.319,1000.965,2.817,1.296
0.106000,653477,1000.00,12,0,1,1102.645,0.650,3.320,998.347,0.840,1.300
0.107000,653478,1000.00,12,0,1,1106.993,3.881,3.356,997.290,-1.410,1.289
0.108000,653479,1000.00,12,0,1,1104.975,0.502,3.347,996.401,-1.409,1.296
0.109000,653480,1000.00,12,0,1,1104.927,-2.313,3.342,996.834,-1.519,1.296
0.110000,653481,1000.00,12,0,1,1109.947,0.797,3.304,998.828,0.658,1.278
0.111000,653482,1000.00,12,0,1,1113.815,3.015,3.312,998.635,0.724,1.231
0.112000,653483,1000.00,12,0,1,1111.941,0.283,3.211,997.627,-0.564,1.140
0.113000,653484,1000.00,12,0,1,1109.611,-3.252,3.232,996.882,-0.964,1.142
0.114000,653485,1000.00,12,0,1,1110.019,-2.791,3.189,999.957,1.183,1.154
0.115000,653486,1000.00,12,0,1,1109.371,-2.374,3.136,998.491,1.183,1.164
0.116000,653487,1000.00,12,0,1,1106.704,-3.597,3.139,996.834,-1.597,1.162
0.117000,653488,1000.00,12,0,1,1103.221,-4.927,3.176,997.218,-0.506,1.135
0.118000,653489,1000.00,12,0,1,1102.741,-3.648,3.173,997.699,-0.164,1.134
0.119000,653490,1000.00,12,0,1,1101.588,-1.809,3.131,997.170,-0.265,1.123
0.120000,653491,1000.00,12,0,1,1103.125,0.640,2.979,998.083,0.245,1.118
0.121000,653492,1000.00,12,0,1,1102.909,2.796,2.912,998.756,1.135,1.123
0.122000,653493,1000.00,12,0,1,1104.591,3.917,2.964,999.644,1.540,1.140
0.123000,653494,1000.00,12,0,1,1102.381,3.298,3.001,998.635,0.733,1.137
0.124000,653495,1000.00,12,0,1,1101.684,0.949,2.998,995.801,-1.999,1.168
0.125000,653496,1000.00,12,0,1,1099.354,-0.575,2.998,997.723,-0.939,1.164
0.126000,653497,1000.00,12,0,1,1100.579,-1.553,2.672,996.690,-0.460,1.164
0.127000,653498,1000.00,12,0,1,1103.534,0.827,2.153,996.570,-1.723,1.189
0.128000,653499,1000.00,12,0,1,1107.209,2.183,2.167,997.314,-0.078,1.186
0.129000,653500,1000.00,12,0,1,1107.377,1.180,2.137,999.116,0.897,1.189
0.130000,653501,1000.00,12,0,1,1109.299,0.359,2.051,997.362,0.189,1.189
0.131000,653502,1000.00,12,0,1,1111.749,1.516,2.038,998.611,0.006,1.189
0.132000,653503,1000.00,12,0,1,1111.653,0.367,2.033,997.170,0.057,1.189
0.133000,653504,1000.00,12,0,1,1112.950,0.186,2.032,998.731,0.032,1.187
0.134000,653505,1000.00,12,0,1,1114.223,1.630,2.044,998.035,0.813,1.192
0.135000,653506,1000.00,12,0,1,1112.253,-0.088,2.042,999.140,0.504,1.162
0.136000,653507,1000.00,12,0,1,1107.978,-2.939,2.064,996.137,-0.768,1.155
0.137000,653508,1000.00,12,0,1,1107.617,-2.655,2.083,997.002,-1.453,1.146
0.138000,653509,1000.00,12,0,1,1106.128,-1.192,2.080,998.131,0.946,1.143
0.139000,653510,1000.00,12,0,1,1103.149,-2.610,2.095,996.281,-0.874,1.144
0.140000,653511,1000.00,12,0,1,1105.672,0.942,2.050,997.627,-0.179,1.134
0.141000,653512,1000.00,12,0,1,1107.737,4.671,2.152,997.675,0.916,1.074
0.142000,653513,1000.00,12,0,1,1103.726,1.704,2.163,996.522,-0.891,1.063
0.143000,653514,1000.00,12,0,1,1100.147,-1.865,2.174,997.795,0.520,1.063
0.144000,653515,1000.00,12,0,1,1101.084,-1.091,2.179,997.554,0.390,1.063
0.145000,653516,1000.00,12,0,1,1101.780,-0.273,2.152,996.401,-0.726,1.059
0.146000,653517,1000.00,12,0,1,1108.842,3.866,2.214,995.729,-1.378,1.062
0.147000,653518,1000.00,12,0,1,1105.527,1.904,2.211,996.041,-0.941,1.068
0.148000,653519,1000.00,12,0,1,1099.786,-7.008,2.422,997.146,0.123,1.051
0.149000,653520,1000.00,12,0,1,1106.825,-2.051,2.439,1000.125,2.554,1.104
0.150000,653521,1000.00,12,0,1,1111.076,2.189,2.457,999.692,2.505,1.158
0.151000,653522,1000.00,12,0,1,1111.581,0.362,2.456,998.611,0.546,1.157
0.152000,653523,1000.00,12,0,1,1111.412,-0.299,2.439,998.707,0.627,1.151
0.153000,653524,1000.00,12,0,1,1109.010,-3.101,2.460,998.443,0.266,1.149
0.154000,653525,1000.00,12,0,1,1109.707,-2.575,2.486,999.092,0.591,1.101
0.155000,653526,1000.00,12,0,1,1109.251,-1.500,2.484,996.930,-0.769,1.032
0.156000,653527,1000.00,12,0,1,1107.785,-1.989,2.498,996.954,-1.532,1.048
0.157000,653528,1000.00,12,0,1,1107.089,-0.955,2.441,997.290,-0.237,1.029
0.158000,653529,1000.00,12,0,1,1106.752,0.354,2.440,997.170,-0.618,1.013
0.159000,653530,1000.00,12,0,1,1109.371,3.801,2.477,998.491,0.739,0.996
0.160000,653531,1000.00,12,0,1,1107.953,4.524,2.556,996.329,-0.609,0.995
0.161000,653532,1000.00,12,0,1,1105.359,1.998,2.536,997.795,-0.375,0.991
0.162000,653533,1000.00,12,0,1,1100.483,-0.970,2.540,998.035,1.098,1.000
0.163000,653534,1000.00,12,0,1,1094.598,-6.053,2.640,997.338,-0.449,0.993
0.164000,653535,1000.00,12,0,1,1099.450,-2.095,2.627,997.242,-0.149,0.979
0.165000,653536,1000.00,12,0,1,1103.342,3.078,2.642,998.443,0.471,0.967
0.166000,653537,1000.00,12,0,1,1100.171,-0.961,2.596,998.179,0.591,0.944
0.167000,653538,1000.00,12,0,1,1100.843,-2.110,2.519,998.828,0.480,0.944
0.168000,653539,1000.00,12,0,1,1104.374,0.317,2.466,998.780,0.678,0.948
0.169000,653540,1000.00,12,0,1,1110.668,3.947,2.515,995.657,-2.087,0.992
0.170000,653541,1000.00,12,0,1,1112.565,4.815,2.604,994.120,-3.779,1.127
0.171000,653542,1000.00,12,0,1,1106.656,-2.257,2.593,994.360,-2.714,1.179
0.172000,653543,1000.00,12,0,1,1108.914,-2.712,2.562,997.410,-0.053,1.159
0.173000,653544,1000.00,12,0,1,1109.491,-0.475,2.521,999.260,2.479,1.207
0.174000,653545,1000.00,12,0,1,1108.362,-2.510,2.542,997.579,0.700,1.177
0.175000,653546,1000.00,12,0,1,1106.272,-2.675,2.569,998.635,1.026,1.179
0.176000,653547,1000.00,12,0,1,1106.008,-2.424,2.582,997.170,0.542,1.179
0.177000,653548,1000.00,12,0,1,1105.287,-0.700,2.581,995.753,-1.486,1.173
0.178000,653549,1000.00,12,0,1,1103.990,-0.471,2.564,997.290,0.263,1.173
0.179000,653550,1000.00,12,0,1,1102.381,-0.030,2.558,997.530,0.826,1.172
0.180000,653551,1000.00,12,0,1,1101.804,0.875,2.561,996.954,0.119,1.172
0.181000,653552,1000.00,12,0,1,1101.756,2.080,2.569,997.627,0.645,1.176
0.182000,653553,1000.00,12,0,1,1100.387,1.891,2.582,996.594,0.008,1.176
0.183000,653554,1000.00,12,0,1,1099.378,0.915,2.585,997.002,-0.159,1.176
0.184000,653555,1000.00,12,0,1,1098.898,0.724,2.577,997.002,0.322,1.171
0.185000,653556,1000.00,12,0,1,1100.771,1.385,2.584,996.906,-0.151,1.169
0.186000,653557,1000.00,12,0,1,1104.543,3.962,2.611,998.731,1.331,1.179
0.187000,653558,1000.00,12,0,1,1105.792,3.632,2.635,998.251,1.186,1.173
0.188000,653559,1000.00,12,0,1,1106.897,2.292,2.649,997.362,-0.318,1.166
0.189000,653560,1000.00,12,0,1,1109.058,2.310,2.644,997.218,-0.289,1.161
0.190000,653561,1000.00,12,0,1,1111.749,2.704,2.668,998.996,0.845,1.166
0.191000,653562,1000.00,12,0,1,1110.259,0.313,2.585,998.035,0.621,1.163
0.192000,653563,1000.00,12,0,1,1113.839,0.888,2.577,999.284,0.587,1.159
0.193000,653564,1000.00,12,0,1,1118.835,5.483,2.678,997.987,0.468,1.158
0.194000,653565,1000.00,12,0,1,1114.151,1.128,2.679,997.530,-1.035,1.166
0.195000,653566,1000.00,12,0,1,1110.644,-3.303,2.719,996.209,-1.228,1.175
0.196000,653567,1000.00,12,0,1,1108.146,-3.626,2.712,995.873,-1.969,1.191
0.197000,653568,1000.00,12,0,1,1104.398,-5.726,2.818,997.194,-0.233,1.184
0.198000,653569,1000.00,12,0,1,1104.567,-3.732,2.690,996.594,-0.283,1.185
0.199000,653570,1000.00,12,0,1,1104.086,-1.521,2.683,996.714,-0.561,1.131
0.200000,653571,1000.00,12,0,1,1098.489,-4.405,2.737,996.353,-0.186,1.075
0.201000,653572,1000.00,12,0,1,1099.258,-3.213,2.774,995.801,-1.018,1.081
0.202000,653573,1000.00,12,0,1,1101.492,1.279,2.779,997.939,0.977,1.087
0.203000,653574,1000.00,12,0,1,1103.870,3.118,2.780,998.347,1.630,1.110
0.204000,653575,1000.00,12,0,1,1107.665,6.230,2.893,998.491,1.146,1.119
0.205000,653576,1000.00,12,0,1,1110.668,7.451,3.072,998.563,1.159,1.125
0.206000,653577,1000.00,12,0,1,1108.146,3.650,3.102,996.786,-0.570,1.107
0.207000,653578,1000.00,12,0,1,1096.736,-7.810,3.290,997.122,-0.810,1.113
0.208000,653579,1000.00,12,0,1,1096.327,-11.228,3.653,995.945,-1.105,1.120
0.209000,653580,1000.00,12,0,1,1101.180,-5.083,3.684,994.672,-2.630,1.176
0.210000,653581,1000.00,12,0,1,1105.191,-2.558,3.646,994.720,-1.993,1.206
0.211000,653582,1000.00,12,0,1,1107.329,-0.423,3.635,994.432,-1.841,1.233
0.212000,653583,1000.00,12,0,1,1109.875,0.687,3.634,995.801,-0.507,1.225
0.213000,653584,1000.00,12,0,1,1111.653,2.344,3.547,997.170,1.251,1.236
0.214000,653585,1000.00,12,0,1,1112.229,2.537,3.553,998.924,2.459,1.284
0.215000,653586,1000.00,12,0,1,1109.395,0.593,3.527,1000.317,3.699,1.385
0.216000,653587,1000.00,12,0,1,1105.696,-2.124,3.538,998.756,2.012,1.411
0.217000,653588,1000.00,12,0,1,1104.374,-2.037,3.537,995.969,-0.888,1.415
0.218000,653589,1000.00,12,0,1,1104.326,-0.056,3.536,996.666,-0.663,1.415
0.219000,653590,1000.00,12,0,1,1103.390,0.751,3.494,996.401,-0.118,1.384
0.220000,653591,1000.00,12,0,1,1102.020,1.020,3.430,997.170,-0.008,1.277
0.221000,653592,1000.00,12,0,1,1103.173,2.669,3.436,997.963,1.190,1.229
0.222000,653593,1000.00,12,0,1,1103.654,4.175,3.465,998.155,0.966,1.237
0.223000,653594,1000.00,12,0,1,1105.575,5.014,3.536,998.083,0.828,1.192
0.224000,653595,1000.00,12,0,1,1100.411,1.204,3.522,997.458,0.098,1.188
0.225000,653596,1000.00,12,0,1,1101.324,-1.103,3.505,997.675,-0.036,1.179
0.226000,653597,1000.00,12,0,1,1104.663,2.554,3.507,996.930,-0.409,1.178
0.227000,653598,1000.00,12,0,1,1108.986,3.763,3.546,995.969,-1.574,1.180
0.228000,653599,1000.00,12,0,1,1109.467,3.358,3.577,998.059,0.197,1.180
0.229000,653600,1000.00,12,0,1,1106.296,-1.930,3.587,998.491,1.064,1.184
0.230000,653601,1000.00,12,0,1,1104.326,-5.182,3.659,998.731,0.638,1.187
0.231000,653602,1000.00,12,0,1,1107.665,-3.130,3.674,997.939,0.202,1.184
0.232000,653603,1000.00,12,0,1,1110.980,-0.085,3.665,996.017,-1.757,1.210
0.233000,653604,1000.00,12,0,1,1112.085,0.672,3.664,996.954,-1.088,1.219
0.234000,653605,1000.00,12,0,1,1111.557,0.051,3.662,996.810,-0.428,1.220
0.235000,653606,1000.00,12,0,1,1108.146,-2.109,3.669,999.572,1.201,1.231
0.236000,653607,1000.00,12,0,1,1106.873,-2.971,3.650,999.020,1.860,1.245
0.237000,653608,1000.00,12,0,1,1103.630,-3.183,3.642,996.810,-1.165,1.245
0.238000,653609,1000.00,12,0,1,1104.759,-1.778,3.636,995.753,-1.674,1.266
0.239000,653610,1000.00,12,0,1,1104.831,1.471,3.627,996.498,-1.101,1.275
0.240000,653611,1000.00,12,0,1,1102.957,0.323,3.607,995.465,-1.233,1.281
0.241000,653612,1000.00,12,0,1,1099.690,-0.904,3.609,996.305,-0.912,1.285
0.242000,653613,1000.00,12,0,1,1100.123,-0.483,3.608,995.921,-0.373,1.283
0.243000,653614,1000.00,12,0,1,1101.516,1.869,3.533,997.026,0.026,1.281
0.244000,653615,1000.00,12,0,1,1102.525,2.306,3.545,997.170,0.798,1.278
0.245000,653616,1000.00,12,0,1,1103.173,2.162,3.527,996.161,-0.436,1.268
0.246000,653617,1000.00,12,0,1,1102.813,0.798,3.492,995.993,-0.639,1.240
0.247000,653618,1000.00,12,0,1,1105.744,1.318,3.402,997.050,0.378,1.241
0.248000,653619,1000.00,12,0,1,1108.458,2.898,3.385,995.801,-0.436,1.242
0.249000,653620,1000.00,12,0,1,1115.280,5.799,3.477,995.609,-0.975,1.247
0.250000,653621,1000.00,12,0,1,1118.354,7.780,3.593,995.753,-0.424,1.248
0.251000,653622,1000.00,12,0,1,1111.581,-0.562,3.565,997.434,0.837,1.245
0.252000,653623,1000.00,12,0,1,1110.668,-3.939,3.604,998.467,2.049,1.271
0.253000,653624,1000.00,12,0,1,1113.334,-0.802,3.578,999.332,2.329,1.293
0.254000,653625,1000.00,12,0,1,1112.662,-1.258,3.473,998.395,1.511,1.300
0.255000,653626,1000.00,12,0,1,1112.806,-0.857,3.311,995.705,-1.135,1.300
0.256000,653627,1000.00,12,0,1,1106.248,-4.498,3.332,996.233,-1.093,1.306
0.257000,653628,1000.00,12,0,1,1104.422,-6.249,3.266,997.002,0.379,1.302
0.258000,653629,1000.00,12,0,1,1107.881,-0.158,2.854,998.972,1.552,1.311
0.259000,653630,1000.00,12,0,1,1107.545,1.391,2.769,999.548,2.568,1.309
0.260000,653631,1000.00,12,0,1,1101.732,-2.265,2.763,995.945,-0.925,1.285
0.261000,653632,1000.00,12,0,1,1100.123,-3.396,2.804,994.888,-2.422,1.304
0.262000,653633,1000.00,12,0,1,1102.477,0.218,2.803,997.050,-0.056,1.302
0.263000,653634,1000.00,12,0,1,1102.549,1.071,2.787,995.897,-0.472,1.292
0.264000,653635,1000.00,12,0,1,1096.159,-4.253,2.829,997.627,0.168,1.244
0.265000,653636,1000.00,12,0,1,1099.450,-3.273,2.865,996.810,0.562,1.132
0.266000,653637,1000.00,12,0,1,1100.795,-0.243,2.849,996.305,-0.980,1.104
0.267000,653638,1000.00,12,0,1,1101.060,-2.281,2.853,996.089,-0.492,1.099
0.268000,653639,1000.00,12,0,1,1104.302,0.066,2.853,997.530,0.203,1.096
0.269000,653640,1000.00,12,0,1,1105.407,0.169,2.851,997.771,0.948,1.104
0.270000,653641,1000.00,12,0,1,1103.774,-2.463,2.869,997.314,0.055,1.104
0.271000,653642,1000.00,12,0,1,1105.287,-2.085,2.859,997.194,-0.084,1.091
0.272000,653643,1000.00,12,0,1,1104.567,-2.205,2.815,997.915,0.459,1.084
0.273000,653644,1000.00,12,0,1,1102.333,-4.133,2.786,998.491,0.913,1.085
0.274000,653645,1000.00,12,0,1,1105.503,-1.046,2.785,1000.029,2.004,1.122
0.275000,653646,1000.00,12,0,1,1109.347,4.171,2.842,1000.173,2.078,1.160
0.276000,653647,1000.00,12,0,1,1105.720,2.162,2.836,998.251,0.116,1.158
0.277000,653648,1000.00,12,0,1,1100.387,-1.919,2.799,996.810,-1.507,1.157
0.278000,653649,1000.00,12,0,1,1099.859,-1.074,2.762,998.659,0.081,1.156
0.279000,653650,1000.00,12,0,1,1097.577,-0.383,2.749,997.170,-0.408,1.148
0.280000,653651,1000.00,12,0,1,1097.673,0.311,2.650,997.050,-1.324,1.160
0.281000,653652,1000.00,12,0,1,1095.871,1.173,2.618,998.611,0.667,1.163
0.282000,653653,1000.00,12,0,1,1093.253,-1.041,2.622,996.113,-1.178,1.148
0.283000,653654,1000.00,12,0,1,1092.796,-0.579,2.622,997.723,-0.761,1.143
0.284000,653655,1000.00,12,0,1,1097.096,2.844,2.652,998.924,1.477,1.160
0.285000,653656,1000.00,12,0,1,1098.009,4.086,2.698,998.780,0.472,1.150
0.286000,653657,1000.00,12,0,1,1098.441,2.354,2.686,997.675,-0.183,1.120
0.287000,653658,1000.00,12,0,1,1105.455,6.545,2.805,998.395,-0.308,1.108
0.288000,653659,1000.00,12,0,1,1109.419,8.955,3.067,998.299,0.146,1.083
0.289000,653660,1000.00,12,0,1,1109.731,5.885,3.172,998.155,-0.527,1.074
0.290000,653661,1000.00,12,0,1,1111.340,4.916,3.247,1000.005,0.993,1.069
0.291000,653662,1000.00,12,0,1,1109.827,1.962,3.256,998.371,0.037,1.062
0.292000,653663,1000.00,12,0,1,1106.464,-2.476,3.274,997.266,-1.839,1.092
0.293000,653664,1000.00,12,0,1,1103.438,-5.299,3.348,997.410,-1.054,1.102
0.294000,653665,1000.00,12,0,1,1107.065,-2.220,3.347,997.795,-0.841,1.102
0.295000,653666,1000.00,12,0,1,1109.851,2.270,3.348,997.554,-0.543,1.103
0.296000,653667,1000.00,12,0,1,1104.086,-1.702,3.355,997.819,-0.465,1.102
0.297000,653668,1000.00,12,0,1,1100.003,-4.948,3.422,996.041,-1.338,1.116
0.298000,653669,1000.00,12,0,1,1097.240,-4.672,3.461,996.714,-1.238,1.128
0.299000,653670,1000.00,12,0,1,1096.279,-4.001,3.410,997.290,0.243,1.120
0.300000,653671,1000.00,12,0,1,1097.312,-0.793,3.230,998.035,0.554,1.122
0.301000,653672,1000.00,12,0,1,1095.319,-0.862,3.231,996.041,-0.515,1.118
0.302000,653673,1000.00,12,0,1,1096.255,0.012,3.183,997.651,-0.049,1.080
0.303000,653674,1000.00,12,0,1,1097.985,2.517,3.200,998.491,1.713,1.056
0.304000,653675,1000.00,12,0,1,1097.889,1.766,3.205,997.530,0.255,1.035
0.305000,653676,1000.00,12,0,1,1098.609,1.403,3.209,995.633,-1.268,1.038
0.306000,653677,1000.00,12,0,1,1100.651,1.897,3.157,996.498,-0.897,1.034
0.307000,653678,1000.00,12,0,1,1104.134,3.263,3.066,997.579,0.560,1.036
0.308000,653679,1000.00,12,0,1,1113.310,8.698,3.303,996.786,-0.116,1.013
0.309000,653680,1000.00,12,0,1,1109.587,5.202,3.378,996.594,-0.621,0.949
0.310000,653681,1000.00,12,0,1,1104.567,-3.815,3.406,998.900,1.433,0.962
0.311000,653682,1000.00,12,0,1,1105.888,-2.895,3.397,998.659,1.491,0.923
0.312000,653683,1000.00,12,0,1,1107.905,-1.487,3.403,997.002,-0.403,0.925
0.313000,653684,1000.00,12,0,1,1108.770,-0.559,3.401,998.828,0.755,0.929
0.314000,653685,1000.00,12,0,1,1108.338,-0.482,3.348,999.692,2.107,0.975
0.315000,653686,1000.00,12,0,1,1109.971,1.056,3.319,996.257,-1.099,0.984
0.316000,653687,1000.00,12,0,1,1107.497,0.874,3.321,996.353,-1.617,1.001
0.317000,653688,1000.00,12,0,1,1104.374,-1.839,3.316,996.546,-0.436,1.000
0.318000,653689,1000.00,12,0,1,1104.182,-0.197,3.316,996.906,-0.412,1.002
0.319000,653690,1000.00,12,0,1,1097.721,-3.646,3.355,999.044,1.719,1.022
0.320000,653691,1000.00,12,0,1,1096.592,-4.623,3.401,999.933,2.575,1.085
0.321000,653692,1000.00,12,0,1,1098.273,-0.407,3.388,997.795,0.500,1.087
0.322000,653693,1000.00,12,0,1,1097.432,-0.598,3.375,998.804,0.536,1.088
0.323000,653694,1000.00,12,0,1,1099.186,0.863,3.326,998.852,1.179,1.093
0.324000,653695,1000.00,12,0,1,1094.094,-2.548,3.343,997.699,-0.460,1.057
0.325000,653696,1000.00,12,0,1,1087.920,-9.501,3.554,996.762,-1.209,1.030
0.326000,653697,1000.00,12,0,1,1098.682,-1.226,3.545,998.948,0.287,1.031
0.327000,653698,1000.00,12,0,1,1107.929,8.312,3.725,998.083,0.301,1.009
0.328000,653699,1000.00,12,0,1,1107.569,5.363,3.798,998.035,-0.737,1.015
0.329000,653700,1000.00,12,0,1,1108.410,3.261,3.826,998.323,0.030,1.013
0.330000,653701,1000.00,12,0,1,1108.986,2.337,3.840,998.251,-0.353,0.997
0.331000,653702,1000.00,12,0,1,1111.869,2.642,3.854,998.876,0.147,0.993
0.332000,653703,1000.00,12,0,1,1110.740,1.785,3.860,999.212,0.535,0.981
0.333000,653704,1000.00,12,0,1,1109.131,-1.229,3.863,998.011,-0.608,0.979
0.334000,653705,1000.00,12,0,1,1110.548,0.579,3.843,999.909,0.617,0.961
0.335000,653706,1000.00,12,0,1,1108.530,-0.100,3.799,1001.013,2.065,1.002
0.336000,653707,1000.00,12,0,1,1107.689,-0.574,3.785,998.131,-0.588,1.005
0.337000,653708,1000.00,12,0,1,1103.870,-1.516,3.677,999.044,-0.669,1.008
0.338000,653709,1000.00,12,0,1,1102.453,-2.406,3.468,1000.269,1.324,1.026
0.339000,653710,1000.00,12,0,1,1101.420,-0.584,3.368,997.482,-1.283,1.039
0.340000,653711,1000.00,12,0,1,1100.579,-0.595,3.297,998.227,-1.174,1.043
0.341000,653712,1000.00,12,0,1,1100.027,0.353,3.285,998.251,-0.187,1.043
0.342000,653713,1000.00,12,0,1,1099.931,0.530,3.267,997.554,-1.229,1.025
0.343000,653714,1000.00,12,0,1,1099.522,0.347,3.181,997.867,-0.633,1.018
0.344000,653715,1000.00,12,0,1,1103.942,2.994,3.193,997.098,-1.100,1.023
0.345000,653716,1000.00,12,0,1,1105.888,4.465,3.239,999.140,0.251,1.020
0.346000,653717,1000.00,12,0,1,1103.846,0.487,3.231,998.972,0.926,1.027
0.347000,653718,1000.00,12,0,1,1106.464,0.272,3.155,998.756,-0.216,1.010
0.348000,653719,1000.00,12,0,1,1113.502,4.906,3.162,998.731,0.173,0.995
0.349000,653720,1000.00,12,0,1,1115.856,5.279,3.199,999.356,0.194,0.994
0.350000,653721,1000.00,12,0,1,1117.298,3.599,3.237,998.780,0.036,0.991
0.351000,653722,1000.00,12,0,1,1115.640,0.929,3.238,999.404,-0.006,0.989
0.352000,653723,1000.00,12,0,1,1112.301,-3.537,3.276,999.596,0.545,0.992
0.353000,653724,1000.00,12,0,1,1105.768,-8.598,3.476,999.836,0.371,0.963
0.354000,653725,1000.00,12,0,1,1105.936,-8.500,3.670,997.891,-0.942,0.972
0.355000,653726,1000.00,12,0,1,1106.248,-4.808,3.727,997.939,-1.414,0.976
0.356000,653727,1000.00,12,0,1,1106.080,-3.664,3.753,1000.485,1.236,0.983
0.357000,653728,1000.00,12,0,1,1109.371,1.215,3.729,1000.461,1.596,1.005
0.358000,653729,1000.00,12,0,1,1111.893,5.281,3.598,998.900,-0.238,1.006
0.359000,653730,1000.00,12,0,1,1109.371,3.971,3.567,997.915,-0.975,1.011
0.360000,653731,1000.00,12,0,1,1099.931,-3.217,3.555,997.074,-1.614,1.017
0.361000,653732,1000.00,12,0,1,1097.769,-5.868,3.628,998.419,-0.356,0.996
0.362000,653733,1000.00,12,0,1,1100.435,-1.133,3.625,998.852,0.540,0.997
0.363000,653734,1000.00,12,0,1,1101.372,-0.196,3.624,999.236,0.533,0.994
0.364000,653735,1000.00,12,0,1,1097.889,-2.816,3.645,998.155,-0.116,0.949
0.365000,653736,1000.00,12,0,1,1096.616,-5.290,3.718,997.146,-1.390,0.957
0.366000,653737,1000.00,12,0,1,1099.642,-2.751,3.737,996.161,-1.889,0.966
0.367000,653738,1000.00,12,0,1,1105.551,1.478,3.733,996.666,-1.527,0.988
0.368000,653739,1000.00,12,0,1,1106.776,2.021,3.744,999.620,1.216,1.001
0.369000,653740,1000.00,12,0,1,1107.305,0.178,3.709,998.756,1.061,0.983
0.370000,653741,1000.00,12,0,1,1114.247,4.506,3.706,998.683,-0.082,0.913
0.371000,653742,1000.00,12,0,1,1116.985,6.761,3.827,997.723,-0.175,0.911
0.372000,653743,1000.00,12,0,1,1112.613,1.152,3.829,997.795,-0.852,0.916
0.373000,653744,1000.00,12,0,1,1110.860,-1.363,3.832,998.924,0.696,0.906
0.374000,653745,1000.00,12,0,1,1112.589,0.642,3.816,997.530,-0.377,0.905
0.375000,653746,1000.00,12,0,1,1116.217,4.470,3.627,999.500,0.689,0.894
0.376000,653747,1000.00,12,0,1,1116.024,5.483,3.705,1000.197,2.243,0.948
0.377000,653748,1000.00,12,0,1,1107.473,-1.050,3.517,1000.125,1.289,0.964
0.378000,653749,1000.00,12,0,1,1107.809,-1.473,3.441,999.020,0.739,0.964
0.379000,653750,1000.00,12,0,1,1110.788,4.198,3.461,996.834,-1.538,0.988
0.380000,653751,1000.00,12,0,1,1105.599,0.470,3.446,996.978,-1.361,1.006
0.381000,653752,1000.00,12,0,1,1099.714,-4.559,3.486,997.362,-0.450,1.007
0.382000,653753,1000.00,12,0,1,1101.492,-2.710,3.497,997.530,-0.312,1.006
0.383000,653754,1000.00,12,0,1,1101.420,-1.216,3.497,996.738,-0.607,1.006
0.384000,653755,1000.00,12,0,1,1103.221,-0.921,3.499,997.627,-0.216,1.002
0.385000,653756,1000.00,12,0,1,1105.167,0.823,3.501,998.179,0.808,0.966
0.386000,653757,1000.00,12,0,1,1104.062,-1.523,3.506,999.788,1.563,0.987
0.387000,653758,1000.00,12,0,1,1107.209,-0.900,3.502,999.236,1.478,1.004
0.388000,653759,1000.00,12,0,1,1111.292,1.964,3.497,997.530,-0.776,0.993
0.389000,653760,1000.00,12,0,1,1113.646,1.917,3.506,998.035,-0.497,0.979
0.390000,653761,1000.00,12,0,1,1114.751,1.504,3.512,998.804,0.367,0.966
0.391000,653762,1000.00,12,0,1,1118.018,2.352,3.527,999.572,0.757,0.972
0.392000,653763,1000.00,12,0,1,1120.853,4.336,3.579,996.089,-1.682,0.985
0.393000,653764,1000.00,12,0,1,1121.789,4.017,3.624,996.209,-2.671,1.051
0.394000,653765,1000.00,12,0,1,1120.564,2.706,3.619,996.137,-1.150,1.052
0.395000,653766,1000.00,12,0,1,1111.461,-4.354,3.616,996.522,-1.333,1.068
0.396000,653767,1000.00,12,0,1,1105.672,-9.419,3.853,997.266,0.215,1.061
0.397000,653768,1000.00,12,0,1,1108.890,-3.933,3.893,998.035,0.751,1.066
0.398000,653769,1000.00,12,0,1,1106.488,-2.431,3.846,996.137,-0.336,1.066
0.399000,653770,1000.00,12,0,1,1103.654,-4.058,3.816,998.852,1.128,1.078
0.400000,653771,1000.00,12,0,1,1105.383,-0.425,3.783,999.476,2.863,1.151
0.401000,653772,1000.00,12,0,1,1106.800,2.181,3.793,999.236,1.552,1.172
0.402000,653773,1000.00,12,0,1,1106.320,2.150,3.772,998.515,1.131,1.181
0.403000,653774,1000.00,12,0,1,1106.272,1.603,3.578,997.386,-0.267,1.180
0.404000,653775,1000.00,12,0,1,1107.137,1.580,3.377,996.834,-0.845,1.178
0.405000,653776,1000.00,12,0,1,1105.816,-0.413,3.309,998.371,0.449,1.163
0.406000,653777,1000.00,12,0,1,1104.254,-3.451,3.304,997.074,-0.266,1.151
0.407000,653778,1000.00,12,0,1,1109.058,-0.947,3.302,997.867,-0.344,1.129
0.408000,653779,1000.00,12,0,1,1111.869,1.181,3.221,996.930,-0.377,1.130
0.409000,653780,1000.00,12,0,1,1115.424,1.678,3.181,998.539,0.071,1.122
0.410000,653781,1000.00,12,0,1,1115.736,1.480,3.155,996.329,-0.642,1.102
0.411000,653782,1000.00,12,0,1,1114.655,-1.486,3.051,1000.077,0.817,1.107
0.412000,653783,1000.00,12,0,1,1116.769,-0.147,3.047,999.452,2.277,1.150
0.413000,653784,1000.00,12,0,1,1113.791,-1.781,3.057,997.651,-1.103,1.158
0.414000,653785,1000.00,12,0,1,1110.356,-5.072,3.115,997.410,-0.644,1.162
0.415000,653786,1000.00,12,0,1,1109.491,-3.794,3.071,997.771,-0.466,1.147
0.416000,653787,1000.00,12,0,1,1109.347,-2.161,3.061,997.194,-0.660,1.119
0.417000,653788,1000.00,12,0,1,1109.299,0.038,3.054,996.714,-0.930,1.106
0.418000,653789,1000.00,12,0,1,1106.704,-0.204,3.041,997.651,-0.198,1.093
0.419000,653790,1000.00,12,0,1,1104.663,-0.697,3.043,996.353,-0.455,1.084
0.420000,653791,1000.00,12,0,1,1103.606,0.097,2.975,995.248,-2.001,1.121
0.421000,653792,1000.00,12,0,1,1101.660,-0.464,2.818,997.723,0.628,1.124
0.422000,653793,1000.00,12,0,1,1101.972,0.140,2.813,999.116,2.120,1.157
0.423000,653794,1000.00,12,0,1,1104.783,2.789,2.834,997.651,0.774,1.158
0.424000,653795,1000.00,12,0,1,1106.536,3.829,2.884,997.771,0.187,1.157
0.425000,653796,1000.00,12,0,1,1108.098,3.543,2.858,998.011,0.734,1.158
0.426000,653797,1000.00,12,0,1,1108.266,2.179,2.768,996.498,-0.797,1.119
0.427000,653798,1000.00,12,0,1,1109.106,0.596,2.766,997.939,-0.000,1.104
0.428000,653799,1000.00,12,0,1,1112.469,1.728,2.769,996.305,-0.520,1.102
0.429000,653800,1000.00,12,0,1,1113.791,1.549,2.713,995.032,-2.491,1.136
0.430000,653801,1000.00,12,0,1,1114.944,0.538,2.713,995.921,-1.040,1.129
0.431000,653802,1000.00,12,0,1,1115.760,0.489,2.637,997.362,0.263,1.128
0.432000,653803,1000.00,12,0,1,1119.628,2.511,2.633,997.843,0.976,1.135
0.433000,653804,1000.00,12,0,1,1118.186,2.188,2.645,997.963,0.854,1.139
0.434000,653805,1000.00,12,0,1,1115.736,-1.038,2.646,997.314,0.333,1.139
0.435000,653806,1000.00,12,0,1,1112.662,-2.084,2.660,998.083,0.690,1.138
0.436000,653807,1000.00,12,0,1,1113.334,-1.054,2.655,997.747,0.757,1.121
0.437000,653808,1000.00,12,0,1,1112.950,1.217,2.658,996.930,-0.246,1.102
0.438000,653809,1000.00,12,0,1,1108.938,-1.070,2.648,997.434,0.195,1.097
0.439000,653810,1000.00,12,0,1,1107.089,-1.651,2.644,997.002,0.163,1.095
0.440000,653811,1000.00,12,0,1,1107.065,0.063,2.635,997.627,0.305,1.094
0.441000,653812,1000.00,12,0,1,1106.176,0.089,2.614,996.906,0.263,1.090
0.442000,653813,1000.00,12,0,1,1106.512,0.673,2.543,997.314,-0.048,1.063
0.443000,653814,1000.00,12,0,1,1107.809,1.548,2.489,997.939,0.991,1.004
0.444000,653815,1000.00,12,0,1,1107.809,1.003,2.463,997.939,0.611,0.994
0.445000,653816,1000.00,12,0,1,1110.404,1.338,2.392,996.810,-0.270,0.977
0.446000,653817,1000.00,12,0,1,1112.397,2.130,2.010,997.795,0.041,0.977
0.447000,653818,1000.00,12,0,1,1114.944,1.727,1.947,999.188,1.544,0.995
0.448000,653819,1000.00,12,0,1,1116.913,1.902,1.935,998.203,0.523,0.997
0.449000,653820,1000.00,12,0,1,1116.841,-0.267,1.848,996.017,-1.690,1.013
0.450000,653821,1000.00,12,0,1,1113.574,-4.234,1.942,996.930,-1.159,0.943
0.451000,653822,1000.00,12,0,1,1115.664,-4.033,2.000,995.321,-1.654,0.946
0.452000,653823,1000.00,12,0,1,1115.976,-2.371,2.005,998.155,-0.194,0.933
0.453000,653824,1000.00,12,0,1,1114.511,-3.907,2.068,997.843,1.142,0.946
0.454000,653825,1000.00,12,0,1,1110.860,-5.327,2.189,996.858,-0.933,0.947
0.455000,653826,1000.00,12,0,1,1110.332,-4.858,2.294,996.498,-0.546,0.949
0.456000,653827,1000.00,12,0,1,1109.515,-2.589,2.271,997.290,-0.143,0.948
0.457000,653828,1000.00,12,0,1,1111.461,0.416,2.268,998.707,1.368,0.966
0.458000,653829,1000.00,12,0,1,1113.430,4.490,2.349,999.933,2.354,1.021
0.459000,653830,1000.00,12,0,1,1116.048,7.263,2.553,998.900,1.305,1.037
0.460000,653831,1000.00,12,0,1,1114.151,6.569,2.708,997.795,-0.054,1.033
0.461000,653832,1000.00,12,0,1,1107.978,0.697,2.702,996.522,-1.154,1.040
0.462000,653833,1000.00,12,0,1,1104.855,-2.683,2.729,995.873,-1.647,1.016
0.463000,653834,1000.00,12,0,1,1106.536,-1.016,2.721,997.122,-0.531,1.006
0.464000,653835,1000.00,12,0,1,1107.209,-0.514,2.625,995.248,-1.291,1.019
0.465000,653836,1000.00,12,0,1,1110.211,0.707,2.572,997.242,-0.620,1.020
0.466000,653837,1000.00,12,0,1,1111.148,0.874,2.557,997.747,1.255,1.031
0.467000,653838,1000.00,12,0,1,1114.055,0.895,2.560,995.825,-1.247,1.038
0.468000,653839,1000.00,12,0,1,1115.760,1.474,2.568,994.480,-2.085,1.079
0.469000,653840,1000.00,12,0,1,1113.887,-1.968,2.581,996.017,-0.913,1.085
0.470000,653841,1000.00,12,0,1,1117.105,-1.116,2.586,996.281,0.108,1.047
0.471000,653842,1000.00,12,0,1,1116.361,-0.918,2.589,997.242,0.470,1.045
0.472000,653843,1000.00,12,0,1,1114.727,-3.839,2.645,998.275,1.645,1.028
0.473000,653844,1000.00,12,0,1,1111.581,-4.909,2.706,999.548,2.340,1.075
0.474000,653845,1000.00,12,0,1,1115.136,-2.200,2.669,997.915,1.035,1.084
0.475000,653846,1000.00,12,0,1,1118.547,3.792,2.676,997.723,0.025,1.079
0.476000,653847,1000.00,12,0,1,1119.219,4.610,2.737,998.035,0.650,1.077
0.477000,653848,1000.00,12,0,1,1113.406,1.373,2.743,998.683,0.916,1.085
0.478000,653849,1000.00,12,0,1,1109.203,-2.398,2.753,996.305,-0.726,1.087
0.479000,653850,1000.00,12,0,1,1105.263,-3.401,2.786,996.954,-0.947,1.037
0.480000,653851,1000.00,12,0,1,1103.870,-3.659,2.832,997.915,0.773,1.033
0.481000,653852,1000.00,12,0,1,1105.143,-0.884,2.834,997.434,0.135,1.032
0.482000,653853,1000.00,12,0,1,1105.455,0.422,2.813,997.506,0.112,1.023
0.483000,653854,1000.00,12,0,1,1107.593,1.664,2.806,997.603,0.352,1.017
0.484000,653855,1000.00,12,0,1,1107.233,1.675,2.812,996.882,-0.396,1.018
0.485000,653856,1000.00,12,0,1,1111.412,2.611,2.820,997.843,0.283,1.014
0.486000,653857,1000.00,12,0,1,1113.863,4.726,2.895,995.609,-1.114,1.020
0.487000,653858,1000.00,12,0,1,1114.367,2.017,2.904,996.498,-1.255,1.035
0.488000,653859,1000.00,12,0,1,1113.815,0.258,2.900,996.233,-0.337,1.036
0.489000,653860,1000.00,12,0,1,1118.354,1.446,2.898,996.522,-0.850,1.042
0.490000,653861,1000.00,12,0,1,1122.774,4.875,2.979,997.771,0.713,1.046
0.491000,653862,1000.00,12,0,1,1123.951,4.074,3.034,997.386,0.330,1.047
0.492000,653863,1000.00,12,0,1,1118.138,-1.400,3.039,998.107,0.472,1.049
0.493000,653864,1000.00,12,0,1,1115.544,-4.990,3.112,998.131,0.866,1.047
0.494000,653865,1000.00,12,0,1,1119.219,-0.572,3.110,996.137,-1.194,1.057
0.495000,653866,1000.00,12,0,1,1118.619,0.952,3.107,997.795,-0.084,1.056
0.496000,653867,1000.00,12,0,1,1117.466,0.090,3.092,996.401,-0.308,1.057
0.497000,653868,1000.00,12,0,1,1118.667,2.813,3.108,997.675,-0.264,1.035
0.498000,653869,1000.00,12,0,1,1115.904,1.711,3.106,996.762,0.296,1.033
0.499000,653870,1000.00,12,0,1,1109.179,-3.116,3.137,998.347,0.431,1.007
0.500000,653871,1000.00,12,0,1,1108.722,-3.349,3.115,997.987,1.376,1.012
0.501000,653872,1000.00,12,0,1,1114.751,3.355,3.099,996.329,-0.911,0.993
0.502000,653873,1000.00,12,0,1,1114.703,4.194,3.138,997.050,-0.153,0.993
0.503000,653874,1000.00,12,0,1,1109.515,-1.599,3.097,997.458,0.580,0.983
0.504000,653875,1000.00,12,0,1,1108.386,-3.855,3.053,997.554,0.330,0.976
0.505000,653876,1000.00,12,0,1,1111.917,-1.393,2.981,996.113,-0.487,0.975
0.506000,653877,1000.00,12,0,1,1109.010,-3.848,3.008,998.083,0.280,0.976
0.507000,653878,1000.00,12,0,1,1105.359,-9.023,3.267,997.506,0.982,0.966
0.508000,653879,1000.00,12,0,1,1116.985,-0.498,3.206,998.467,0.347,0.908
0.509000,653880,1000.00,12,0,1,1122.102,5.703,3.142,996.065,-0.474,0.892
0.510000,653881,1000.00,12,0,1,1121.357,1.699,3.011,994.528,-3.110,0.995
0.511000,653882,1000.00,12,0,1,1125.080,3.796,3.057,994.888,-1.816,1.014
0.512000,653883,1000.00,12,0,1,1127.026,4.890,3.111,996.594,-0.429,0.989
0.513000,653884,1000.00,12,0,1,1118.378,-2.489,3.128,999.572,2.372,1.041
0.514000,653885,1000.00,12,0,1,1112.902,-8.250,3.337,999.548,2.585,1.089
0.515000,653886,1000.00,12,0,1,1113.983,-4.917,3.408,996.329,-0.831,1.091
0.516000,653887,1000.00,12,0,1,1116.841,-0.236,3.406,997.963,-0.022,1.077
0.517000,653888,1000.00,12,0,1,1115.184,0.735,3.405,995.369,-1.000,1.072
0.518000,653889,1000.00,12,0,1,1117.225,2.877,3.423,995.609,-2.038,1.070
0.519000,653890,1000.00,12,0,1,1115.592,3.892,3.455,996.642,0.257,1.063
0.520000,653891,1000.00,12,0,1,1111.220,-0.111,3.452,996.666,-0.038,1.063
0.521000,653892,1000.00,12,0,1,1109.971,-0.708,3.451,997.651,0.964,1.069
0.522000,653893,1000.00,12,0,1,1110.283,0.156,3.408,997.771,1.272,1.059
0.523000,653894,1000.00,12,0,1,1106.704,-2.680,3.358,998.155,1.108,1.018
0.524000,653895,1000.00,12,0,1,1107.905,-2.890,3.368,996.233,-0.063,1.008
0.525000,653896,1000.00,12,0,1,1109.419,-1.150,3.329,997.002,-0.447,1.010
0.526000,653897,1000.00,12,0,1,1112.758,0.004,3.265,996.882,0.515,1.008
0.527000,653898,1000.00,12,0,1,1114.151,0.705,3.261,999.644,1.646,1.026
0.528000,653899,1000.00,12,0,1,1114.751,-0.812,3.245,998.828,2.095,1.063
0.529000,653900,1000.00,12,0,1,1118.378,0.867,3.212,996.978,-0.979,1.064
0.530000,653901,1000.00,12,0,1,1117.177,-0.312,3.170,998.683,0.561,1.061
0.531000,653902,1000.00,12,0,1,1117.658,-1.974,3.180,998.852,0.960,1.070
0.532000,653903,1000.00,12,0,1,1118.619,-0.154,3.179,998.083,-0.303,1.070
0.533000,653904,1000.00,12,0,1,1116.961,-1.705,3.180,996.233,-1.568,1.092
0.534000,653905,1000.00,12,0,1,1116.505,-1.272,3.176,997.675,-1.046,1.101
0.535000,653906,1000.00,12,0,1,1115.880,-0.356,3.155,997.963,0.355,1.101
0.536000,653907,1000.00,12,0,1,1113.935,-0.539,3.084,998.251,-0.194,1.090
0.537000,653908,1000.00,12,0,1,1113.622,0.590,3.072,998.347,0.477,1.078
0.538000,653909,1000.00,12,0,1,1110.524,0.110,3.072,997.338,-0.672,1.081
0.539000,653910,1000.00,12,0,1,1109.419,-0.210,3.065,997.819,-0.312,1.075
0.540000,653911,1000.00,12,0,1,1108.554,0.997,2.990,997.771,0.050,1.070
0.541000,653912,1000.00,12,0,1,1111.893,3.703,2.980,997.603,-0.345,1.070
0.542000,653913,1000.00,12,0,1,1111.773,4.875,3.053,996.930,-0.562,1.071
0.543000,653914,1000.00,12,0,1,1109.947,1.615,2.979,997.002,-0.762,1.070
0.544000,653915,1000.00,12,0,1,1109.971,0.854,2.980,997.627,0.140,1.056
0.545000,653916,1000.00,12,0,1,1111.340,0.777,2.979,998.059,0.410,1.058
0.546000,653917,1000.00,12,0,1,1114.559,1.937,2.992,998.804,0.982,1.066
0.547000,653918,1000.00,12,0,1,1118.475,3.796,3.013,997.074,-0.354,1.067
0.548000,653919,1000.00,12,0,1,1120.156,3.214,3.038,997.002,-1.100,1.077
0.549000,653920,1000.00,12,0,1,1122.102,2.657,3.029,996.882,-0.561,1.078
0.550000,653921,1000.00,12,0,1,1119.219,-0.863,2.994,996.113,-1.468,1.081
0.551000,653922,1000.00,12,0,1,1116.913,-4.641,3.028,996.762,-0.754,1.078
0.552000,653923,1000.00,12,0,1,1117.874,-3.515,3.011,997.050,-0.187,1.078
0.553000,653924,1000.00,12,0,1,1122.150,0.515,3.003,996.498,-0.663,1.079
0.554000,653925,1000.00,12,0,1,1121.285,1.383,2.960,995.321,-1.450,1.098
0.555000,653926,1000.00,12,0,1,1116.265,-2.686,2.978,997.771,0.323,1.096
0.556000,653927,1000.00,12,0,1,1115.856,-2.185,2.944,998.515,1.931,1.129
0.557000,653928,1000.00,12,0,1,1118.427,2.143,2.670,996.594,-0.273,1.121
0.558000,653929,1000.00,12,0,1,1112.205,-0.996,2.673,996.281,-0.628,1.124
0.559000,653930,1000.00,12,0,1,1109.131,-3.910,2.608,994.960,-1.249,1.136
0.560000,653931,1000.00,12,0,1,1112.589,1.080,2.601,996.353,-0.453,1.049
0.561000,653932,1000.00,12,0,1,1113.142,2.811,2.576,996.738,0.910,1.025
0.562000,653933,1000.00,12,0,1,1109.779,-0.292,2.482,996.377,0.067,1.023
0.563000,653934,1000.00,12,0,1,1107.089,-3.058,2.494,998.395,1.865,1.002
0.564000,653935,1000.00,12,0,1,1112.349,0.314,2.205,998.924,2.485,0.997
0.565000,653936,1000.00,12,0,1,1113.598,2.175,2.115,996.714,0.196,0.990
0.566000,653937,1000.00,12,0,1,1110.380,-3.030,2.158,996.738,-0.340,0.992
0.567000,653938,1000.00,12,0,1,1106.969,-6.729,2.356,998.876,1.629,1.008
0.568000,653939,1000.00,12,0,1,1111.821,-4.304,2.399,998.491,1.442,0.987
0.569000,653940,1000.00,12,0,1,1116.024,0.364,2.336,997.795,0.134,0.987
0.570000,653941,1000.00,12,0,1,1117.946,0.522,2.337,998.155,0.431,0.989
0.571000,653942,1000.00,12,0,1,1121.549,2.991,2.373,998.707,0.695,0.984
0.572000,653943,1000.00,12,0,1,1118.427,0.735,2.375,997.530,-0.215,0.968
0.573000,653944,1000.00,12,0,1,1117.658,-1.485,2.354,997.146,-1.010,0.966
0.574000,653945,1000.00,12,0,1,1118.138,0.887,2.321,995.873,-1.582,0.992
0.575000,653946,1000.00,12,0,1,1117.778,0.888,2.319,997.987,-0.324,0.991
0.576000,653947,1000.00,12,0,1,1115.112,0.498,2.320,1000.437,2.583,1.053
0.577000,653948,1000.00,12,0,1,1112.830,-0.736,2.320,997.146,-0.243,1.028
0.578000,653949,1000.00,12,0,1,1110.259,-0.875,2.321,995.969,-2.226,1.033
0.579000,653950,1000.00,12,0,1,1111.148,0.718,2.320,996.834,-0.657,1.028
0.580000,653951,1000.00,12,0,1,1111.509,2.897,2.355,998.371,0.477,1.027
0.581000,653952,1000.00,12,0,1,1109.179,1.200,2.345,997.170,0.108,1.018
0.582000,653953,1000.00,12,0,1,1103.894,-2.996,2.383,996.017,-1.546,1.041
0.583000,653954,1000.00,12,0,1,1105.095,-2.806,2.403,996.714,-0.565,1.020
0.584000,653955,1000.00,12,0,1,1108.290,0.792,2.399,996.978,-0.135,1.009
0.585000,653956,1000.00,12,0,1,1109.803,1.098,2.404,995.080,-1.558,1.032
0.586000,653957,1000.00,12,0,1,1111.581,1.240,2.409,996.353,-0.878,1.039
0.587000,653958,1000.00,12,0,1,1113.935,1.814,2.421,997.675,1.020,1.047
0.588000,653959,1000.00,12,0,1,1114.607,0.832,2.424,996.498,-0.133,1.043
0.589000,653960,1000.00,12,0,1,1117.514,1.435,2.432,996.690,-0.332,1.043
0.590000,653961,1000.00,12,0,1,1118.427,1.550,2.438,997.050,0.360,1.044
0.591000,653962,1000.00,12,0,1,1118.859,0.450,2.382,998.395,1.083,1.054
0.592000,653963,1000.00,12,0,1,1118.427,-0.028,2.280,997.651,0.934,1.059
0.593000,653964,1000.00,12,0,1,1117.754,-0.742,2.271,996.546,-0.717,1.059
0.594000,653965,1000.00,12,0,1,1118.114,0.172,2.268,996.401,-0.545,1.061
0.595000,653966,1000.00,12,0,1,1116.913,0.451,2.266,996.329,-0.568,1.063
0.596000,653967,1000.00,12,0,1,1115.520,0.065,2.250,996.353,-0.361,1.055
0.597000,653968,1000.00,12,0,1,1112.854,-0.389,2.185,997.482,0.629,1.057
0.598000,653969,1000.00,12,0,1,1112.061,-0.242,2.138,995.801,-0.306,1.047
0.599000,653970,1000.00,12,0,1,1110.428,0.440,2.105,996.930,-0.098,1.044
0.600000,653971,1000.00,12,0,1,1111.148,1.272,2.110,997.242,1.125,1.035
0.601000,653972,1000.00,12,0,1,1108.914,1.007,2.010,997.314,0.526,1.032
0.602000,653973,1000.00,12,0,1,1106.704,-1.685,1.962,995.969,-0.167,1.032
0.603000,653974,1000.00,12,0,1,1109.707,0.825,1.964,998.419,1.067,1.039
0.604000,653975,1000.00,12,0,1,1107.545,-0.541,1.956,996.738,0.821,1.025
0.605000,653976,1000.00,12,0,1,1108.986,-1.888,1.937,996.642,-0.744,1.030
0.606000,653977,1000.00,12,0,1,1115.352,3.385,1.971,995.489,-0.633,0.997
0.607000,653978,1000.00,12,0,1,1115.784,2.440,1.978,997.482,0.027,0.996
0.608000,653979,1000.00,12,0,1,1116.000,-0.013,1.973,998.179,1.651,1.019
0.609000,653980,1000.00,12,0,1,1116.313,-0.777,1.897,998.347,0.932,1.012
0.610000,653981,1000.00,12,0,1,1115.112,-3.062,1.940,997.002,-0.008,1.010
0.611000,653982,1000.00,12,0,1,1115.352,-3.386,1.958,996.738,-0.754,1.008
0.612000,653983,1000.00,12,0,1,1119.988,0.462,1.959,995.873,-1.136,1.021
0.613000,653984,1000.00,12,0,1,1121.261,2.729,1.949,996.401,-0.840,0.993
0.614000,653985,1000.00,12,0,1,1118.907,0.535,1.950,997.290,0.244,0.929
0.615000,653986,1000.00,12,0,1,1113.550,-2.897,1.969,996.113,-0.455,0.931
0.616000,653987,1000.00,12,0,1,1113.959,-2.166,1.946,995.297,-1.518,0.954
0.617000,653988,1000.00,12,0,1,1112.421,-0.264,1.698,995.056,-1.117,0.940
0.618000,653989,1000.00,12,0,1,1109.827,-1.787,1.605,994.912,-1.225,0.933
0.619000,653990,1000.00,12,0,1,1108.122,-1.225,1.613,997.074,0.856,0.941
0.620000,653991,1000.00,12,0,1,1107.929,-0.322,1.612,997.603,1.730,0.970
0.621000,653992,1000.00,12,0,1,1107.497,0.478,1.557,997.266,0.998,0.976
0.622000,653993,1000.00,12,0,1,1108.578,1.471,1.568,996.041,0.013,0.975
0.623000,653994,1000.00,12,0,1,1109.347,2.107,1.582,997.434,0.627,0.969
0.624000,653995,1000.00,12,0,1,1107.329,-0.245,1.577,997.651,1.401,0.963
0.625000,653996,1000.00,12,0,1,1111.100,0.843,1.577,996.714,-0.006,0.962
0.626000,653997,1000.00,12,0,1,1114.631,3.808,1.665,996.570,-0.170,0.890
0.627000,653998,1000.00,12,0,1,1114.415,1.230,1.671,999.524,1.992,0.933
0.628000,653999,1000.00,12,0,1,1112.013,-2.234,1.696,998.131,1.449,0.902
0.629000,654000,1000.00,12,0,1,1115.664,-1.389,1.704,997.579,-0.359,0.899
0.630000,654001,1000.00,12,0,1,1118.547,1.516,1.668,997.482,0.120,0.896
0.631000,654002,1000.00,12,0,1,1119.916,1.160,1.667,996.474,-1.062,0.909
0.632000,654003,1000.00,12,0,1,1118.715,0.264,1.613,996.954,-0.703,0.888
0.633000,654004,1000.00,12,0,1,1118.114,-0.820,1.568,997.771,0.342,0.885
0.634000,654005,1000.00,12,0,1,1117.850,-0.059,1.564,998.251,0.570,0.889
0.635000,654006,1000.00,12,0,1,1113.142,-2.650,1.601,996.834,-0.336,0.862
0.636000,654007,1000.00,12,0,1,1106.897,-6.892,1.866,996.594,-1.115,0.868
0.637000,654008,1000.00,12,0,1,1107.978,-4.121,1.938,997.530,0.205,0.856
0.638000,654009,1000.00,12,0,1,1107.905,-0.821,1.938,996.690,-0.449,0.858
0.639000,654010,1000.00,12,0,1,1106.921,-0.488,1.928,995.801,-1.293,0.876
0.640000,654011,1000.00,12,0,1,1107.041,1.142,1.923,994.600,-1.990,0.919
0.641000,654012,1000.00,12,0,1,1105.335,0.656,1.924,998.467,0.858,0.914
0.642000,654013,1000.00,12,0,1,1103.894,-0.661,1.926,998.419,2.181,0.956
0.643000,654014,1000.00,12,0,1,1105.672,0.804,1.926,998.035,0.360,0.952
0.644000,654015,1000.00,12,0,1,1105.816,0.797,1.930,997.002,0.146,0.949
0.645000,654016,1000.00,12,0,1,1105.720,-0.614,1.931,997.530,-0.296,0.947
0.646000,654017,1000.00,12,0,1,1110.187,1.738,1.946,998.635,1.126,0.958
0.647000,654018,1000.00,12,0,1,1119.195,7.966,2.248,997.867,0.282,0.955
0.648000,654019,1000.00,12,0,1,1127.530,13.010,2.905,998.467,0.263,0.955
0.649000,654020,1000.00,12,0,1,1125.585,9.051,3.174,998.828,0.940,0.964
0.650000,654021,1000.00,12,0,1,1122.822,2.433,3.187,999.404,0.801,0.958
0.651000,654022,1000.00,12,0,1,1118.859,-1.623,3.192,999.524,1.148,0.968
0.652000,654023,1000.00,12,0,1,1118.114,-3.896,3.231,999.356,0.447,0.970
0.653000,654024,1000.00,12,0,1,1116.505,-3.616,3.269,999.884,0.874,0.966
0.654000,654025,1000.00,12,0,1,1111.124,-7.382,3.431,999.236,0.245,0.960
0.655000,654026,1000.00,12,0,1,1108.050,-8.383,3.620,1000.125,0.531,0.957
0.656000,654027,1000.00,12,0,1,1104.999,-7.762,3.752,998.804,-0.088,0.953
0.657000,654028,1000.00,12,0,1,1107.017,-4.224,3.784,998.996,-0.785,0.959
0.658000,654029,1000.00,12,0,1,1107.281,-0.106,3.784,997.482,-1.172,0.945
0.659000,654030,1000.00,12,0,1,1103.342,-2.361,3.797,998.059,-1.517,0.960
0.660000,654031,1000.00,12,0,1,1099.498,-4.013,3.815,997.819,-0.658,0.965
0.661000,654032,1000.00,12,0,1,1099.090,-3.420,3.815,996.113,-2.447,1.019
0.662000,654033,1000.00,12,0,1,1105.792,2.947,3.837,996.882,-1.681,1.034
0.663000,654034,1000.00,12,0,1,1106.320,4.691,3.875,997.362,-0.598,1.031
0.664000,654035,1000.00,12,0,1,1108.458,3.543,3.907,998.563,0.075,1.030
0.665000,654036,1000.00,12,0,1,1112.662,6.602,3.996,996.954,-0.540,1.031
0.666000,654037,1000.00,12,0,1,1117.057,7.449,4.121,998.371,-0.471,1.011
0.667000,654038,1000.00,12,0,1,1118.859,7.014,4.238,999.260,1.410,1.018
0.668000,654039,1000.00,12,0,1,1115.520,1.464,4.236,997.987,-0.395,1.005
0.669000,654040,1000.00,12,0,1,1118.186,0.633,4.233,997.266,-0.944,1.006
0.670000,654041,1000.00,12,0,1,1120.829,2.967,4.254,996.594,-1.401,0.996
0.671000,654042,1000.00,12,0,1,1113.815,-3.889,4.289,995.561,-2.065,1.028
0.672000,654043,1000.00,12,0,1,1111.557,-7.009,4.397,996.281,-1.236,1.043
0.673000,654044,1000.00,12,0,1,1113.526,-3.219,4.410,997.699,0.434,1.041
0.674000,654045,1000.00,12,0,1,1117.057,0.934,4.412,996.954,0.219,1.023
0.675000,654046,1000.00,12,0,1,1117.466,3.336,4.436,995.657,-1.096,1.034
0.676000,654047,1000.00,12,0,1,1113.863,1.037,4.405,996.401,-0.239,1.035
0.677000,654048,1000.00,12,0,1,1107.569,-2.975,4.422,995.801,-0.203,0.996
0.678000,654049,1000.00,12,0,1,1104.663,-4.392,4.454,995.248,-0.795,0.981
0.679000,654050,1000.00,12,0,1,1105.648,-1.490,4.455,997.410,1.177,0.994
0.680000,654051,1000.00,12,0,1,1107.689,1.680,4.456,997.074,1.495,1.016
0.681000,654052,1000.00,12,0,1,1106.800,1.663,4.459,998.804,1.974,1.043
0.682000,654053,1000.00,12,0,1,1107.209,1.251,4.463,995.152,0.007,1.038
0.683000,654054,1000.00,12,0,1,1107.497,1.240,4.465,997.819,0.076,1.037
0.684000,654055,1000.00,12,0,1,1108.410,0.559,4.465,998.852,3.025,1.119
0.685000,654056,1000.00,12,0,1,1107.809,-0.911,4.451,999.933,2.040,1.154
0.686000,654057,1000.00,12,0,1,1107.929,-2.637,4.359,999.692,2.515,1.198
0.687000,654058,1000.00,12,0,1,1114.775,1.502,4.325,998.491,0.387,1.198
0.688000,654059,1000.00,12,0,1,1116.649,3.078,4.346,996.810,-1.040,1.206
0.689000,654060,1000.00,12,0,1,1115.424,-0.703,4.346,997.434,-0.819,1.197
0.690000,654061,1000.00,12,0,1,1120.324,2.266,4.355,999.188,0.887,1.171
0.691000,654062,1000.00,12,0,1,1120.853,3.030,4.375,998.924,0.960,1.172
0.692000,654063,1000.00,12,0,1,1116.096,-2.032,4.384,995.609,-2.171,1.172
0.693000,654064,1000.00,12,0,1,1109.707,-6.810,4.487,997.050,-1.316,1.185
0.694000,654065,1000.00,12,0,1,1108.002,-7.316,4.603,998.780,1.081,1.195
0.695000,654066,1000.00,12,0,1,1109.443,-3.102,4.623,997.410,-0.095,1.194
0.696000,654067,1000.00,12,0,1,1106.464,-2.879,4.634,995.681,-1.797,1.211
0.697000,654068,1000.00,12,0,1,1105.768,-2.176,4.506,995.921,-1.391,1.226
0.698000,654069,1000.00,12,0,1,1104.999,0.074,4.113,995.513,-1.260,1.238
0.699000,654070,1000.00,12,0,1,1102.741,-0.756,3.910,997.194,0.031,1.231
0.700000,654071,1000.00,12,0,1,1104.567,1.692,3.903,997.242,0.743,1.230
0.701000,654072,1000.00,12,0,1,1105.263,3.411,3.926,996.594,-0.308,1.220
0.702000,654073,1000.00,12,0,1,1109.347,5.566,3.966,996.594,-0.207,1.219
0.703000,654074,1000.00,12,0,1,1113.911,9.104,4.138,997.122,0.178,1.213
0.704000,654075,1000.00,12,0,1,1118.378,10.068,4.250,996.762,-0.039,1.213
0.705000,654076,1000.00,12,0,1,1118.042,7.732,4.225,998.011,0.663,1.214
0.706000,654077,1000.00,12,0,1,1116.193,2.298,4.093,996.666,0.009,1.214
0.707000,654078,1000.00,12,0,1,1110.259,-4.323,4.095,998.203,0.333,1.210
0.708000,654079,1000.00,12,0,1,1112.061,-5.832,4.177,998.780,1.688,1.222
0.709000,654080,1000.00,12,0,1,1109.443,-6.282,4.257,998.203,0.449,1.205
0.710000,654081,1000.00,12,0,1,1107.137,-9.911,4.446,996.834,-0.520,1.203
0.711000,654082,1000.00,12,0,1,1110.380,-5.520,4.488,996.450,-1.113,1.163
0.712000,654083,1000.00,12,0,1,1113.574,-1.263,4.472,996.738,-0.517,1.141
0.713000,654084,1000.00,12,0,1,1114.799,0.837,4.424,998.227,0.824,1.144
0.714000,654085,1000.00,12,0,1,1111.653,-0.179,4.396,997.675,0.723,1.148
0.715000,654086,1000.00,12,0,1,1108.218,-2.586,4.311,995.200,-1.519,1.166
0.716000,654087,1000.00,12,0,1,1108.962,0.039,4.181,997.410,-0.111,1.164
0.717000,654088,1000.00,12,0,1,1106.344,0.033,4.061,998.227,1.756,1.173
0.718000,654089,1000.00,12,0,1,1103.702,-1.304,4.060,996.257,-0.595,1.175
0.719000,654090,1000.00,12,0,1,1100.387,-2.276,4.072,996.474,-0.493,1.169
0.720000,654091,1000.00,12,0,1,1099.522,-2.393,4.064,995.585,-0.832,1.158
0.721000,654092,1000.00,12,0,1,1101.660,0.567,4.028,995.321,-1.379,1.138
0.722000,654093,1000.00,12,0,1,1103.510,2.438,3.919,996.882,0.260,1.125
0.723000,654094,1000.00,12,0,1,1104.206,2.344,3.907,997.194,0.700,1.128
0.724000,654095,1000.00,12,0,1,1108.458,4.365,3.953,998.203,1.120,1.138
0.725000,654096,1000.00,12,0,1,1112.830,6.855,4.042,996.930,0.348,1.129
0.726000,654097,1000.00,12,0,1,1113.911,5.510,4.114,995.921,-1.243,1.142
0.727000,654098,1000.00,12,0,1,1113.959,2.933,4.114,995.801,-0.958,1.150
0.728000,654099,1000.00,12,0,1,1117.466,3.606,4.098,996.978,-0.085,1.144
0.729000,654100,1000.00,12,0,1,1120.396,4.850,4.150,995.224,-0.874,1.139
0.730000,654101,1000.00,12,0,1,1116.409,0.332,4.143,996.930,-0.277,1.120
0.731000,654102,1000.00,12,0,1,1113.166,-4.087,4.177,997.098,1.128,1.096
0.732000,654103,1000.00,12,0,1,1114.823,-2.065,4.183,996.618,-0.051,1.096
0.733000,654104,1000.00,12,0,1,1116.961,0.859,4.182,996.377,0.193,1.096
0.734000,654105,1000.00,12,0,1,1115.736,1.029,4.183,996.954,0.496,1.012
0.735000,654106,1000.00,12,0,1,1106.464,-5.322,4.249,995.104,-0.585,0.973
0.736000,654107,1000.00,12,0,1,1103.774,-7.450,4.361,995.393,-0.855,0.914
0.737000,654108,1000.00,12,0,1,1105.455,-2.330,4.369,998.563,2.245,0.966
0.738000,654109,1000.00,12,0,1,1102.044,-3.133,4.369,997.242,1.653,0.983
0.739000,654110,1000.00,12,0,1,1101.996,-2.444,4.382,994.888,-1.373,0.995
0.740000,654111,1000.00,12,0,1,1102.981,0.395,4.370,994.144,-1.616,1.013
0.741000,654112,1000.00,12,0,1,1105.287,2.067,4.359,995.441,-0.676,1.009
0.742000,654113,1000.00,12,0,1,1109.371,5.529,4.419,997.218,1.360,0.980
0.743000,654114,1000.00,12,0,1,1110.740,5.480,4.382,996.666,0.790,0.969
0.744000,654115,1000.00,12,0,1,1109.371,2.314,4.271,994.168,-1.516,0.980
0.745000,654116,1000.00,12,0,1,1109.707,0.283,4.249,995.465,-0.919,0.989
0.746000,654117,1000.00,12,0,1,1112.469,0.981,4.231,996.810,1.029,0.966
0.747000,654118,1000.00,12,0,1,1111.292,-1.072,4.223,998.203,1.680,0.976
0.748000,654119,1000.00,12,0,1,1113.622,-1.539,4.228,997.314,1.233,0.975
0.749000,654120,1000.00,12,0,1,1117.274,1.628,4.233,997.771,0.701,0.980
0.750000,654121,1000.00,12,0,1,1118.619,1.698,4.233,998.275,1.497,0.997
0.751000,654122,1000.00,12,0,1,1118.282,1.070,4.209,996.858,0.012,0.996
0.752000,654123,1000.00,12,0,1,1118.427,0.881,4.136,995.248,-1.528,1.019
0.753000,654124,1000.00,12,0,1,1112.662,-2.709,3.949,996.089,-0.755,1.024
0.754000,654125,1000.00,12,0,1,1100.819,-11.781,4.043,996.041,-0.224,1.025
0.755000,654126,1000.00,12,0,1,1102.309,-9.588,4.122,997.963,1.067,1.031
0.756000,654127,1000.00,12,0,1,1105.936,-1.167,4.112,996.281,0.473,1.033
0.757000,654128,1000.00,12,0,1,1105.984,0.229,4.067,996.618,-0.372,1.034
0.758000,654129,1000.00,12,0,1,1108.578,4.043,4.023,995.969,0.076,1.006
0.759000,654130,1000.00,12,0,1,1106.200,3.443,3.954,995.369,-1.115,1.016
0.760000,654131,1000.00,12,0,1,1101.804,-0.925,3.699,995.513,-0.567,1.017
0.761000,654132,1000.00,12,0,1,1104.927,1.397,3.621,997.122,0.628,1.008
0.762000,654133,1000.00,12,0,1,1113.022,8.118,3.795,994.432,-1.051,1.017
0.763000,654134,1000.00,12,0,1,1106.008,2.432,3.808,996.690,-0.414,1.012
0.764000,654135,1000.00,12,0,1,1106.728,-2.192,3.821,996.113,0.640,1.010
0.765000,654136,1000.00,12,0,1,1108.818,1.090,3.807,996.161,-0.703,0.992
0.766000,654137,1000.00,12,0,1,1111.821,0.209,3.807,995.152,-0.627,0.996
0.767000,654138,1000.00,12,0,1,1113.238,1.392,3.812,996.834,-0.081,0.965
0.768000,654139,1000.00,12,0,1,1108.530,-4.289,3.855,996.498,0.606,0.965
0.769000,654140,1000.00,12,0,1,1108.290,-6.001,3.934,997.362,0.459,0.965
0.770000,654141,1000.00,12,0,1,1111.509,-2.056,3.931,995.609,-0.263,0.958
0.771000,654142,1000.00,12,0,1,1114.247,0.388,3.930,994.408,-1.925,0.977
0.772000,654143,1000.00,12,0,1,1111.965,-0.020,3.915,995.705,-0.417,0.978
0.773000,654144,1000.00,12,0,1,1113.502,0.567,3.902,998.395,2.203,1.021
0.774000,654145,1000.00,12,0,1,1114.079,3.714,3.888,996.954,1.276,1.025
0.775000,654146,1000.00,12,0,1,1108.170,-0.745,3.767,996.570,0.192,1.024
0.776000,654147,1000.00,12,0,1,1103.486,-3.722,3.723,997.603,1.288,1.025
0.777000,654148,1000.00,12,0,1,1102.213,-2.882,3.722,997.554,1.281,1.032
0.778000,654149,1000.00,12,0,1,1101.180,-1.778,3.696,997.699,0.931,1.041
0.779000,654150,1000.00,12,0,1,1104.398,1.840,3.641,998.804,1.841,1.066
0.780000,654151,1000.00,12,0,1,1104.591,3.560,3.675,996.329,-0.259,1.066
0.781000,654152,1000.00,12,0,1,1097.408,-2.823,3.651,996.714,-0.870,1.061
0.782000,654153,1000.00,12,0,1,1098.345,-3.662,3.676,995.921,-0.678,1.065
0.783000,654154,1000.00,12,0,1,1103.678,1.979,3.685,995.489,-1.733,1.093
0.784000,654155,1000.00,12,0,1,1105.335,2.281,3.696,996.474,-0.461,1.092
0.785000,654156,1000.00,12,0,1,1107.161,2.107,3.631,997.026,0.052,1.089
0.786000,654157,1000.00,12,0,1,1113.742,5.612,3.564,995.128,-1.431,1.101
0.787000,654158,1000.00,12,0,1,1125.465,13.432,4.025,997.002,-0.445,1.056
0.788000,654159,1000.00,12,0,1,1116.697,5.735,4.082,996.329,0.059,1.030
0.789000,654160,1000.00,12,0,1,1104.855,-9.847,4.299,994.312,-2.334,1.064
0.790000,654161,1000.00,12,0,1,1103.990,-9.766,4.515,995.969,-0.773,1.045
0.791000,654162,1000.00,12,0,1,1103.822,-8.111,4.650,996.978,0.827,1.047
0.792000,654163,1000.00,12,0,1,1100.843,-8.617,4.743,996.257,-0.033,1.029
0.793000,654164,1000.00,12,0,1,1101.276,-6.314,4.763,997.651,1.063,1.034
0.794000,654165,1000.00,12,0,1,1102.573,-2.193,4.762,996.810,0.769,1.018
0.795000,654166,1000.00,12,0,1,1103.293,0.642,4.763,995.921,-0.507,1.012
0.796000,654167,1000.00,12,0,1,1103.342,2.511,4.774,995.152,-0.790,1.008
0.797000,654168,1000.00,12,0,1,1101.924,2.860,4.789,996.930,0.447,0.981
0.798000,654169,1000.00,12,0,1,1102.621,3.856,4.815,996.089,0.571,0.969
0.799000,654170,1000.00,12,0,1,1101.300,4.035,4.843,997.074,0.460,0.966
0.800000,654171,1000.00,12,0,1,1097.721,0.454,4.838,997.434,1.503,0.966
0.801000,654172,1000.00,12,0,1,1098.874,0.965,4.837,997.554,0.880,0.974
0.802000,654173,1000.00,12,0,1,1101.012,2.832,4.852,995.777,-0.346,0.951
0.803000,654174,1000.00,12,0,1,1106.945,6.066,4.912,996.353,-0.611,0.949
0.804000,654175,1000.00,12,0,1,1108.938,7.139,4.730,997.218,0.675,0.953
0.805000,654176,1000.00,12,0,1,1104.999,0.897,4.534,994.264,-1.765,0.974
0.806000,654177,1000.00,12,0,1,1104.398,-2.031,4.540,996.642,-0.751,0.977
0.807000,654178,1000.00,12,0,1,1106.056,-1.402,4.544,998.035,1.916,1.013
0.808000,654179,1000.00,12,0,1,1107.905,-0.857,4.509,998.323,0.990,1.023
0.809000,654180,1000.00,12,0,1,1108.794,-0.391,4.483,995.753,-0.492,1.013
0.810000,654181,1000.00,12,0,1,1108.626,-0.975,4.484,997.675,-0.283,1.010
0.811000,654182,1000.00,12,0,1,1109.106,-0.394,4.480,997.362,1.002,1.016
0.812000,654183,1000.00,12,0,1,1107.329,-0.983,4.332,997.074,-0.501,1.008
0.813000,654184,1000.00,12,0,1,1104.855,-2.396,4.332,997.627,0.612,1.010
0.814000,654185,1000.00,12,0,1,1100.195,-4.409,4.365,999.812,1.976,1.044
0.815000,654186,1000.00,12,0,1,1096.928,-5.776,4.438,996.618,-0.026,1.039
0.816000,654187,1000.00,12,0,1,1101.660,0.205,4.438,995.297,-2.394,1.089
0.817000,654188,1000.00,12,0,1,1105.503,6.185,4.520,995.369,-1.387,1.107
0.818000,654189,1000.00,12,0,1,1104.879,5.877,4.555,996.978,-0.146,1.104
0.819000,654190,1000.00,12,0,1,1098.009,0.484,4.476,996.498,0.105,1.102
0.820000,654191,1000.00,12,0,1,1093.853,-4.245,4.507,996.666,-0.221,1.102
0.821000,654192,1000.00,12,0,1,1094.166,-3.085,4.527,998.347,1.306,1.083
0.822000,654193,1000.00,12,0,1,1096.688,-1.018,4.530,997.098,0.567,1.085
0.823000,654194,1000.00,12,0,1,1101.876,2.907,4.548,995.417,-1.655,1.065
0.824000,654195,1000.00,12,0,1,1105.864,5.427,4.582,995.993,-0.873,1.057
0.825000,654196,1000.00,12,0,1,1102.140,0.748,4.582,998.155,0.851,1.063
0.826000,654197,1000.00,12,0,1,1103.269,-1.388,4.556,998.371,1.454,1.068
0.827000,654198,1000.00,12,0,1,1103.534,-0.870,4.539,996.353,-0.798,1.058
0.828000,654199,1000.00,12,0,1,1106.224,-0.711,4.533,996.642,-0.848,1.057
0.829000,654200,1000.00,12,0,1,1110.211,3.008,4.546,995.777,-1.013,1.034
0.830000,654201,1000.00,12,0,1,1103.654,-2.318,4.530,995.777,-1.396,1.052
0.831000,654202,1000.00,12,0,1,1096.039,-9.837,4.722,996.065,-0.505,1.047
0.832000,654203,1000.00,12,0,1,1093.397,-9.851,4.896,995.224,-1.155,1.056
0.833000,654204,1000.00,12,0,1,1100.651,-2.116,4.897,997.194,0.412,1.029
0.834000,654205,1000.00,12,0,1,1103.149,4.326,4.924,995.248,-0.193,1.027
0.835000,654206,1000.00,12,0,1,1096.976,-0.462,4.916,995.609,-1.016,1.037
0.836000,654207,1000.00,12,0,1,1094.598,-1.586,4.856,996.954,1.282,1.033
0.837000,654208,1000.00,12,0,1,1097.697,2.794,4.487,995.609,-0.100,1.031
0.838000,654209,1000.00,12,0,1,1097.360,4.189,4.453,998.155,1.566,1.055
0.839000,654210,1000.00,12,0,1,1101.588,6.866,4.339,997.002,1.612,1.027
0.840000,654211,1000.00,12,0,1,1103.678,9.434,4.325,997.362,0.371,1.023
0.841000,654212,1000.00,12,0,1,1104.182,7.480,4.302,997.843,1.684,1.044
0.842000,654213,1000.00,12,0,1,1099.570,2.673,4.143,997.843,0.767,1.049
0.843000,654214,1000.00,12,0,1,1096.207,-2.989,4.067,998.011,1.048,1.049
0.844000,654215,1000.00,12,0,1,1094.502,-4.869,4.114,997.194,0.038,1.043
0.845000,654216,1000.00,12,0,1,1093.805,-6.331,4.209,999.884,1.667,1.067
0.846000,654217,1000.00,12,0,1,1094.934,-5.666,4.270,998.107,1.063,1.072
0.847000,654218,1000.00,12,0,1,1097.937,-3.096,4.273,996.089,-2.145,1.112
0.848000,654219,1000.00,12,0,1,1107.425,4.055,4.277,998.395,0.242,1.110
0.849000,654220,1000.00,12,0,1,1100.675,0.587,4.239,996.882,-0.498,1.110
0.850000,654221,1000.00,12,0,1,1096.448,-7.047,4.354,996.401,-1.701,1.116
0.851000,654222,1000.00,12,0,1,1110.404,6.413,4.446,997.218,-0.287,1.110
0.852000,654223,1000.00,12,0,1,1103.702,4.347,4.470,999.452,1.264,1.123
0.853000,654224,1000.00,12,0,1,1104.374,0.159,4.387,997.651,0.512,1.122
0.854000,654225,1000.00,12,0,1,1107.257,7.228,4.390,996.401,-1.639,1.142
0.855000,654226,1000.00,12,0,1,1112.734,9.359,4.583,997.170,-0.386,1.115
0.856000,654227,1000.00,12,0,1,1096.063,-0.411,4.575,996.738,-0.602,1.113
0.857000,654228,1000.00,12,0,1,1083.164,-15.933,5.096,996.690,-0.754,1.085
0.858000,654229,1000.00,12,0,1,1097.553,-0.662,5.095,995.633,-1.168,1.089
0.859000,654230,1000.00,12,0,1,1103.606,9.045,5.253,995.777,-1.391,1.104
0.860000,654231,1000.00,12,0,1,1097.937,1.903,5.258,997.506,0.602,1.107
0.861000,654232,1000.00,12,0,1,1097.601,0.875,5.259,996.906,0.251,1.098
0.862000,654233,1000.00,12,0,1,1084.317,-9.497,5.426,996.041,-0.795,1.102
0.863000,654234,1000.00,12,0,1,1079.249,-16.488,5.896,997.266,0.204,1.099
0.864000,654235,1000.00,12,0,1,1088.449,-6.349,5.932,998.035,1.113,1.074
0.865000,654236,1000.00,12,0,1,1095.895,1.398,5.878,998.635,1.254,1.089
0.866000,654237,1000.00,12,0,1,1098.201,2.459,5.889,998.804,1.340,1.052
0.867000,654238,1000.00,12,0,1,1097.192,0.740,5.824,998.083,0.414,1.035
0.868000,654239,1000.00,12,0,1,1096.568,-1.359,5.768,995.128,-2.025,1.074
0.869000,654240,1000.00,12,0,1,1099.018,0.587,5.768,997.266,-0.926,1.082
0.870000,654241,1000.00,12,0,1,1101.684,2.742,5.750,997.242,0.525,1.084
0.871000,654242,1000.00,12,0,1,1098.249,0.542,5.734,997.362,-0.362,1.069
0.872000,654243,1000.00,12,0,1,1093.517,-3.889,5.758,997.603,0.588,1.069
0.873000,654244,1000.00,12,0,1,1089.602,-5.376,5.794,995.561,-1.269,1.059
0.874000,654245,1000.00,12,0,1,1091.716,-2.385,5.752,996.161,-1.045,1.062
0.875000,654246,1000.00,12,0,1,1093.013,1.990,5.758,995.224,-0.804,1.061
0.876000,654247,1000.00,12,0,1,1095.487,4.639,5.792,995.657,-1.105,1.053
0.877000,654248,1000.00,12,0,1,1094.142,5.540,5.844,996.185,0.348,1.048
0.878000,654249,1000.00,12,0,1,1084.389,-2.363,5.852,995.873,-0.281,1.042
0.879000,654250,1000.00,12,0,1,1080.666,-5.974,5.898,997.482,1.158,1.045
0.880000,654251,1000.00,12,0,1,1078.792,-4.815,5.928,997.434,1.367,1.044
0.881000,654252,1000.00,12,0,1,1073.268,-8.693,5.892,997.603,0.854,1.048
0.882000,654253,1000.00,12,0,1,1083.068,-0.787,5.726,997.482,0.923,1.044
0.883000,654254,1000.00,12,0,1,1086.647,5.635,5.773,997.603,0.484,1.044
0.884000,654255,1000.00,12,0,1,1097.673,10.398,5.926,998.659,1.355,1.061
0.885000,654256,1000.00,12,0,1,1110.091,21.409,6.655,998.852,1.349,1.069
0.886000,654257,1000.00,12,0,1,1091.259,3.321,6.667,998.707,0.840,1.060
0.887000,654258,1000.00,12,0,1,1089.914,-6.336,6.716,999.332,1.105,1.071
0.888000,654259,1000.00,12,0,1,1093.757,1.395,6.692,997.074,-0.634,1.052
0.889000,654260,1000.00,12,0,1,1092.364,-2.883,6.634,996.642,-1.721,1.056
0.890000,654261,1000.00,12,0,1,1091.331,-2.334,6.507,997.002,-0.676,1.059
0.891000,654262,1000.00,12,0,1,1100.603,4.131,6.447,997.579,-0.310,1.032
0.892000,654263,1000.00,12,0,1,1094.166,2.666,6.447,995.273,-1.601,1.051
0.893000,654264,1000.00,12,0,1,1079.465,-11.983,6.652,995.897,-1.710,1.069
0.894000,654265,1000.00,12,0,1,1089.530,-2.991,6.630,996.714,0.097,1.069
0.895000,654266,1000.00,12,0,1,1093.949,7.236,6.649,997.242,0.247,1.043
0.896000,654267,1000.00,12,0,1,1094.934,5.719,6.650,998.275,1.302,1.048
0.897000,654268,1000.00,12,0,1,1085.302,1.269,6.638,997.362,0.598,1.007
0.898000,654269,1000.00,12,0,1,1076.150,-9.203,6.740,997.170,-0.182,1.007
0.899000,654270,1000.00,12,0,1,1069.953,-10.757,6.909,997.843,0.653,1.009
0.900000,654271,1000.00,12,0,1,1070.217,-10.071,6.983,997.002,-0.237,0.980
0.901000,654272,1000.00,12,0,1,1077.928,-0.884,6.925,996.618,-0.760,0.985
0.902000,654273,1000.00,12,0,1,1103.798,19.803,7.445,997.242,-0.237,0.969
0.903000,654274,1000.00,12,0,1,1100.171,19.860,7.957,995.897,-1.052,0.978
0.904000,654275,1000.00,12,0,1,1087.464,-0.156,7.891,995.609,-1.716,0.981
0.905000,654276,1000.00,12,0,1,1090.130,0.466,7.780,995.080,-1.467,1.001
0.906000,654277,1000.00,12,0,1,1089.530,-0.256,7.779,995.657,-1.168,1.011
0.907000,654278,1000.00,12,0,1,1094.454,0.484,7.446,994.312,-1.416,1.025
0.908000,654279,1000.00,12,0,1,1101.060,7.097,7.513,996.233,-0.398,1.013
0.909000,654280,1000.00,12,0,1,1090.875,-2.738,7.413,995.873,0.661,0.998
0.910000,654281,1000.00,12,0,1,1085.206,-9.819,7.538,995.825,-0.237,0.995
0.911000,654282,1000.00,12,0,1,1088.112,-5.479,7.576,993.927,-0.874,1.002
0.912000,654283,1000.00,12,0,1,1092.244,-0.094,7.456,994.888,-0.778,1.002
0.913000,654284,1000.00,12,0,1,1097.480,5.392,7.123,996.498,1.594,1.026
0.914000,654285,1000.00,12,0,1,1095.895,5.782,7.114,995.465,0.675,1.019
0.915000,654286,1000.00,12,0,1,1092.580,2.103,7.117,994.888,-0.170,1.004
0.916000,654287,1000.00,12,0,1,1085.614,-1.993,7.114,995.993,1.006,0.996
0.917000,654288,1000.00,12,0,1,1076.006,-9.752,7.246,996.690,1.526,1.017
0.918000,654289,1000.00,12,0,1,1072.067,-11.288,7.417,996.017,0.998,0.986
0.919000,654290,1000.00,12,0,1,1078.168,-4.091,7.439,997.747,1.696,1.006
0.920000,654291,1000.00,12,0,1,1072.931,-4.654,7.458,995.969,0.960,1.013
0.921000,654292,1000.00,12,0,1,1061.281,-15.290,7.765,995.801,-0.606,1.015
0.922000,654293,1000.00,12,0,1,1067.575,-9.599,7.863,997.146,1.286,1.028
0.923000,654294,1000.00,12,0,1,1078.985,3.403,7.841,997.530,1.159,1.025
0.924000,654295,1000.00,12,0,1,1090.250,11.494,8.001,996.618,0.389,1.016
0.925000,654296,1000.00,12,0,1,1098.465,17.283,8.361,996.450,-0.184,1.010
0.926000,654297,1000.00,12,0,1,1098.489,13.615,8.555,996.882,0.272,0.999
0.927000,654298,1000.00,12,0,1,1104.182,13.569,8.732,995.825,-0.464,1.000
0.928000,654299,1000.00,12,0,1,1109.251,15.879,9.010,996.281,-0.509,1.001
0.929000,654300,1000.00,12,0,1,1114.703,15.923,9.249,996.978,0.643,0.992
0.930000,654301,1000.00,12,0,1,1112.758,12.615,9.395,996.810,0.243,0.974
0.931000,654302,1000.00,12,0,1,1105.407,2.661,9.322,997.002,0.446,0.968
0.932000,654303,1000.00,12,0,1,1098.249,-4.161,9.340,996.257,-0.154,0.960
0.933000,654304,1000.00,12,0,1,1094.406,-7.188,9.361,996.089,-0.498,0.960
0.934000,654305,1000.00,12,0,1,1092.364,-6.882,9.296,995.969,-0.354,0.942
0.935000,654306,1000.00,12,0,1,1094.502,-3.327,8.801,995.921,-0.479,0.925
0.936000,654307,1000.00,12,0,1,1091.812,-2.688,8.797,996.738,0.268,0.918
0.937000,654308,1000.00,12,0,1,1088.569,-4.943,8.779,996.906,0.515,0.907
0.938000,654309,1000.00,12,0,1,1087.200,-4.364,8.799,997.122,0.412,0.905
0.939000,654310,1000.00,12,0,1,1092.436,0.371,8.789,996.329,-0.161,0.872
0.940000,654311,1000.00,12,0,1,1097.336,5.542,8.818,997.194,0.047,0.866
0.941000,654312,1000.00,12,0,1,1095.343,2.731,8.807,996.377,-0.100,0.865
0.942000,654313,1000.00,12,0,1,1103.414,5.815,8.837,993.687,-2.771,0.923
0.943000,654314,1000.00,12,0,1,1104.134,6.946,8.729,995.849,-1.162,0.905
0.944000,654315,1000.00,12,0,1,1091.163,-8.317,8.798,998.539,2.043,0.950
0.945000,654316,1000.00,12,0,1,1116.505,6.846,8.791,998.515,1.709,0.980
0.946000,654317,1000.00,12,0,1,1092.436,-4.136,8.774,997.050,0.252,0.963
0.947000,654318,1000.00,12,0,1,1065.989,-40.039,10.441,995.273,-1.519,0.983
0.948000,654319,1000.00,12,0,1,1079.561,-21.855,10.810,995.849,-1.087,0.995
0.949000,654320,1000.00,12,0,1,1087.152,-9.762,10.792,996.522,0.039,0.991
0.950000,654321,1000.00,12,0,1,1088.040,-7.858,10.755,997.218,0.505,0.993
0.951000,654322,1000.00,12,0,1,1086.239,-5.735,10.785,996.834,0.469,0.989
0.952000,654323,1000.00,12,0,1,1081.435,-8.740,10.488,997.410,0.525,0.991
0.953000,654324,1000.00,12,0,1,1087.848,-0.574,10.105,997.771,1.129,0.993
0.954000,654325,1000.00,12,0,1,1089.722,4.867,10.128,996.137,-0.421,0.965
0.955000,654326,1000.00,12,0,1,1083.452,1.017,10.129,997.002,-0.164,0.942
0.956000,654327,1000.00,12,0,1,1071.154,-7.645,10.187,996.570,0.163,0.928
0.957000,654328,1000.00,12,0,1,1061.137,-14.052,10.378,996.858,-0.316,0.907
0.958000,654329,1000.00,12,0,1,1062.771,-9.799,10.422,997.290,0.551,0.909
0.959000,654330,1000.00,12,0,1,1067.046,-1.528,10.417,997.170,0.066,0.904
0.960000,654331,1000.00,12,0,1,1071.754,3.538,10.336,996.257,-0.590,0.907
0.961000,654332,1000.00,12,0,1,1082.035,12.676,10.462,995.657,-1.315,0.918
0.962000,654333,1000.00,12,0,1,1094.742,22.081,10.918,997.242,0.027,0.911
0.963000,654334,1000.00,12,0,1,1093.253,19.004,11.218,996.954,0.313,0.884
0.964000,654335,1000.00,12,0,1,1084.725,6.130,11.222,999.092,1.247,0.896
0.965000,654336,1000.00,12,0,1,1081.867,0.623,11.218,997.603,0.990,0.907
0.966000,654337,1000.00,12,0,1,1084.918,1.533,11.217,995.393,-2.115,0.944
0.967000,654338,1000.00,12,0,1,1081.579,-1.272,11.133,995.657,-1.361,0.939
0.968000,654339,1000.00,12,0,1,1084.750,-1.081,11.019,996.161,-0.709,0.934
0.969000,654340,1000.00,12,0,1,1094.574,8.273,11.066,996.594,-0.137,0.903
0.970000,654341,1000.00,12,0,1,1093.589,7.914,11.103,996.474,0.001,0.893
0.971000,654342,1000.00,12,0,1,1104.927,13.650,11.060,994.312,-1.700,0.920
0.972000,654343,1000.00,12,0,1,1102.213,15.045,11.181,994.816,-1.466,0.926
0.973000,654344,1000.00,12,0,1,1080.858,-6.794,11.212,996.281,0.478,0.914
0.974000,654345,1000.00,12,0,1,1082.660,-6.669,11.133,997.002,1.122,0.926
0.975000,654346,1000.00,12,0,1,1079.969,-2.523,10.868,997.314,1.304,0.944
0.976000,654347,1000.00,12,0,1,1084.509,-0.966,10.696,996.041,0.231,0.943
0.977000,654348,1000.00,12,0,1,1095.054,12.186,10.663,996.257,-0.137,0.941
0.978000,654349,1000.00,12,0,1,1091.283,8.477,10.493,996.522,0.524,0.941
0.979000,654350,1000.00,12,0,1,1085.854,1.345,10.250,997.170,0.626,0.941
0.980000,654351,1000.00,12,0,1,1080.570,-3.353,10.105,997.146,0.850,0.948
0.981000,654352,1000.00,12,0,1,1071.947,-11.555,10.229,997.074,0.329,0.947
0.982000,654353,1000.00,12,0,1,1074.661,-10.168,10.313,997.795,0.904,0.956
0.983000,654354,1000.00,12,0,1,1084.005,-1.009,10.264,997.410,0.569,0.956
0.984000,654355,1000.00,12,0,1,1095.991,7.940,10.279,995.969,-0.888,0.963
0.985000,654356,1000.00,12,0,1,1103.846,13.019,10.432,994.960,-1.728,0.992
0.986000,654357,1000.00,12,0,1,1116.961,19.064,10.768,997.194,0.073,0.991
0.987000,654358,1000.00,12,0,1,1114.583,15.600,10.969,997.699,1.308,1.005
0.988000,654359,1000.00,12,0,1,1105.768,1.235,10.953,997.002,0.131,1.004
0.989000,654360,1000.00,12,0,1,1090.322,-12.198,11.088,996.642,-0.019,1.004
0.990000,654361,1000.00,12,0,1,1094.814,-11.870,11.187,997.170,0.241,1.004
0.991000,654362,1000.00,12,0,1,1098.129,-2.994,11.188,996.474,-0.026,1.004
0.992000,654363,1000.00,12,0,1,1096.856,-4.860,11.179,995.224,-1.297,0.942
0.993000,654364,1000.00,12,0,1,1087.560,-9.226,11.212,995.561,-0.950,0.938
0.994000,654365,1000.00,12,0,1,1081.987,-13.466,11.312,995.945,-0.220,0.893
0.995000,654366,1000.00,12,0,1,1082.684,-8.918,11.341,995.200,-0.807,0.867
0.996000,654367,1000.00,12,0,1,1086.191,-2.748,11.332,995.152,-0.843,0.874
0.997000,654368,1000.00,12,0,1,1087.224,0.288,9.816,995.152,-0.599,0.852
0.998000,654369,1000.00,12,0,1,1070.745,-10.573,9.436,996.522,0.454,0.840
0.999000,654370,1000.00,12,0,1,1057.774,-23.251,9.897,996.642,0.921,0.850
1.000000,654371,1000.00,12,0,1,1090.923,5.564,9.866,998.419,1.736,0.882
1.001000,654372,1000.00,12,0,1,1106.152,26.002,10.498,996.329,0.627,0.884
1.002000,654373,1000.00,12,0,1,1080.474,-1.240,10.426,996.474,-0.631,0.885
1.003000,654374,1000.00,12,0,1,1069.424,-16.803,10.693,996.546,0.396,0.873
1.004000,654375,1000.00,12,0,1,1079.561,-6.389,10.709,996.954,0.052,0.871
1.005000,654376,1000.00,12,0,1,1070.938,-10.841,10.817,997.002,0.532,0.874
1.006000,654377,1000.00,12,0,1,1072.355,-13.241,10.925,995.873,-0.589,0.877
1.007000,654378,1000.00,12,0,1,1092.292,6.560,10.783,995.849,-0.756,0.883
1.008000,654379,1000.00,12,0,1,1108.098,20.633,11.084,995.513,-0.512,0.882
1.009000,654380,1000.00,12,0,1,1109.947,20.175,11.443,996.089,-0.310,0.883
1.010000,654381,1000.00,12,0,1,1096.135,6.111,11.465,995.729,0.076,0.879
1.011000,654382,1000.00,12,0,1,1095.391,1.050,11.325,995.849,-0.285,0.860
1.012000,654383,1000.00,12,0,1,1080.186,-6.193,10.921,995.152,-0.254,0.861
1.013000,654384,1000.00,12,0,1,1079.081,-11.371,10.707,996.738,0.488,0.863
1.014000,654385,1000.00,12,0,1,1090.058,5.351,10.698,997.554,1.893,0.886
1.015000,654386,1000.00,12,0,1,1092.412,8.455,10.765,998.731,2.070,0.922
1.016000,654387,1000.00,12,0,1,1079.873,-0.267,10.763,997.026,0.972,0.883
1.017000,654388,1000.00,12,0,1,1094.814,8.422,10.827,997.362,0.051,0.862
1.018000,654389,1000.00,12,0,1,1111.388,27.304,11.494,998.179,1.246,0.874
1.019000,654390,1000.00,12,0,1,1099.666,14.349,11.613,997.098,-0.059,0.874
1.020000,654391,1000.00,12,0,1,1080.186,-7.491,11.607,997.963,0.156,0.874
1.021000,654392,1000.00,12,0,1,1081.531,-8.833,11.513,996.329,-0.583,0.845
1.022000,654393,1000.00,12,0,1,1087.656,-2.222,11.319,996.546,-1.432,0.843
1.023000,654394,1000.00,12,0,1,1092.316,0.431,11.279,996.642,-0.311,0.842
1.024000,654395,1000.00,12,0,1,1093.829,0.160,11.239,996.666,-0.863,0.836
1.025000,654396,1000.00,12,0,1,1097.120,0.563,11.234,997.026,-0.040,0.815
1.026000,654397,1000.00,12,0,1,1097.480,-0.542,11.233,998.203,0.697,0.820
1.027000,654398,1000.00,12,0,1,1095.799,-3.753,11.113,998.972,1.574,0.850
1.028000,654399,1000.00,12,0,1,1097.312,-3.805,11.061,997.482,0.189,0.847
1.029000,654400,1000.00,12,0,1,1100.291,-0.832,11.060,997.098,-0.650,0.847
1.030000,654401,1000.00,12,0,1,1105.768,3.179,11.059,996.930,-0.357,0.840
1.031000,654402,1000.00,12,0,1,1100.963,1.010,10.939,996.714,-0.760,0.846
1.032000,654403,1000.00,12,0,1,1089.169,-9.940,10.935,995.897,-1.068,0.850
1.033000,654404,1000.00,12,0,1,1079.753,-15.617,11.155,996.762,-0.634,0.851
1.034000,654405,1000.00,12,0,1,1077.207,-14.787,11.293,996.281,-0.339,0.843
1.035000,654406,1000.00,12,0,1,1087.968,-2.107,11.146,996.329,-0.808,0.815
1.036000,654407,1000.00,12,0,1,1072.979,-7.565,10.868,996.882,0.090,0.815
1.037000,654408,1000.00,12,0,1,1060.969,-20.629,11.034,996.450,-0.342,0.795
1.038000,654409,1000.00,12,0,1,1084.077,2.892,11.040,996.017,-0.785,0.802
1.039000,654410,1000.00,12,0,1,1101.276,22.488,11.359,996.401,-0.392,0.804
1.040000,654411,1000.00,12,0,1,1116.985,30.579,12.038,996.522,-0.180,0.804
1.041000,654412,1000.00,12,0,1,1084.005,5.190,12.053,1000.557,2.777,0.895
1.042000,654413,1000.00,12,0,1,1080.834,-13.505,12.184,998.515,2.032,0.922
1.043000,654414,1000.00,12,0,1,1086.695,0.946,12.115,997.843,-0.445,0.914
1.044000,654415,1000.00,12,0,1,1097.360,2.402,11.969,999.164,1.461,0.937
1.045000,654416,1000.00,12,0,1,1098.609,7.136,11.945,998.731,0.713,0.935
1.046000,654417,1000.00,12,0,1,1098.321,0.789,11.939,998.924,0.565,0.931
1.047000,654418,1000.00,12,0,1,1085.254,-8.800,12.004,997.002,-0.686,0.932
1.048000,654419,1000.00,12,0,1,1084.966,-12.794,12.047,996.017,-2.162,0.979
1.049000,654420,1000.00,12,0,1,1098.129,1.374,11.591,999.452,1.153,0.984
1.050000,654421,1000.00,12,0,1,1104.422,9.135,11.636,998.155,0.829,0.960
1.051000,654422,1000.00,12,0,1,1098.081,2.698,11.047,996.474,-1.542,0.980
1.052000,654423,1000.00,12,0,1,1101.276,4.760,11.066,997.723,-0.167,0.976
1.053000,654424,1000.00,12,0,1,1101.612,6.840,10.851,998.011,0.379,0.976
1.054000,654425,1000.00,12,0,1,1095.943,2.339,10.818,998.804,0.666,0.981
1.055000,654426,1000.00,12,0,1,1092.989,-0.516,10.709,996.978,-0.421,0.980
1.056000,654427,1000.00,12,0,1,1091.427,0.243,10.544,997.891,-0.687,0.981
1.057000,654428,1000.00,12,0,1,1081.002,-7.502,10.557,997.891,0.317,0.976
1.058000,654429,1000.00,12,0,1,1073.748,-13.248,10.317,997.002,-1.189,0.988
1.059000,654430,1000.00,12,0,1,1087.007,-1.477,9.917,996.498,-1.270,1.003
1.060000,654431,1000.00,12,0,1,1088.233,4.353,9.898,997.915,-0.315,1.004
1.061000,654432,1000.00,12,0,1,1082.996,-4.151,9.915,996.810,-0.572,1.007
1.062000,654433,1000.00,12,0,1,1074.709,-9.896,9.974,998.035,-0.327,1.007
1.063000,654434,1000.00,12,0,1,1079.873,-8.640,9.919,998.659,1.020,1.015
1.064000,654435,1000.00,12,0,1,1097.000,7.678,9.950,996.786,-0.887,0.987
1.065000,654436,1000.00,12,0,1,1097.697,8.366,9.948,998.275,-0.052,0.943
1.066000,654437,1000.00,12,0,1,1084.389,-6.577,9.992,1001.662,3.355,1.046
1.067000,654438,1000.00,12,0,1,1055.853,-29.723,10.774,1000.125,2.041,1.085
1.068000,654439,1000.00,12,0,1,1053.282,-34.149,11.158,999.068,0.167,1.071
1.069000,654440,1000.00,12,0,1,1065.413,-13.861,11.146,998.083,-0.381,1.073
1.070000,654441,1000.00,12,0,1,1073.460,-3.711,11.107,998.203,-0.625,1.076
1.071000,654442,1000.00,12,0,1,1071.274,-0.729,11.038,998.683,0.156,1.073
1.072000,654443,1000.00,12,0,1,1069.737,-1.294,11.035,1001.518,2.185,1.098
1.073000,654444,1000.00,12,0,1,1082.011,11.271,11.149,998.299,0.294,1.098
1.074000,654445,1000.00,12,0,1,1099.714,28.570,11.858,999.692,-0.441,1.093
1.075000,654446,1000.00,12,0,1,1110.668,36.612,12.939,999.020,0.664,1.097
1.076000,654447,1000.00,12,0,1,1108.650,32.025,13.709,998.491,-1.244,1.107
1.077000,654448,1000.00,12,0,1,1111.653,27.669,14.246,999.044,-0.084,1.084
1.078000,654449,1000.00,12,0,1,1118.475,30.591,14.879,998.756,-0.559,1.087
1.079000,654450,1000.00,12,0,1,1115.064,22.607,15.218,996.113,-2.648,1.146
1.080000,654451,1000.00,12,0,1,1107.329,10.374,15.282,997.194,-2.120,1.183
1.081000,654452,1000.00,12,0,1,1100.483,0.489,15.282,1000.077,0.988,1.187
1.082000,654453,1000.00,12,0,1,1096.736,-5.588,15.237,1000.077,1.245,1.190
1.083000,654454,1000.00,12,0,1,1095.391,-8.088,15.120,997.723,-1.246,1.200
1.084000,654455,1000.00,12,0,1,1096.087,-8.671,15.025,998.155,-1.088,1.208
1.085000,654456,1000.00,12,0,1,1103.245,-3.742,15.031,999.164,0.162,1.203
1.086000,654457,1000.00,12,0,1,1095.631,-8.756,15.044,1000.053,0.907,1.210
1.087000,654458,1000.00,12,0,1,1089.001,-17.863,14.973,998.828,0.021,1.209
1.088000,654459,1000.00,12,0,1,1085.254,-18.155,15.186,999.548,0.107,1.204
1.089000,654460,1000.00,12,0,1,1087.920,-15.526,15.011,998.948,0.238,1.203
1.090000,654461,1000.00,12,0,1,1093.373,-7.371,14.412,997.098,-1.655,1.226
1.091000,654462,1000.00,12,0,1,1091.067,-7.196,14.429,999.116,-0.058,1.161
1.092000,654463,1000.00,12,0,1,1091.139,-6.887,14.335,999.404,1.117,1.136
1.093000,654464,1000.00,12,0,1,1090.899,-3.992,14.346,999.548,0.467,1.136
1.094000,654465,1000.00,12,0,1,1087.152,-6.215,14.369,997.314,-0.717,1.122
1.095000,654466,1000.00,12,0,1,1096.616,2.385,14.337,999.476,-0.079,1.117
1.096000,654467,1000.00,12,0,1,1099.090,8.055,14.382,999.716,1.564,1.136
1.097000,654468,1000.00,12,0,1,1096.352,3.713,14.338,997.843,-1.070,1.142
1.098000,654469,1000.00,12,0,1,1092.076,0.708,14.223,999.188,0.051,1.100
1.099000,654470,1000.00,12,0,1,1099.931,5.165,14.241,1001.158,1.948,1.122
1.100000,654471,1000.00,12,0,1,1107.065,12.858,14.298,1000.893,1.458,1.135
1.101000,654472,1000.00,12,0,1,1093.397,0.087,14.293,999.332,-0.187,1.114
1.102000,654473,1000.00,12,0,1,1080.714,-14.391,14.422,998.900,-1.039,1.124
1.103000,654474,1000.00,12,0,1,1075.478,-16.860,14.585,999.356,-0.369,1.124
1.104000,654475,1000.00,12,0,1,1075.189,-15.986,14.756,1000.725,0.570,1.123
1.105000,654476,1000.00,12,0,1,1072.259,-14.759,14.903,1000.413,0.685,1.125
1.106000,654477,1000.00,12,0,1,1073.676,-12.866,15.013,999.692,-0.473,1.123
1.107000,654478,1000.00,12,0,1,1083.621,-1.639,14.977,998.515,-1.155,1.134
1.108000,654479,1000.00,12,0,1,1100.963,13.681,14.985,997.843,-1.861,1.152
1.109000,654480,1000.00,12,0,1,1114.799,25.532,15.413,997.603,-1.575,1.159
1.110000,654481,1000.00,12,0,1,1114.944,22.901,15.737,997.554,-1.357,1.174
1.111000,654482,1000.00,12,0,1,1098.489,5.628,15.746,998.900,-0.009,1.172
1.112000,654483,1000.00,12,0,1,1079.393,-13.365,15.798,1000.485,1.675,1.194
1.113000,654484,1000.00,12,0,1,1087.992,-7.229,15.783,1000.581,1.665,1.209
1.114000,654485,1000.00,12,0,1,1103.005,10.939,15.822,999.668,0.635,1.206
1.115000,654486,1000.00,12,0,1,1118.258,21.934,16.079,998.083,-0.896,1.212
1.116000,654487,1000.00,12,0,1,1119.531,23.612,16.396,1000.101,0.380,1.117
1.117000,654488,1000.00,12,0,1,1104.254,6.037,15.871,1000.197,1.213,1.092
1.118000,654489,1000.00,12,0,1,1092.028,-7.223,15.153,999.812,0.028,1.092
1.119000,654490,1000.00,12,0,1,1088.953,-9.574,15.087,997.050,-1.785,1.120
1.120000,654491,1000.00,12,0,1,1093.421,-4.978,15.094,998.515,-1.523,1.137
1.121000,654492,1000.00,12,0,1,1101.372,3.025,15.100,999.644,0.726,1.141
1.122000,654493,1000.00,12,0,1,1103.630,4.751,15.113,1000.173,0.499,1.101
1.123000,654494,1000.00,12,0,1,1107.209,5.464,15.049,998.996,-0.073,1.100
1.124000,654495,1000.00,12,0,1,1105.383,3.193,14.504,998.491,-1.016,1.108
1.125000,654496,1000.00,12,0,1,1101.564,-2.956,13.554,1000.557,0.857,1.110
1.126000,654497,1000.00,12,0,1,1106.416,-0.565,12.776,999.356,0.491,1.098
1.127000,654498,1000.00,12,0,1,1106.416,-0.005,12.162,997.675,-1.724,1.125
1.128000,654499,1000.00,12,0,1,1100.051,-7.403,11.414,997.482,-1.288,1.137
1.129000,654500,1000.00,12,0,1,1090.971,-14.718,11.153,998.035,-0.791,1.079
1.130000,654501,1000.00,12,0,1,1091.235,-14.762,11.252,999.884,1.147,1.050
1.131000,654502,1000.00,12,0,1,1093.325,-9.164,11.326,998.227,0.172,1.040
1.132000,654503,1000.00,12,0,1,1098.369,-4.223,11.314,999.284,0.180,1.026
1.133000,654504,1000.00,12,0,1,1112.734,9.315,11.333,999.836,1.546,1.034
1.134000,654505,1000.00,12,0,1,1095.295,-1.206,11.268,998.828,0.061,1.022
1.135000,654506,1000.00,12,0,1,1075.189,-23.246,11.725,1000.197,1.041,1.033
1.136000,654507,1000.00,12,0,1,1087.608,-9.511,11.737,998.852,0.347,1.026
1.137000,654508,1000.00,12,0,1,1110.428,14.351,11.640,999.740,0.033,1.026
1.138000,654509,1000.00,12,0,1,1106.200,13.382,11.510,1000.725,1.624,1.051
1.139000,654510,1000.00,12,0,1,1083.404,-9.226,11.374,1001.446,1.410,1.069
1.140000,654511,1000.00,12,0,1,1081.243,-13.161,11.478,1001.158,1.320,1.060
1.141000,654512,1000.00,12,0,1,1097.168,3.911,11.446,998.756,-1.171,1.073
1.142000,654513,1000.00,12,0,1,1080.714,-5.661,11.433,996.570,-3.175,1.152
1.143000,654514,1000.00,12,0,1,1071.490,-18.887,11.727,997.915,-1.921,1.182
1.144000,654515,1000.00,12,0,1,1071.538,-12.878,11.835,999.692,0.318,1.178
1.145000,654516,1000.00,12,0,1,1072.091,-11.618,11.944,998.996,-0.050,1.178
1.146000,654517,1000.00,12,0,1,1082.660,-0.542,11.890,999.788,0.190,1.158
1.147000,654518,1000.00,12,0,1,1097.456,13.623,12.033,999.957,0.901,1.155
1.148000,654519,1000.00,12,0,1,1115.232,26.675,12.610,997.939,-1.075,1.165
1.149000,654520,1000.00,12,0,1,1124.672,33.045,13.429,997.482,-1.539,1.153
1.150000,654521,1000.00,12,0,1,1116.193,20.517,13.618,1000.341,1.026,1.143
1.151000,654522,1000.00,12,0,1,1107.113,7.430,13.658,999.356,0.978,1.151
1.152000,654523,1000.00,12,0,1,1102.501,1.458,13.507,998.972,-0.365,1.143
1.153000,654524,1000.00,12,0,1,1093.325,-6.083,13.323,999.308,0.484,1.144
1.154000,654525,1000.00,12,0,1,1087.392,-11.551,13.231,998.996,-0.072,1.141
1.155000,654526,1000.00,12,0,1,1100.051,0.392,13.065,998.443,-0.467,1.139
1.156000,654527,1000.00,12,0,1,1089.482,-2.525,12.943,1000.101,0.667,1.141
1.157000,654528,1000.00,12,0,1,1085.830,-10.382,13.024,1000.125,1.112,1.140
1.158000,654529,1000.00,12,0,1,1082.876,-6.363,12.911,997.554,-1.392,1.126
1.159000,654530,1000.00,12,0,1,1078.000,-11.313,12.498,998.227,-1.290,1.119
1.160000,654531,1000.00,12,0,1,1075.237,-10.205,12.157,999.476,0.546,1.105
1.161000,654532,1000.00,12,0,1,1076.222,-8.066,12.185,999.452,0.268,1.106
1.162000,654533,1000.00,12,0,1,1075.454,-6.339,12.071,1001.446,1.780,1.109
1.163000,654534,1000.00,12,0,1,1069.737,-9.713,12.106,1001.037,1.723,1.111
1.164000,654535,1000.00,12,0,1,1075.670,-5.596,12.032,998.611,-0.933,1.115
1.165000,654536,1000.00,12,0,1,1095.343,13.030,11.771,999.404,-0.570,1.111
1.166000,654537,1000.00,12,0,1,1099.354,16.796,11.534,998.876,-0.283,1.110
1.167000,654538,1000.00,12,0,1,1107.473,17.719,11.773,1000.005,0.023,1.097
1.168000,654539,1000.00,12,0,1,1096.928,9.615,11.807,999.668,0.599,1.100
1.169000,654540,1000.00,12,0,1,1088.281,-4.972,11.750,1001.902,1.475,1.091
1.170000,654541,1000.00,12,0,1,1104.326,8.540,11.791,1001.398,2.011,1.107
1.171000,654542,1000.00,12,0,1,1108.410,14.419,11.958,1001.686,0.866,1.109
1.172000,654543,1000.00,12,0,1,1091.139,-3.030,11.947,999.692,-0.085,1.107
1.173000,654544,1000.00,12,0,1,1085.951,-9.443,11.997,998.972,-1.739,1.134
1.174000,654545,1000.00,12,0,1,1086.839,-5.305,12.011,998.371,-1.487,1.144
1.175000,654546,1000.00,12,0,1,1112.229,14.999,12.190,996.618,-2.961,1.212
1.176000,654547,1000.00,12,0,1,1113.815,22.805,12.609,999.548,-0.712,1.214
1.177000,654548,1000.00,12,0,1,1096.952,1.816,12.612,999.884,0.971,1.197
1.178000,654549,1000.00,12,0,1,1079.393,-12.516,12.692,998.443,-1.245,1.197
1.179000,654550,1000.00,12,0,1,1080.282,-13.086,12.657,997.723,-1.312,1.206
1.180000,654551,1000.00,12,0,1,1095.367,3.296,12.492,998.131,-1.211,1.207
1.181000,654552,1000.00,12,0,1,1106.224,13.727,12.575,999.764,0.617,1.210
1.182000,654553,1000.00,12,0,1,1108.578,13.084,12.697,998.852,0.101,1.210
1.183000,654554,1000.00,12,0,1,1105.407,7.756,12.676,998.611,-0.590,1.193
1.184000,654555,1000.00,12,0,1,1101.396,0.227,12.675,1000.053,0.930,1.200
1.185000,654556,1000.00,12,0,1,1103.822,0.158,12.241,1001.326,1.946,1.222
1.186000,654557,1000.00,12,0,1,1095.847,-7.002,12.207,1000.773,1.471,1.239
1.187000,654558,1000.00,12,0,1,1092.100,-13.309,12.183,1000.557,0.716,1.243
1.188000,654559,1000.00,12,0,1,1089.578,-13.399,12.184,999.812,0.253,1.222
1.189000,654560,1000.00,12,0,1,1085.590,-16.369,12.333,999.044,-0.688,1.210
1.190000,654561,1000.00,12,0,1,1084.149,-15.525,12.388,998.996,-0.566,1.198
1.191000,654562,1000.00,12,0,1,1090.851,-7.836,12.425,998.876,-0.493,1.188
1.192000,654563,1000.00,12,0,1,1100.579,3.123,12.407,999.572,0.079,1.100
1.193000,654564,1000.00,12,0,1,1109.227,11.424,12.223,997.098,-1.399,1.084
1.194000,654565,1000.00,12,0,1,1099.450,4.517,12.104,998.251,-1.294,1.099
1.195000,654566,1000.00,12,0,1,1093.037,-4.006,12.005,998.876,0.568,1.102
1.196000,654567,1000.00,12,0,1,1093.565,-0.954,12.006,999.356,0.236,1.102
1.197000,654568,1000.00,12,0,1,1095.631,1.587,11.852,999.212,0.633,1.098
1.198000,654569,1000.00,12,0,1,1093.349,1.286,11.237,996.978,-1.503,1.108
1.199000,654570,1000.00,12,0,1,1091.956,-0.215,10.219,998.251,-0.843,1.093
1.200000,654571,1000.00,12,0,1,1098.273,5.089,9.825,1001.206,2.315,1.132
1.201000,654572,1000.00,12,0,1,1105.936,11.988,9.915,998.131,-0.111,1.123
1.202000,654573,1000.00,12,0,1,1106.056,10.395,10.021,998.395,-1.102,1.133
1.203000,654574,1000.00,12,0,1,1101.252,3.787,9.999,998.996,0.453,1.133
1.204000,654575,1000.00,12,0,1,1095.679,-3.297,9.875,998.395,-0.515,1.135
1.205000,654576,1000.00,12,0,1,1093.493,-6.348,9.916,999.044,0.144,1.133
1.206000,654577,1000.00,12,0,1,1089.386,-9.582,10.002,998.395,-0.081,1.129
1.207000,654578,1000.00,12,0,1,1088.016,-11.150,10.018,998.491,-0.375,1.120
1.208000,654579,1000.00,12,0,1,1089.241,-8.686,10.053,999.164,0.668,1.106
1.209000,654580,1000.00,12,0,1,1084.774,-10.749,10.041,1000.869,1.775,1.120
1.210000,654581,1000.00,12,0,1,1095.799,-2.520,9.943,998.900,0.729,1.122
1.211000,654582,1000.00,12,0,1,1097.529,4.191,9.895,999.596,0.069,1.121
1.212000,654583,1000.00,12,0,1,1104.014,5.673,9.887,998.275,0.165,1.093
1.213000,654584,1000.00,12,0,1,1116.121,18.264,10.126,998.563,-0.738,1.070
1.214000,654585,1000.00,12,0,1,1087.080,-4.424,10.114,998.203,0.017,1.062
1.215000,654586,1000.00,12,0,1,1077.519,-20.231,10.348,998.251,-0.575,1.062
1.216000,654587,1000.00,12,0,1,1098.345,4.556,10.093,1000.365,1.462,1.081
1.217000,654588,1000.00,12,0,1,1100.915,9.952,9.877,1000.557,1.825,1.112
1.218000,654589,1000.00,12,0,1,1082.444,-6.128,9.822,999.380,0.163,1.109
1.219000,654590,1000.00,12,0,1,1071.658,-16.522,10.071,1000.365,0.769,1.094
1.220000,654591,1000.00,12,0,1,1071.778,-12.932,10.164,1002.166,2.115,1.098
1.221000,654592,1000.00,12,0,1,1082.588,-1.664,9.960,1000.101,0.518,1.094
1.222000,654593,1000.00,12,0,1,1083.548,2.869,9.960,998.611,-1.798,1.123
1.223000,654594,1000.00,12,0,1,1082.996,0.307,9.870,998.611,-1.301,1.111
1.224000,654595,1000.00,12,0,1,1086.527,3.752,9.855,999.044,-1.018,1.101
1.225000,654596,1000.00,12,0,1,1088.401,4.748,9.648,999.140,-0.547,1.021
1.226000,654597,1000.00,12,0,1,1086.911,2.301,9.099,999.068,-0.644,1.020
1.227000,654598,1000.00,12,0,1,1095.415,7.293,9.153,1000.917,0.877,1.018
1.228000,654599,1000.00,12,0,1,1098.129,10.292,9.098,998.659,-0.315,1.004
1.229000,654600,1000.00,12,0,1,1103.966,11.160,9.046,998.011,-1.893,1.022
1.230000,654601,1000.00,12,0,1,1126.449,27.731,9.849,998.756,-0.289,1.009
1.231000,654602,1000.00,12,0,1,1102.789,10.720,9.774,999.957,0.470,1.007
1.232000,654603,1000.00,12,0,1,1093.397,-10.203,9.705,997.723,-0.695,1.012
1.233000,654604,1000.00,12,0,1,1087.584,-6.654,9.689,997.603,-1.653,1.035
1.234000,654605,1000.00,12,0,1,1080.810,-15.714,9.940,998.107,-0.276,1.027
1.235000,654606,1000.00,12,0,1,1081.507,-9.848,10.037,998.563,-0.110,0.990
1.236000,654607,1000.00,12,0,1,1089.169,-1.718,9.991,999.356,0.757,0.974
1.237000,654608,1000.00,12,0,1,1107.137,15.091,10.042,999.524,0.900,0.977
1.238000,654609,1000.00,12,0,1,1091.043,6.223,9.900,998.707,-0.013,0.976
1.239000,654610,1000.00,12,0,1,1087.584,-5.863,9.662,998.251,-0.482,0.974
1.240000,654611,1000.00,12,0,1,1097.985,8.869,9.492,999.716,0.531,0.973
1.241000,654612,1000.00,12,0,1,1104.062,10.733,9.549,1000.437,1.522,0.994
1.242000,654613,1000.00,12,0,1,1100.435,7.886,9.603,998.852,-0.172,0.994
1.243000,654614,1000.00,12,0,1,1099.835,2.390,9.473,999.740,0.148,0.975
1.244000,654615,1000.00,12,0,1,1105.792,6.388,9.494,998.563,-0.209,0.958
1.245000,654616,1000.00,12,0,1,1104.951,4.201,9.496,998.155,-1.228,0.970
1.246000,654617,1000.00,12,0,1,1095.487,-6.626,9.541,999.116,0.151,0.970
1.247000,654618,1000.00,12,0,1,1088.449,-13.947,9.740,998.491,-0.227,0.966
1.248000,654619,1000.00,12,0,1,1088.040,-14.190,9.943,999.692,0.482,0.945
1.249000,654620,1000.00,12,0,1,1089.530,-10.615,10.056,1001.086,2.120,0.984
1.250000,654621,1000.00,12,0,1,1086.839,-11.376,10.158,999.620,0.680,0.933
1.251000,654622,1000.00,12,0,1,1080.666,-14.435,10.221,998.539,-0.635,0.937
1.252000,654623,1000.00,12,0,1,1086.431,-8.693,10.190,997.530,-1.255,0.941
1.253000,654624,1000.00,12,0,1,1083.404,-5.364,10.204,996.450,-2.093,0.985
1.254000,654625,1000.00,12,0,1,1080.065,-8.832,10.269,997.242,-1.243,0.997
1.255000,654626,1000.00,12,0,1,1094.910,6.233,10.268,998.804,0.525,1.000
1.256000,654627,1000.00,12,0,1,1095.799,11.295,10.303,999.740,1.349,1.018
1.257000,654628,1000.00,12,0,1,1079.369,-4.338,10.200,999.356,0.951,1.025
1.258000,654629,1000.00,12,0,1,1066.590,-14.812,10.340,999.620,0.703,1.026
1.259000,654630,1000.00,12,0,1,1064.452,-14.401,10.428,997.530,-0.755,1.001
1.260000,654631,1000.00,12,0,1,1077.904,-0.323,10.422,998.059,-1.142,1.008
1.261000,654632,1000.00,12,0,1,1084.870,9.506,10.492,999.020,0.507,1.011
1.262000,654633,1000.00,12,0,1,1086.431,8.771,10.535,1000.917,1.541,1.034
1.263000,654634,1000.00,12,0,1,1088.353,9.608,10.303,998.756,0.387,1.030
1.264000,654635,1000.00,12,0,1,1097.024,14.031,10.474,997.699,-1.642,1.056
1.265000,654636,1000.00,12,0,1,1095.775,12.735,10.235,997.386,-1.099,1.064
1.266000,654637,1000.00,12,0,1,1093.205,5.605,10.246,998.371,-0.478,1.046
1.267000,654638,1000.00,12,0,1,1094.238,5.307,10.176,1000.677,1.849,1.047
1.268000,654639,1000.00,12,0,1,1092.532,2.482,10.145,1000.173,1.702,1.074
1.269000,654640,1000.00,12,0,1,1082.852,-6.220,9.912,999.452,0.331,1.069
1.270000,654641,1000.00,12,0,1,1083.044,-7.475,9.799,997.747,-0.653,1.031
1.271000,654642,1000.00,12,0,1,1095.847,5.202,9.823,998.683,-0.584,1.031
1.272000,654643,1000.00,12,0,1,1107.641,16.406,10.085,1000.077,1.467,1.021
1.273000,654644,1000.00,12,0,1,1104.687,13.308,10.259,999.981,0.956,1.013
1.274000,654645,1000.00,12,0,1,1087.272,-3.107,10.255,997.603,-0.890,1.011
1.275000,654646,1000.00,12,0,1,1079.081,-12.177,10.377,998.251,-1.067,1.019
1.276000,654647,1000.00,12,0,1,1080.138,-7.834,10.431,997.362,-0.813,1.022
1.277000,654648,1000.00,12,0,1,1082.371,-4.170,10.397,1000.629,0.890,1.022
1.278000,654649,1000.00,12,0,1,1085.206,0.086,10.294,998.804,0.904,1.029
1.279000,654650,1000.00,12,0,1,1087.488,2.547,10.179,997.603,-1.869,1.028
1.280000,654651,1000.00,12,0,1,1094.046,7.374,9.451,998.011,-0.576,1.030
1.281000,654652,1000.00,12,0,1,1093.109,6.932,9.380,998.155,-0.674,1.033
1.282000,654653,1000.00,12,0,1,1098.706,7.370,9.326,999.572,0.538,1.031
1.283000,654654,1000.00,12,0,1,1088.088,0.320,9.279,999.068,0.577,1.007
1.284000,654655,1000.00,12,0,1,1078.048,-13.882,9.220,997.987,-0.981,1.016
1.285000,654656,1000.00,12,0,1,1086.431,-5.725,9.150,998.371,-0.296,1.017
1.286000,654657,1000.00,12,0,1,1088.713,-1.649,9.150,999.860,0.808,1.017
1.287000,654658,1000.00,12,0,1,1090.034,-2.643,8.906,999.716,1.168,1.023
1.288000,654659,1000.00,12,0,1,1089.265,-1.804,8.866,999.692,0.516,1.025
1.289000,654660,1000.00,12,0,1,1089.265,-3.387,8.840,999.620,0.760,1.029
1.290000,654661,1000.00,12,0,1,1086.839,-3.480,8.764,999.644,0.427,1.028
1.291000,654662,1000.00,12,0,1,1087.632,-3.590,8.647,998.804,-0.057,1.005
1.292000,654663,1000.00,12,0,1,1101.444,9.075,8.670,997.482,-1.349,1.023
1.293000,654664,1000.00,12,0,1,1094.862,6.946,8.719,995.609,-2.629,1.088
1.294000,654665,1000.00,12,0,1,1056.862,-26.036,9.421,996.738,-1.720,1.114
1.295000,654666,1000.00,12,0,1,1058.495,-27.673,10.185,997.795,0.066,1.101
1.296000,654667,1000.00,12,0,1,1077.615,-0.276,10.141,999.212,1.018,1.110
1.297000,654668,1000.00,12,0,1,1079.105,3.415,9.959,999.260,1.371,1.126
1.298000,654669,1000.00,12,0,1,1076.318,1.425,9.757,998.395,0.168,1.125
1.299000,654670,1000.00,12,0,1,1093.373,14.424,9.855,999.404,0.722,1.089
1.300000,654671,1000.00,12,0,1,1087.488,13.490,9.908,998.275,0.164,1.085
1.301000,654672,1000.00,12,0,1,1070.697,-6.845,9.743,999.260,0.049,1.081
1.302000,654673,1000.00,12,0,1,1078.000,-1.975,9.670,998.852,0.569,1.069
1.303000,654674,1000.00,12,0,1,1087.368,8.656,9.717,999.716,0.276,1.028
1.304000,654675,1000.00,12,0,1,1087.824,6.688,9.683,999.164,0.609,1.017
1.305000,654676,1000.00,12,0,1,1094.814,10.261,9.751,1000.173,0.493,1.016
1.306000,654677,1000.00,12,0,1,1099.642,12.972,9.793,998.395,-0.101,0.999
1.307000,654678,1000.00,12,0,1,1108.026,16.178,10.038,996.450,-2.552,1.053
1.308000,654679,1000.00,12,0,1,1097.144,6.910,9.865,998.876,-0.189,1.049
1.309000,654680,1000.00,12,0,1,1084.557,-9.360,9.743,999.596,1.291,1.059
1.310000,654681,1000.00,12,0,1,1084.509,-8.397,9.815,997.843,-0.618,1.051
1.311000,654682,1000.00,12,0,1,1088.233,-3.539,9.736,997.386,-0.916,1.056
1.312000,654683,1000.00,12,0,1,1079.393,-8.313,9.727,996.353,-1.489,1.055
1.313000,654684,1000.00,12,0,1,1062.338,-21.575,10.104,998.683,0.291,1.054
1.314000,654685,1000.00,12,0,1,1060.128,-21.556,10.365,998.900,1.379,1.046
1.315000,654686,1000.00,12,0,1,1084.798,3.690,10.221,998.323,0.142,1.035
1.316000,654687,1000.00,12,0,1,1090.683,15.053,10.410,997.386,-0.374,1.034
1.317000,654688,1000.00,12,0,1,1087.752,8.432,10.451,999.620,0.898,1.008
1.318000,654689,1000.00,12,0,1,1088.473,8.983,10.523,999.020,1.196,0.994
1.319000,654690,1000.00,12,0,1,1088.184,7.089,10.534,999.620,0.503,0.995
1.320000,654691,1000.00,12,0,1,1092.796,8.709,10.552,998.131,-0.028,0.991
1.321000,654692,1000.00,12,0,1,1098.225,12.241,10.668,997.170,-1.740,1.018
1.322000,654693,1000.00,12,0,1,1093.781,5.963,10.447,996.810,-1.466,1.018
1.323000,654694,1000.00,12,0,1,1087.968,-2.182,10.281,997.194,-1.150,1.022
1.324000,654695,1000.00,12,0,1,1088.809,-3.382,10.282,996.522,-1.229,1.029
1.325000,654696,1000.00,12,0,1,1091.932,-0.823,10.138,996.401,-1.286,1.034
1.326000,654697,1000.00,12,0,1,1092.748,-0.995,10.078,998.395,0.575,1.031
1.327000,654698,1000.00,12,0,1,1094.334,-0.447,10.061,997.554,0.643,1.027
1.328000,654699,1000.00,12,0,1,1095.102,-0.041,10.061,999.164,1.007,1.029
1.329000,654700,1000.00,12,0,1,1095.919,0.181,10.055,997.915,1.192,1.008
1.330000,654701,1000.00,12,0,1,1090.250,-3.776,10.015,998.107,-0.034,1.005
1.331000,654702,1000.00,12,0,1,1087.416,-6.933,10.015,998.131,1.034,1.011
1.332000,654703,1000.00,12,0,1,1078.600,-11.062,10.082,999.860,1.555,1.032
1.333000,654704,1000.00,12,0,1,1076.222,-13.193,10.253,998.683,1.383,1.047
1.334000,654705,1000.00,12,0,1,1077.399,-7.515,10.120,998.804,0.257,1.039
1.335000,654706,1000.00,12,0,1,1071.418,-10.027,10.186,997.723,0.043,1.038
1.336000,654707,1000.00,12,0,1,1066.494,-12.503,10.336,998.299,-0.293,1.032
1.337000,654708,1000.00,12,0,1,1064.092,-11.202,10.450,998.467,0.413,1.021
1.338000,654709,1000.00,12,0,1,1065.941,-7.781,10.505,996.281,-1.580,1.042
1.339000,654710,1000.00,12,0,1,1073.220,0.794,10.494,997.554,-1.059,1.048
1.340000,654711,1000.00,12,0,1,1078.360,6.147,10.519,997.458,-0.004,1.046
1.341000,654712,1000.00,12,0,1,1084.245,9.990,10.601,999.764,0.814,1.052
1.342000,654713,1000.00,12,0,1,1090.731,14.037,10.709,1000.053,2.216,1.081
1.343000,654714,1000.00,12,0,1,1097.120,16.664,10.921,999.524,0.463,1.017
1.344000,654715,1000.00,12,0,1,1100.867,16.831,10.553,998.443,-0.003,0.988
1.345000,654716,1000.00,12,0,1,1097.168,10.519,9.913,998.323,-0.746,0.993
1.346000,654717,1000.00,12,0,1,1077.447,-8.079,9.979,998.635,-0.063,0.983
1.347000,654718,1000.00,12,0,1,1072.187,-16.231,10.228,1000.413,1.175,0.978
1.348000,654719,1000.00,12,0,1,1089.241,1.284,10.228,997.915,-0.308,0.979
1.349000,654720,1000.00,12,0,1,1095.535,10.042,10.122,998.323,-1.083,0.985
1.350000,654721,1000.00,12,0,1,1089.506,3.369,9.952,998.251,-0.017,0.985
1.351000,654722,1000.00,12,0,1,1093.325,5.310,9.934,995.561,-2.543,1.048
1.352000,654723,1000.00,12,0,1,1089.770,4.709,9.952,995.753,-2.434,1.101
1.353000,654724,1000.00,12,0,1,1087.488,0.508,9.877,997.314,-0.233,1.100
1.354000,654725,1000.00,12,0,1,1089.602,3.937,9.847,997.747,0.197,1.097
1.355000,654726,1000.00,12,0,1,1090.010,4.205,9.758,996.450,-0.569,1.098
1.356000,654727,1000.00,12,0,1,1091.115,4.613,9.606,996.930,-0.669,1.102
1.357000,654728,1000.00,12,0,1,1085.999,0.600,9.330,997.843,0.733,1.046
1.358000,654729,1000.00,12,0,1,1089.410,0.502,9.279,996.305,-0.675,1.050
1.359000,654730,1000.00,12,0,1,1091.812,4.219,9.203,997.579,-0.036,1.034
1.360000,654731,1000.00,12,0,1,1083.933,-4.591,9.149,996.642,0.006,1.031
1.361000,654732,1000.00,12,0,1,1093.493,0.219,9.136,997.314,-0.355,1.024
1.362000,654733,1000.00,12,0,1,1102.765,9.926,9.168,996.666,0.070,1.002
1.363000,654734,1000.00,12,0,1,1101.204,5.026,8.674,998.107,0.360,1.002
1.364000,654735,1000.00,12,0,1,1090.875,-5.420,8.157,998.852,1.858,1.018
1.365000,654736,1000.00,12,0,1,1083.981,-13.972,8.377,999.044,1.307,1.034
1.366000,654737,1000.00,12,0,1,1086.983,-10.523,8.237,998.035,0.656,1.037
1.367000,654738,1000.00,12,0,1,1090.154,-5.837,8.192,997.170,-0.465,1.031
1.368000,654739,1000.00,12,0,1,1054.459,-31.042,9.207,995.321,-1.696,1.045
1.369000,654740,1000.00,12,0,1,1034.066,-51.351,11.684,995.753,-1.451,1.063
1.370000,654741,1000.00,12,0,1,1050.304,-27.181,12.238,999.140,1.836,1.094
1.371000,654742,1000.00,12,0,1,1087.392,10.973,12.214,995.729,-0.019,1.066
1.372000,654743,1000.00,12,0,1,1100.651,29.201,12.865,996.546,-1.109,1.057
1.373000,654744,1000.00,12,0,1,1102.813,25.679,13.365,998.563,2.268,1.093
1.374000,654745,1000.00,12,0,1,1097.288,19.995,13.652,997.987,0.971,1.088
1.375000,654746,1000.00,12,0,1,1074.925,-1.490,13.653,996.834,0.087,1.073
1.376000,654747,1000.00,12,0,1,1066.998,-12.072,13.759,997.939,0.476,1.072
1.377000,654748,1000.00,12,0,1,1068.127,-6.484,13.789,996.882,0.131,1.068
1.378000,654749,1000.00,12,0,1,1076.510,-0.121,13.789,997.026,-0.538,1.061
1.379000,654750,1000.00,12,0,1,1087.176,11.635,13.887,998.443,0.992,1.057
1.380000,654751,1000.00,12,0,1,1095.991,16.571,14.073,998.467,0.939,1.065
1.381000,654752,1000.00,12,0,1,1077.880,2.171,14.042,996.474,-0.989,1.064
1.382000,654753,1000.00,12,0,1,1084.990,-1.043,13.956,998.227,-0.020,1.041
1.383000,654754,1000.00,12,0,1,1092.484,11.527,13.926,997.266,0.055,1.023
1.384000,654755,1000.00,12,0,1,1088.016,2.620,13.891,994.720,-2.706,1.092
1.385000,654756,1000.00,12,0,1,1091.331,4.070,13.830,996.426,-1.201,1.105
1.386000,654757,1000.00,12,0,1,1102.765,12.631,13.832,997.651,0.782,1.109
1.387000,654758,1000.00,12,0,1,1097.120,7.936,13.787,998.275,0.910,1.115
1.388000,654759,1000.00,12,0,1,1090.995,-1.326,13.744,997.675,0.818,1.099
1.389000,654760,1000.00,12,0,1,1083.885,-6.417,13.774,997.554,0.142,1.089
1.390000,654761,1000.00,12,0,1,1083.669,-7.158,13.784,998.275,1.054,1.099
1.391000,654762,1000.00,12,0,1,1087.031,-1.985,13.714,997.050,0.027,1.093
1.392000,654763,1000.00,12,0,1,1083.500,-3.023,13.576,997.651,0.076,1.047
1.393000,654764,1000.00,12,0,1,1086.167,-1.831,13.373,997.963,0.841,1.052
1.394000,654765,1000.00,12,0,1,1085.254,0.837,13.160,998.419,0.721,1.057
1.395000,654766,1000.00,12,0,1,1081.795,-3.694,13.086,998.635,1.071,1.062
1.396000,654767,1000.00,12,0,1,1079.753,-3.763,13.047,997.530,-0.167,1.062
1.397000,654768,1000.00,12,0,1,1080.090,-3.866,12.855,998.203,0.014,1.049
1.398000,654769,1000.00,12,0,1,1075.742,-5.777,12.879,997.963,0.172,1.049
1.399000,654770,1000.00,12,0,1,1077.495,-5.746,12.827,998.876,0.288,1.038
1.400000,654771,1000.00,12,0,1,1086.791,3.383,12.827,996.450,-1.041,1.049
1.401000,654772,1000.00,12,0,1,1094.118,9.178,12.870,995.873,-2.578,1.050
1.402000,654773,1000.00,12,0,1,1094.214,7.611,12.898,997.651,-0.200,0.993
1.403000,654774,1000.00,12,0,1,1091.884,3.044,12.905,996.450,-0.936,1.001
1.404000,654775,1000.00,12,0,1,1097.384,5.085,12.913,996.690,-1.156,1.014
1.405000,654776,1000.00,12,0,1,1106.632,12.273,13.015,998.395,0.870,1.018
1.406000,654777,1000.00,12,0,1,1103.918,8.612,13.056,999.212,1.456,1.034
1.407000,654778,1000.00,12,0,1,1098.778,0.900,13.056,998.155,0.646,1.033
1.408000,654779,1000.00,12,0,1,1093.613,-3.715,13.067,996.209,-1.346,1.046
1.409000,654780,1000.00,12,0,1,1088.521,-8.152,13.104,996.377,-1.203,1.060
1.410000,654781,1000.00,12,0,1,1088.617,-7.046,13.126,996.041,-0.906,1.068
1.411000,654782,1000.00,12,0,1,1093.877,-0.763,13.126,997.386,0.004,1.067
1.412000,654783,1000.00,12,0,1,1083.428,-6.414,13.082,997.314,0.679,1.071
1.413000,654784,1000.00,12,0,1,1073.340,-16.107,13.260,997.843,0.504,1.072
1.414000,654785,1000.00,12,0,1,1076.030,-10.694,13.324,998.900,1.721,1.067
1.415000,654786,1000.00,12,0,1,1077.880,-5.536,13.200,997.098,0.109,1.051
1.416000,654787,1000.00,12,0,1,1068.223,-11.458,13.216,996.353,-1.113,1.059
1.417000,654788,1000.00,12,0,1,1086.143,1.311,13.191,998.707,1.052,1.067
1.418000,654789,1000.00,12,0,1,1090.034,11.681,12.548,997.651,0.592,1.044
1.419000,654790,1000.00,12,0,1,1070.866,-9.051,10.313,997.410,-0.473,1.025
1.420000,654791,1000.00,12,0,1,1078.432,-5.771,9.605,996.498,-0.657,0.996
1.421000,654792,1000.00,12,0,1,1085.758,5.267,9.508,995.753,-1.705,1.025
1.422000,654793,1000.00,12,0,1,1092.172,6.459,8.613,997.338,-0.107,1.013
1.423000,654794,1000.00,12,0,1,1097.456,11.878,7.988,997.554,0.536,0.964
1.424000,654795,1000.00,12,0,1,1104.374,13.231,7.702,999.308,1.413,0.975
1.425000,654796,1000.00,12,0,1,1104.182,12.757,7.907,997.194,0.463,0.977
1.426000,654797,1000.00,12,0,1,1100.891,5.630,7.762,997.362,-0.791,0.981
1.427000,654798,1000.00,12,0,1,1108.338,9.919,7.834,998.107,0.927,0.990
1.428000,654799,1000.00,12,0,1,1098.081,3.134,7.847,997.939,0.218,0.987
1.429000,654800,1000.00,12,0,1,1087.752,-10.075,7.803,997.506,0.096,0.977
1.430000,654801,1000.00,12,0,1,1090.875,-4.691,7.473,997.074,-0.414,0.970
1.431000,654802,1000.00,12,0,1,1080.714,-9.851,7.595,998.011,0.315,0.961
1.432000,654803,1000.00,12,0,1,1084.173,-8.336,7.685,996.882,-0.130,0.961
1.433000,654804,1000.00,12,0,1,1083.164,-2.502,7.518,996.954,-0.759,0.967
1.434000,654805,1000.00,12,0,1,1071.226,-13.032,7.732,998.972,1.444,0.911
1.435000,654806,1000.00,12,0,1,1071.658,-11.204,7.871,998.323,0.912,0.904
1.436000,654807,1000.00,12,0,1,1078.672,-1.917,7.671,997.314,-0.409,0.899
1.437000,654808,1000.00,12,0,1,1081.627,1.742,7.592,996.930,-0.699,0.896
1.438000,654809,1000.00,12,0,1,1086.743,5.347,7.628,997.579,-0.250,0.889
1.439000,654810,1000.00,12,0,1,1089.554,7.136,7.640,998.395,0.615,0.893
1.440000,654811,1000.00,12,0,1,1088.160,3.886,7.593,1000.293,1.894,0.920
1.441000,654812,1000.00,12,0,1,1095.247,6.598,7.645,1000.173,1.941,0.960
1.442000,654813,1000.00,12,0,1,1094.862,6.569,7.689,999.044,0.239,0.961
1.443000,654814,1000.00,12,0,1,1094.862,1.868,7.689,999.044,0.034,0.953
1.444000,654815,1000.00,12,0,1,1093.661,1.116,7.690,997.362,-1.202,0.963
1.445000,654816,1000.00,12,0,1,1124.360,21.022,8.228,998.731,-0.678,0.956
1.446000,654817,1000.00,12,0,1,1097.865,8.116,8.291,999.476,0.876,0.964
1.447000,654818,1000.00,12,0,1,1066.518,-32.837,9.487,997.530,-1.168,0.978
1.448000,654819,1000.00,12,0,1,1078.648,-16.225,9.726,998.347,-0.705,0.982
1.449000,654820,1000.00,12,0,1,1088.689,-1.322,9.694,998.515,0.095,0.982
1.450000,654821,1000.00,12,0,1,1092.508,2.781,9.690,996.281,-1.924,1.008
1.451000,654822,1000.00,12,0,1,1094.886,7.573,9.662,996.618,-1.752,0.972
1.452000,654823,1000.00,12,0,1,1102.285,11.850,9.748,1000.221,1.657,0.999
1.453000,654824,1000.00,12,0,1,1079.321,-2.310,9.743,998.491,0.944,0.999
1.454000,654825,1000.00,12,0,1,1073.051,-15.830,9.971,998.611,-0.351,0.987
1.455000,654826,1000.00,12,0,1,1077.447,-3.543,9.832,998.251,0.319,0.981
1.456000,654827,1000.00,12,0,1,1060.393,-17.452,10.064,997.675,-0.958,0.968
1.457000,654828,1000.00,12,0,1,1074.060,-8.339,10.132,998.251,-0.129,0.964
1.458000,654829,1000.00,12,0,1,1087.488,10.610,10.229,998.635,0.161,0.945
1.459000,654830,1000.00,12,0,1,1083.284,3.333,10.174,1001.326,2.043,0.974
1.460000,654831,1000.00,12,0,1,1080.738,-0.188,10.126,1000.149,1.660,0.993
1.461000,654832,1000.00,12,0,1,1079.729,-2.605,10.132,999.260,-0.487,0.996
1.462000,654833,1000.00,12,0,1,1071.394,-9.286,10.176,998.323,-0.619,0.995
1.463000,654834,1000.00,12,0,1,1066.710,-14.494,10.127,997.434,-1.899,1.028
1.464000,654835,1000.00,12,0,1,1083.380,0.165,10.014,996.666,-1.961,1.037
1.465000,654836,1000.00,12,0,1,1081.603,4.096,10.000,996.281,-2.193,1.082
1.466000,654837,1000.00,12,0,1,1079.321,-2.496,9.874,998.275,-0.216,1.071
1.467000,654838,1000.00,12,0,1,1103.894,19.318,10.244,999.476,1.429,1.080
1.468000,654839,1000.00,12,0,1,1093.565,15.564,10.346,998.924,0.709,1.081
1.469000,654840,1000.00,12,0,1,1079.513,-4.341,10.285,998.323,0.146,1.079
1.470000,654841,1000.00,12,0,1,1077.808,-1.815,10.256,997.987,-0.239,1.076
1.471000,654842,1000.00,12,0,1,1088.281,6.395,10.269,997.891,-0.212,1.049
1.472000,654843,1000.00,12,0,1,1092.220,13.938,10.416,996.882,-0.930,1.057
1.473000,654844,1000.00,12,0,1,1093.109,11.959,10.418,998.275,-0.015,1.054
1.474000,654845,1000.00,12,0,1,1080.834,2.951,10.257,996.906,-0.337,1.036
1.475000,654846,1000.00,12,0,1,1075.478,-5.300,10.125,998.611,0.049,1.034
1.476000,654847,1000.00,12,0,1,1077.591,-1.383,10.096,1000.509,2.618,1.093
1.477000,654848,1000.00,12,0,1,1083.140,2.888,10.006,998.035,0.080,1.085
1.478000,654849,1000.00,12,0,1,1092.100,9.547,10.087,997.771,-0.886,1.092
1.479000,654850,1000.00,12,0,1,1101.924,16.098,10.242,997.482,-0.464,1.093
1.480000,654851,1000.00,12,0,1,1107.521,16.896,10.496,997.723,-0.746,1.097
1.481000,654852,1000.00,12,0,1,1102.909,9.533,10.490,999.188,0.928,1.104
1.482000,654853,1000.00,12,0,1,1091.764,-4.977,10.448,998.611,0.470,1.106
1.483000,654854,1000.00,12,0,1,1084.125,-13.464,10.614,998.924,0.332,1.102
1.484000,654855,1000.00,12,0,1,1086.719,-12.147,10.593,999.404,0.974,1.091
1.485000,654856,1000.00,12,0,1,1092.292,-5.349,10.501,998.972,0.416,1.085
1.486000,654857,1000.00,12,0,1,1091.836,-4.996,10.521,998.155,-0.310,1.084
1.487000,654858,1000.00,12,0,1,1092.917,-4.063,10.534,998.035,-0.501,1.082
1.488000,654859,1000.00,12,0,1,1089.073,-5.133,10.532,998.852,0.319,1.083
1.489000,654860,1000.00,12,0,1,1086.287,-7.412,10.536,997.915,-0.182,1.079
1.490000,654861,1000.00,12,0,1,1084.005,-6.337,10.559,998.683,-0.024,1.046
1.491000,654862,1000.00,12,0,1,1086.431,-3.200,10.528,999.044,0.856,1.016
1.492000,654863,1000.00,12,0,1,1084.966,-0.995,10.488,999.212,0.508,1.018
1.493000,654864,1000.00,12,0,1,1081.963,-3.262,10.494,999.452,0.821,1.025
1.494000,654865,1000.00,12,0,1,1079.297,-3.677,10.506,997.651,-0.773,1.017
1.495000,654866,1000.00,12,0,1,1082.155,-0.938,10.078,997.098,-1.657,1.039
1.496000,654867,1000.00,12,0,1,1086.047,3.695,10.026,999.620,0.689,1.036
1.497000,654868,1000.00,12,0,1,1078.024,-2.520,8.892,998.804,0.512,1.025
1.498000,654869,1000.00,12,0,1,1074.997,-7.781,8.661,1000.557,0.920,1.029
1.499000,654870,1000.00,12,0,1,1074.829,-5.877,8.699,999.284,0.820,1.035
1.500000,654871,1000.00,12,0,1,1067.623,-12.011,8.855,997.723,-1.712,1.028
1.501000,654872,1000.00,12,0,1,1079.081,-3.947,8.807,998.323,-0.732,1.003
1.502000,654873,1000.00,12,0,1,1095.078,12.587,8.828,998.395,-0.515,0.978
1.503000,654874,1000.00,12,0,1,1100.051,14.688,9.063,999.044,-0.068,0.969
1.504000,654875,1000.00,12,0,1,1094.118,7.413,8.845,999.812,0.875,0.975
1.505000,654876,1000.00,12,0,1,1091.691,1.710,8.834,999.788,0.644,0.978
1.506000,654877,1000.00,12,0,1,1093.229,3.061,8.493,999.524,0.429,0.971
1.507000,654878,1000.00,12,0,1,1096.207,5.008,8.441,997.675,-1.149,0.984
1.508000,654879,1000.00,12,0,1,1114.031,18.436,8.706,998.275,-0.937,0.993
1.509000,654880,1000.00,12,0,1,1085.350,0.244,8.693,996.642,-1.403,0.970
1.510000,654881,1000.00,12,0,1,1048.839,-38.693,10.272,996.570,-2.049,0.985
1.511000,654882,1000.00,12,0,1,1055.084,-27.794,10.992,997.891,-0.056,0.983
1.512000,654883,1000.00,12,0,1,1067.623,-7.832,10.969,997.362,-0.342,0.980
1.513000,654884,1000.00,12,0,1,1076.991,3.089,10.785,998.780,0.534,0.945
1.514000,654885,1000.00,12,0,1,1083.092,11.316,10.903,998.467,0.936,0.914
1.515000,654886,1000.00,12,0,1,1072.067,2.293,10.893,996.353,-1.434,0.883
1.516000,654887,1000.00,12,0,1,1064.020,-6.729,10.928,997.603,-0.458,0.885
1.517000,654888,1000.00,12,0,1,1081.747,7.515,10.635,997.891,0.384,0.863
1.518000,654889,1000.00,12,0,1,1082.347,12.235,10.547,997.915,0.003,0.857
1.519000,654890,1000.00,12,0,1,1073.988,-1.074,10.530,997.266,-0.232,0.858
1.520000,654891,1000.00,12,0,1,1075.718,-0.289,10.527,998.299,0.208,0.857
1.521000,654892,1000.00,12,0,1,1077.615,0.483,10.489,998.107,0.632,0.862
1.522000,654893,1000.00,12,0,1,1081.867,2.424,10.307,997.747,-0.167,0.852
1.523000,654894,1000.00,12,0,1,1078.912,0.373,10.168,998.683,0.776,0.859
1.524000,654895,1000.00,12,0,1,1071.874,-7.652,10.217,999.524,1.532,0.884
1.525000,654896,1000.00,12,0,1,1072.043,-6.940,10.236,999.764,1.551,0.911
1.526000,654897,1000.00,12,0,1,1082.564,2.853,10.243,999.404,1.130,0.848
1.527000,654898,1000.00,12,0,1,1092.124,13.127,10.401,999.476,0.828,0.856
1.528000,654899,1000.00,12,0,1,1090.899,11.847,10.449,997.723,-0.378,0.848
1.529000,654900,1000.00,12,0,1,1081.675,3.188,10.208,996.858,-1.624,0.876
1.530000,654901,1000.00,12,0,1,1078.384,-0.451,9.924,996.017,-1.652,0.901
1.531000,654902,1000.00,12,0,1,1079.465,2.434,9.838,997.266,-0.834,0.899
1.532000,654903,1000.00,12,0,1,1077.039,1.748,9.816,998.323,0.834,0.904
1.533000,654904,1000.00,12,0,1,1078.528,2.915,9.638,999.236,1.231,0.920
1.534000,654905,1000.00,12,0,1,1055.709,-12.093,9.637,1000.053,1.941,0.950
1.535000,654906,1000.00,12,0,1,1059.696,-14.584,9.826,999.332,1.061,0.960
1.536000,654907,1000.00,12,0,1,1064.332,-0.838,9.801,999.524,0.597,0.962
1.537000,654908,1000.00,12,0,1,1060.777,-6.936,9.834,998.780,0.170,0.960
1.538000,654909,1000.00,12,0,1,1072.259,3.442,9.819,998.731,-0.531,0.962
1.539000,654910,1000.00,12,0,1,1079.105,10.458,9.874,998.563,-0.301,0.963
1.540000,654911,1000.00,12,0,1,1087.752,13.016,10.004,1000.893,1.035,0.974
1.541000,654912,1000.00,12,0,1,1087.392,12.623,10.152,999.572,0.760,0.972
1.542000,654913,1000.00,12,0,1,1085.350,4.311,10.169,998.852,-1.091,0.982
1.543000,654914,1000.00,12,0,1,1077.351,-2.187,10.164,999.236,-0.133,0.975
1.544000,654915,1000.00,12,0,1,1079.969,-4.760,10.173,1000.557,0.633,0.973
1.545000,654916,1000.00,12,0,1,1085.566,2.935,10.180,998.059,-0.831,0.952
1.546000,654917,1000.00,12,0,1,1072.955,-7.563,10.223,999.428,-0.763,0.953
1.547000,654918,1000.00,12,0,1,1075.381,-8.015,10.279,1000.149,1.086,0.962
1.548000,654919,1000.00,12,0,1,1084.125,4.621,10.241,1001.086,1.059,0.965
1.549000,654920,1000.00,12,0,1,1069.136,-6.061,10.243,1001.734,1.916,0.996
1.550000,654921,1000.00,12,0,1,1072.835,-5.454,10.131,998.900,-0.634,0.970
1.551000,654922,1000.00,12,0,1,1053.763,-11.914,10.255,998.683,-1.682,0.993
1.552000,654923,1000.00,12,0,1,1055.132,-16.519,10.366,998.275,-1.008,1.001
1.553000,654924,1000.00,12,0,1,1069.953,6.308,10.195,999.668,-0.593,1.004
1.554000,654925,1000.00,12,0,1,1068.872,5.741,10.173,998.275,-0.573,1.000
1.555000,654926,1000.00,12,0,1,1068.608,4.577,10.191,997.194,-2.512,1.057
1.556000,654927,1000.00,12,0,1,1076.943,11.352,10.308,997.146,-1.683,1.082
1.557000,654928,1000.00,12,0,1,1095.631,24.104,10.833,998.707,-0.596,1.073
1.558000,654929,1000.00,12,0,1,1091.691,21.217,10.935,1000.149,1.167,1.078
1.559000,654930,1000.00,12,0,1,1076.462,-0.751,10.935,1001.806,2.173,1.103
1.560000,654931,1000.00,12,0,1,1065.821,-11.057,9.596,999.068,0.132,1.064
1.561000,654932,1000.00,12,0,1,1066.878,-12.900,8.942,997.939,-1.898,1.098
1.562000,654933,1000.00,12,0,1,1067.695,-9.283,8.970,998.924,-0.471,1.099
1.563000,654934,1000.00,12,0,1,1068.223,-9.677,9.063,999.836,0.394,1.097
1.564000,654935,1000.00,12,0,1,1079.729,0.686,8.921,998.299,-0.642,1.093
1.565000,654936,1000.00,12,0,1,1082.996,5.956,8.955,999.812,0.117,1.074
1.566000,654937,1000.00,12,0,1,1076.751,-1.009,8.905,1000.725,1.645,1.097
1.567000,654938,1000.00,12,0,1,1073.916,-3.087,8.852,997.410,-1.231,1.110
1.568000,654939,1000.00,12,0,1,1075.526,-0.652,8.682,997.122,-2.102,1.149
1.569000,654940,1000.00,12,0,1,1070.649,-1.968,8.685,998.491,0.076,1.148
1.570000,654941,1000.00,12,0,1,1057.414,-11.852,8.845,999.596,0.869,1.155
1.571000,654942,1000.00,12,0,1,1054.147,-13.068,9.036,999.812,1.394,1.168
1.572000,654943,1000.00,12,0,1,1059.576,-3.961,9.047,998.876,0.260,1.168
1.573000,654944,1000.00,12,0,1,1060.729,0.253,9.047,998.876,0.098,1.163
1.574000,654945,1000.00,12,0,1,1067.335,5.936,9.021,999.164,0.400,1.144
1.575000,654946,1000.00,12,0,1,1073.868,12.915,9.152,998.275,-0.365,1.124
1.576000,654947,1000.00,12,0,1,1075.598,12.391,9.309,999.092,-0.023,1.113
1.577000,654948,1000.00,12,0,1,1079.417,12.812,9.300,998.996,0.307,1.107
1.578000,654949,1000.00,12,0,1,1097.553,23.879,9.752,997.074,-1.569,1.128
1.579000,654950,1000.00,12,0,1,1079.417,9.813,9.840,997.795,-1.193,1.117
1.580000,654951,1000.00,12,0,1,1036.996,-34.182,10.963,1000.725,1.677,1.118
1.581000,654952,1000.00,12,0,1,1032.865,-39.421,12.294,1000.053,1.388,1.129
1.582000,654953,1000.00,12,0,1,1044.443,-20.714,12.636,1000.005,0.477,1.125
1.583000,654954,1000.00,12,0,1,1068.872,1.046,12.630,997.050,-1.352,1.128
1.584000,654955,1000.00,12,0,1,1079.105,15.969,12.716,996.714,-2.568,1.152
1.585000,654956,1000.00,12,0,1,1075.237,8.452,12.604,996.281,-1.586,1.164
1.586000,654957,1000.00,12,0,1,1082.371,12.971,12.736,998.828,0.033,1.161
1.587000,654958,1000.00,12,0,1,1084.149,15.203,12.879,998.395,1.050,1.171
1.588000,654959,1000.00,12,0,1,1068.728,0.767,12.871,997.194,-0.826,1.174
1.589000,654960,1000.00,12,0,1,1068.728,-1.969,12.788,999.188,1.100,1.183
1.590000,654961,1000.00,12,0,1,1082.251,12.309,12.774,1000.173,2.344,1.220
1.591000,654962,1000.00,12,0,1,1062.458,-0.577,12.649,997.482,-0.219,1.216
1.592000,654963,1000.00,12,0,1,1053.691,-14.098,12.791,996.714,-1.310,1.220
1.593000,654964,1000.00,12,0,1,1058.999,-3.115,12.795,997.795,-0.101,1.220
1.594000,654965,1000.00,12,0,1,1063.251,0.710,12.777,997.843,0.262,1.217
1.595000,654966,1000.00,12,0,1,1067.863,6.089,12.800,997.819,-0.052,1.212
1.596000,654967,1000.00,12,0,1,1066.998,4.948,12.774,1000.677,2.242,1.248
1.597000,654968,1000.00,12,0,1,1065.725,1.761,12.726,997.771,0.419,1.240
1.598000,654969,1000.00,12,0,1,1083.573,14.073,12.864,998.443,-0.694,1.235
1.599000,654970,1000.00,12,0,1,1057.774,-3.288,12.844,999.284,1.266,1.218
1.600000,654971,1000.00,12,0,1,1056.813,-16.956,13.043,998.011,-0.541,1.217
1.601000,654972,1000.00,12,0,1,1060.008,-4.563,12.950,1000.005,0.912,1.200
1.602000,654973,1000.00,12,0,1,1061.762,-8.235,12.791,997.843,-0.059,1.192
1.603000,654974,1000.00,12,0,1,1068.944,0.856,12.760,997.795,-1.452,1.207
1.604000,654975,1000.00,12,0,1,1077.303,6.976,12.772,997.627,-0.248,1.204
1.605000,654976,1000.00,12,0,1,1067.166,-0.460,12.756,997.675,-0.931,1.158
1.606000,654977,1000.00,12,0,1,1075.429,2.081,12.658,997.723,-0.075,1.134
1.607000,654978,1000.00,12,0,1,1076.510,7.883,12.241,998.203,0.025,1.130
1.608000,654979,1000.00,12,0,1,1066.398,-2.814,11.875,998.924,0.978,1.127
1.609000,654980,1000.00,12,0,1,1062.338,-6.052,11.905,998.828,0.848,1.091
1.610000,654981,1000.00,12,0,1,1059.071,-5.383,11.826,999.236,0.908,1.098
1.611000,654982,1000.00,12,0,1,1056.573,-6.753,11.724,997.843,0.031,1.065
1.612000,654983,1000.00,12,0,1,1061.858,0.765,11.650,997.218,-1.134,1.075
1.613000,654984,1000.00,12,0,1,1085.350,19.817,11.904,995.873,-1.584,1.096
1.614000,654985,1000.00,12,0,1,1094.766,31.061,12.689,998.587,-0.015,1.093
1.615000,654986,1000.00,12,0,1,1045.692,-12.565,12.785,998.083,0.964,1.101
1.616000,654987,1000.00,12,0,1,1043.770,-26.180,13.309,998.972,0.266,1.077
1.617000,654988,1000.00,12,0,1,1068.752,6.259,13.332,999.260,1.434,1.082
1.618000,654989,1000.00,12,0,1,1067.671,4.521,13.347,998.395,-0.114,1.040
1.619000,654990,1000.00,12,0,1,1072.667,4.732,13.360,999.212,0.484,1.042
1.620000,654991,1000.00,12,0,1,1064.188,-0.356,13.255,999.044,0.554,1.038
1.621000,654992,1000.00,12,0,1,1043.962,-21.848,13.484,997.987,-0.766,1.025
1.622000,654993,1000.00,12,0,1,1046.965,-19.151,13.742,999.644,0.578,1.028
