Frame_Index,System_Time_s,Human_Readable
0,1775226290.7302995,16:24:50.730
1,1775226290.7376614,16:24:50.737
2,1775226290.740706,16:24:50.740
3,1775226290.7538328,16:24:50.753
4,1775226290.7568786,16:24:50.756
5,1775226290.769947,16:24:50.769
6,1775226290.7730136,16:24:50.773
7,1775226290.7861435,16:24:50.786
8,1775226290.7915611,16:24:50.791
9,1775226290.8022282,16:24:50.802
10,1775226290.808276,16:24:50.808
11,1775226290.8289797,16:24:50.828
12,1775226290.8419387,16:24:50.841
13,1775226290.8579793,16:24:50.857
14,1775226290.874166,16:24:50.874
15,1775226290.880299,16:24:50.880
16,1775226290.909644,16:24:50.909
17,1775226290.9137025,16:24:50.913
18,1775226290.9207416,16:24:50.920
19,1775226290.933967,16:24:50.933
20,1775226290.954924,16:24:50.954
21,1775226290.9619322,16:24:50.961
22,1775226290.989998,16:24:50.989
23,1775226290.9951243,16:24:50.995
24,1775226290.9981163,16:24:50.998
25,1775226291.0098395,16:24:51.009
26,1775226291.0134811,16:24:51.013
27,1775226291.0273619,16:24:51.027
28,1775226291.0313845,16:24:51.031
29,1775226291.0627463,16:24:51.062
30,1775226291.091041,16:24:51.091
31,1775226291.1054752,16:24:51.105
32,1775226291.1079445,16:24:51.107
33,1775226291.1206694,16:24:51.120
34,1775226291.1236675,16:24:51.123
35,1775226291.139359,16:24:51.139
36,1775226291.144363,16:24:51.144
37,1775226291.1624026,16:24:51.162
38,1775226291.1742318,16:24:51.174
39,1775226291.1802795,16:24:51.180
40,1775226291.2105336,16:24:51.210
41,1775226291.2175992,16:24:51.217
42,1775226291.2391465,16:24:51.239
43,1775226291.254289,16:24:51.254
44,1775226291.2593381,16:24:51.259
45,1775226291.2654614,16:24:51.265
46,1775226291.287776,16:24:51.287
47,1775226291.289736,16:24:51.289
48,1775226291.296912,16:24:51.296
49,1775226291.299865,16:24:51.299
50,1775226291.3133442,16:24:51.313
51,1775226291.3163393,16:24:51.316
52,1775226291.328976,16:24:51.328
53,1775226291.3319166,16:24:51.331
54,1775226291.3450544,16:24:51.345
55,1775226291.362431,16:24:51.362
56,1775226291.3804746,16:24:51.380
57,1775226291.3912673,16:24:51.391
58,1775226291.396268,16:24:51.396
59,1775226291.4092622,16:24:51.409
60,1775226291.41226,16:24:51.412
61,1775226291.4251952,16:24:51.425
62,1775226291.4288192,16:24:51.428
63,1775226291.4412901,16:24:51.441
64,1775226291.4443398,16:24:51.444
65,1775226291.4580052,16:24:51.458
66,1775226291.4610043,16:24:51.461
67,1775226291.4789984,16:24:51.478
68,1775226291.496052,16:24:51.496
69,1775226291.5052514,16:24:51.505
70,1775226291.5081954,16:24:51.508
71,1775226291.5215178,16:24:51.521
72,1775226291.5245726,16:24:51.524
73,1775226291.5377216,16:24:51.537
74,1775226291.5427158,16:24:51.542
75,1775226291.554045,16:24:51.554
76,1775226291.5569983,16:24:51.556
77,1775226291.5703974,16:24:51.570
78,1775226291.5763476,16:24:51.576
79,1775226291.5883858,16:24:51.588
80,1775226291.6086998,16:24:51.608
81,1775226291.6257257,16:24:51.625
82,1775226291.6413412,16:24:51.641
83,1775226291.6490562,16:24:51.649
84,1775226291.652033,16:24:51.652
85,1775226291.6655304,16:24:51.665
86,1775226291.66953,16:24:51.669
87,1775226291.683161,16:24:51.683
88,1775226291.6881588,16:24:51.688
89,1775226291.7019322,16:24:51.701
90,1775226291.7232363,16:24:51.723
91,1775226291.7272608,16:24:51.727
92,1775226291.7330432,16:24:51.733
93,1775226291.750771,16:24:51.750
94,1775226291.7612393,16:24:51.761
95,1775226291.764327,16:24:51.764
96,1775226291.7767928,16:24:51.776
97,1775226291.7787824,16:24:51.778
98,1775226291.7923124,16:24:51.792
99,1775226291.8190923,16:24:51.819
100,1775226291.8253963,16:24:51.825
101,1775226291.8482473,16:24:51.848
102,1775226291.8572009,16:24:51.857
103,1775226291.8602035,16:24:51.860
104,1775226291.8736343,16:24:51.873
105,1775226291.87658,16:24:51.876
106,1775226291.8891454,16:24:51.889
107,1775226291.9057455,16:24:51.905
108,1775226291.9191053,16:24:51.919
109,1775226291.9391725,16:24:51.939
110,1775226291.9693286,16:24:51.969
111,1775226291.9723723,16:24:51.972
112,1775226291.9851508,16:24:51.985
113,1775226291.9881682,16:24:51.988
114,1775226292.0020483,16:24:52.002
115,1775226292.005117,16:24:52.005
116,1775226292.019168,16:24:52.019
117,1775226292.052426,16:24:52.052
118,1775226292.082662,16:24:52.082
119,1775226292.087612,16:24:52.087
120,1775226292.0975502,16:24:52.097
121,1775226292.1005476,16:24:52.100
122,1775226292.1136944,16:24:52.113
123,1775226292.120686,16:24:52.120
124,1775226292.1391168,16:24:52.139
125,1775226292.1511161,16:24:52.151
126,1775226292.1619911,16:24:52.161
127,1775226292.1772473,16:24:52.177
128,1775226292.181244,16:24:52.181
129,1775226292.1942456,16:24:52.194
130,1775226292.197414,16:24:52.197
131,1775226292.2094147,16:24:52.209
132,1775226292.2124007,16:24:52.212
133,1775226292.2258193,16:24:52.225
134,1775226292.2294817,16:24:52.229
135,1775226292.2425,16:24:52.242
136,1775226292.2478526,16:24:52.247
137,1775226292.2588558,16:24:52.258
138,1775226292.2768705,16:24:52.276
139,1775226292.2888577,16:24:52.288
140,1775226292.305286,16:24:52.305
141,1775226292.308332,16:24:52.308
142,1775226292.3208718,16:24:52.320
143,1775226292.323821,16:24:52.323
144,1775226292.337217,16:24:52.337
145,1775226292.3402152,16:24:52.340
146,1775226292.3531718,16:24:52.353
147,1775226292.3571713,16:24:52.357
148,1775226292.3846738,16:24:52.384
149,1775226292.426405,16:24:52.426
150,1775226292.4294517,16:24:52.429
151,1775226292.4329367,16:24:52.432
152,1775226292.4359539,16:24:52.435
153,1775226292.4501302,16:24:52.450
154,1775226292.4531195,16:24:52.453
155,1775226292.4894245,16:24:52.489
156,1775226292.49238,16:24:52.492
157,1775226292.4973829,16:24:52.497
158,1775226292.5003743,16:24:52.500
159,1775226292.513699,16:24:52.513
160,1775226292.5166447,16:24:52.516
161,1775226292.5294428,16:24:52.529
162,1775226292.5329068,16:24:52.532
163,1775226292.5455537,16:24:52.545
164,1775226292.5485387,16:24:52.548
165,1775226292.5619457,16:24:52.561
166,1775226292.5808907,16:24:52.580
167,1775226292.593194,16:24:52.593
168,1775226292.5962238,16:24:52.596
169,1775226292.6096737,16:24:52.609
170,1775226292.613712,16:24:52.613
171,1775226292.625922,16:24:52.625
172,1775226292.62992,16:24:52.629
173,1775226292.641077,16:24:52.641
174,1775226292.6450837,16:24:52.645
175,1775226292.6576571,16:24:52.657
176,1775226292.661607,16:24:52.661
177,1775226292.6731322,16:24:52.673
178,1775226292.6784053,16:24:52.678
179,1775226292.6914566,16:24:52.691
180,1775226292.7094152,16:24:52.709
181,1775226292.7124045,16:24:52.712
182,1775226292.7218537,16:24:52.721
183,1775226292.7248516,16:24:52.724
184,1775226292.7377782,16:24:52.737
185,1775226292.7408404,16:24:52.740
186,1775226292.7540247,16:24:52.754
187,1775226292.7560275,16:24:52.756
188,1775226292.7696161,16:24:52.769
189,1775226292.7728558,16:24:52.772
190,1775226292.786157,16:24:52.786
191,1775226292.7896,16:24:52.789
192,1775226292.8146503,16:24:52.814
193,1775226292.8206341,16:24:52.820
194,1775226292.833485,16:24:52.833
195,1775226292.849064,16:24:52.849
196,1775226292.8531172,16:24:52.853
197,1775226292.8653758,16:24:52.865
198,1775226292.8693924,16:24:52.869
199,1775226292.8813946,16:24:52.881
200,1775226292.8843942,16:24:52.884
201,1775226292.8973548,16:24:52.897
202,1775226292.9104466,16:24:52.910
203,1775226292.9220924,16:24:52.922
204,1775226292.9286199,16:24:52.928
205,1775226292.9306152,16:24:52.930
206,1775226292.947009,16:24:52.947
207,1775226292.9500017,16:24:52.950
208,1775226292.962101,16:24:52.962
209,1775226292.9782283,16:24:52.978
210,1775226292.9812305,16:24:52.981
211,1775226292.9942756,16:24:52.994
212,1775226292.9972777,16:24:52.997
213,1775226293.015275,16:24:53.015
214,1775226293.0253282,16:24:53.025
215,1775226293.0292728,16:24:53.029
216,1775226293.0407934,16:24:53.040
217,1775226293.043841,16:24:53.043
218,1775226293.0568027,16:24:53.056
219,1775226293.0597966,16:24:53.059
220,1775226293.0737088,16:24:53.073
221,1775226293.0767133,16:24:53.076
222,1775226293.090119,16:24:53.090
223,1775226293.10517,16:24:53.105
224,1775226293.1091251,16:24:53.109
225,1775226293.1361413,16:24:53.136
226,1775226293.1401556,16:24:53.140
227,1775226293.154226,16:24:53.154
228,1775226293.1572785,16:24:53.157
229,1775226293.169467,16:24:53.169
230,1775226293.1724498,16:24:53.172
231,1775226293.1852536,16:24:53.185
232,1775226293.1898167,16:24:53.189
233,1775226293.201462,16:24:53.201
234,1775226293.2055073,16:24:53.205
235,1775226293.217618,16:24:53.217
236,1775226293.2312036,16:24:53.231
237,1775226293.248783,16:24:53.248
238,1775226293.2537744,16:24:53.253
239,1775226293.2649157,16:24:53.264
240,1775226293.2684054,16:24:53.268
241,1775226293.2807958,16:24:53.280
242,1775226293.285068,16:24:53.285
243,1775226293.297451,16:24:53.297
244,1775226293.3004878,16:24:53.300
245,1775226293.313737,16:24:53.313
246,1775226293.3170867,16:24:53.317
247,1775226293.329952,16:24:53.329
248,1775226293.3339515,16:24:53.333
249,1775226293.363608,16:24:53.363
250,1775226293.3665535,16:24:53.366
251,1775226293.3777096,16:24:53.377
252,1775226293.380704,16:24:53.380
253,1775226293.392955,16:24:53.392
254,1775226293.3966737,16:24:53.396
255,1775226293.4100704,16:24:53.410
256,1775226293.4133415,16:24:53.413
257,1775226293.4256887,16:24:53.425
258,1775226293.4288502,16:24:53.428
259,1775226293.440731,16:24:53.440
260,1775226293.4591074,16:24:53.459
261,1775226293.4671621,16:24:53.467
262,1775226293.4731956,16:24:53.473
263,1775226293.4752426,16:24:53.475
264,1775226293.488256,16:24:53.488
265,1775226293.5054543,16:24:53.505
266,1775226293.5083961,16:24:53.508
267,1775226293.5213377,16:24:53.521
268,1775226293.52435,16:24:53.524
269,1775226293.537208,16:24:53.537
270,1775226293.5402362,16:24:53.540
271,1775226293.5546594,16:24:53.554
272,1775226293.557729,16:24:53.557
273,1775226293.5763097,16:24:53.576
274,1775226293.58468,16:24:53.584
275,1775226293.5877721,16:24:53.587
276,1775226293.6009355,16:24:53.600
277,1775226293.603946,16:24:53.603
278,1775226293.6174822,16:24:53.617
279,1775226293.620938,16:24:53.620
280,1775226293.6331391,16:24:53.633
281,1775226293.6492956,16:24:53.649
282,1775226293.6533425,16:24:53.653
283,1775226293.6730812,16:24:53.673
284,1775226293.6891253,16:24:53.689
285,1775226293.6971345,16:24:53.697
286,1775226293.7001286,16:24:53.700
287,1775226293.712681,16:24:53.712
288,1775226293.7167273,16:24:53.716
289,1775226293.7288,16:24:53.728
290,1775226293.732798,16:24:53.732
291,1775226293.745016,16:24:53.745
292,1775226293.7879508,16:24:53.787
293,1775226293.7960942,16:24:53.796
294,1775226293.808161,16:24:53.808
295,1775226293.8113778,16:24:53.811
296,1775226293.824785,16:24:53.824
297,1775226293.8282225,16:24:53.828
298,1775226293.8423285,16:24:53.842
299,1775226293.8458226,16:24:53.845
300,1775226293.85721,16:24:53.857
301,1775226293.8601887,16:24:53.860
302,1775226293.8755803,16:24:53.875
303,1775226293.8966262,16:24:53.896
304,1775226293.905987,16:24:53.905
305,1775226293.922552,16:24:53.922
306,1775226293.9256015,16:24:53.925
307,1775226293.9379017,16:24:53.937
308,1775226293.9418955,16:24:53.941
309,1775226293.953611,16:24:53.953
310,1775226293.9575698,16:24:53.957
311,1775226293.9698274,16:24:53.969
312,1775226293.97314,16:24:53.973
313,1775226293.9870808,16:24:53.987
314,1775226293.990565,16:24:53.990
315,1775226294.01539,16:24:54.015
316,1775226294.0205896,16:24:54.020
317,1775226294.0328681,16:24:54.032
318,1775226294.0487297,16:24:54.048
319,1775226294.0512633,16:24:54.051
320,1775226294.0645165,16:24:54.064
321,1775226294.0665543,16:24:54.066
322,1775226294.0807912,16:24:54.080
323,1775226294.0828378,16:24:54.082
324,1775226294.0976422,16:24:54.097
325,1775226294.1129622,16:24:54.112
326,1775226294.1209648,16:24:54.120
327,1775226294.1279826,16:24:54.127
328,1775226294.1309934,16:24:54.130
329,1775226294.1456387,16:24:54.145
330,1775226294.1486259,16:24:54.148
331,1775226294.162084,16:24:54.162
332,1775226294.1775296,16:24:54.177
333,1775226294.180745,16:24:54.180
334,1775226294.1939058,16:24:54.193
335,1775226294.1969464,16:24:54.196
336,1775226294.216206,16:24:54.216
337,1775226294.2323792,16:24:54.232
338,1775226294.2409363,16:24:54.240
339,1775226294.244958,16:24:54.244
340,1775226294.2572434,16:24:54.257
341,1775226294.2605307,16:24:54.260
342,1775226294.2741334,16:24:54.274
343,1775226294.2771835,16:24:54.277
344,1775226294.2892833,16:24:54.289
345,1775226294.292228,16:24:54.292
346,1775226294.3047788,16:24:54.304
347,1775226294.3285997,16:24:54.328
348,1775226294.3410914,16:24:54.341
349,1775226294.344223,16:24:54.344
350,1775226294.3527873,16:24:54.352
351,1775226294.3567817,16:24:54.356
352,1775226294.3698435,16:24:54.369
353,1775226294.3728826,16:24:54.372
354,1775226294.385854,16:24:54.385
355,1775226294.388848,16:24:54.388
356,1775226294.4027503,16:24:54.402
357,1775226294.4058065,16:24:54.405
358,1775226294.4171207,16:24:54.417
359,1775226294.4231646,16:24:54.423
360,1775226294.4518487,16:24:54.451
361,1775226294.454831,16:24:54.454
362,1775226294.464931,16:24:54.464
363,1775226294.468884,16:24:54.468
364,1775226294.4808185,16:24:54.480
365,1775226294.4853601,16:24:54.485
366,1775226294.4979057,16:24:54.497
367,1775226294.5019166,16:24:54.501
368,1775226294.5130482,16:24:54.513
369,1775226294.517,16:24:54.516
370,1775226294.5294604,16:24:54.529
371,1775226294.5344572,16:24:54.534
372,1775226294.5620425,16:24:54.562
373,1775226294.5654151,16:24:54.565
374,1775226294.5771766,16:24:54.577
375,1775226294.5940998,16:24:54.594
376,1775226294.597147,16:24:54.597
377,1775226294.609984,16:24:54.609
378,1775226294.6139529,16:24:54.613
379,1775226294.6254108,16:24:54.625
380,1775226294.6294198,16:24:54.629
381,1775226294.6445258,16:24:54.644
382,1775226294.6484745,16:24:54.648
383,1775226294.678603,16:24:54.678
384,1775226294.6891007,16:24:54.689
385,1775226294.6921268,16:24:54.692
386,1775226294.705529,16:24:54.705
387,1775226294.7216947,16:24:54.721
388,1775226294.7247431,16:24:54.724
389,1775226294.737224,16:24:54.737
390,1775226294.7407882,16:24:54.740
391,1775226294.7540526,16:24:54.754
392,1775226294.7569869,16:24:54.756
393,1775226294.7839918,16:24:54.783
394,1775226294.791419,16:24:54.791
395,1775226294.8018486,16:24:54.801
396,1775226294.80487,16:24:54.804
397,1775226294.818393,16:24:54.818
398,1775226294.821436,16:24:54.821
399,1775226294.833032,16:24:54.833
400,1775226294.8499572,16:24:54.849
401,1775226294.8539593,16:24:54.853
402,1775226294.865608,16:24:54.865
403,1775226294.8755848,16:24:54.875
404,1775226294.8916755,16:24:54.891
405,1775226294.8976872,16:24:54.897
406,1775226294.9007282,16:24:54.900
407,1775226294.9129343,16:24:54.912
408,1775226294.9159987,16:24:54.915
409,1775226294.9293644,16:24:54.929
410,1775226294.9323573,16:24:54.932
411,1775226294.945227,16:24:54.945
412,1775226294.9482245,16:24:54.948
413,1775226294.9618475,16:24:54.961
414,1775226294.964882,16:24:54.964
415,1775226294.9779031,16:24:54.977
416,1775226295.0071876,16:24:55.007
417,1775226295.0134702,16:24:55.013
418,1775226295.0260234,16:24:55.026
419,1775226295.0290856,16:24:55.029
420,1775226295.0413504,16:24:55.041
421,1775226295.0439215,16:24:55.043
422,1775226295.0573406,16:24:55.057
423,1775226295.0602875,16:24:55.060
424,1775226295.07356,16:24:55.073
425,1775226295.0777547,16:24:55.077
426,1775226295.095865,16:24:55.095
427,1775226295.1119106,16:24:55.111
428,1775226295.13691,16:24:55.136
429,1775226295.1399548,16:24:55.139
430,1775226295.1541724,16:24:55.154
431,1775226295.1571202,16:24:55.157
432,1775226295.1699862,16:24:55.169
433,1775226295.1729348,16:24:55.172
434,1775226295.1859531,16:24:55.185
435,1775226295.1889918,16:24:55.188
436,1775226295.207768,16:24:55.207
437,1775226295.225186,16:24:55.225
438,1775226295.2331822,16:24:55.233
439,1775226295.2371352,16:24:55.237
440,1775226295.249423,16:24:55.249
441,1775226295.2660155,16:24:55.266
442,1775226295.2690206,16:24:55.269
443,1775226295.28137,16:24:55.281
444,1775226295.286363,16:24:55.286
445,1775226295.2977195,16:24:55.297
446,1775226295.3036609,16:24:55.303
447,1775226295.3186672,16:24:55.318
448,1775226295.3359528,16:24:55.335
449,1775226295.345195,16:24:55.345
450,1775226295.3492346,16:24:55.349
451,1775226295.3615043,16:24:55.361
452,1775226295.364545,16:24:55.364
453,1775226295.3779402,16:24:55.377
454,1775226295.397092,16:24:55.397
455,1775226295.400089,16:24:55.400
456,1775226295.4115202,16:24:55.411
457,1775226295.4158707,16:24:55.415
458,1775226295.4339733,16:24:55.433
459,1775226295.4429328,16:24:55.442
460,1775226295.45679,16:24:55.456
461,1775226295.460794,16:24:55.460
462,1775226295.4738412,16:24:55.473
463,1775226295.4777892,16:24:55.477
464,1775226295.4893537,16:24:55.489
465,1775226295.4923477,16:24:55.492
466,1775226295.5054026,16:24:55.505
467,1775226295.5226994,16:24:55.522
468,1775226295.5528271,16:24:55.552
469,1775226295.555995,16:24:55.555
470,1775226295.5600095,16:24:55.560
471,1775226295.5691612,16:24:55.569
472,1775226295.5731952,16:24:55.573
473,1775226295.5864754,16:24:55.586
474,1775226295.5894594,16:24:55.589
475,1775226295.6028085,16:24:55.602
476,1775226295.6058633,16:24:55.605
477,1775226295.6178064,16:24:55.617
478,1775226295.6207955,16:24:55.620
479,1775226295.6340241,16:24:55.634
480,1775226295.6370263,16:24:55.637
481,1775226295.6606455,16:24:55.660
482,1775226295.668669,16:24:55.668
483,1775226295.6716645,16:24:55.671
484,1775226295.681231,16:24:55.681
485,1775226295.6842225,16:24:55.684
486,1775226295.6966786,16:24:55.696
487,1775226295.6997156,16:24:55.699
488,1775226295.7133343,16:24:55.713
489,1775226295.7163804,16:24:55.716
490,1775226295.7291663,16:24:55.729
491,1775226295.7322817,16:24:55.732
492,1775226295.7527802,16:24:55.752
493,1775226295.7677853,16:24:55.767
494,1775226295.7768474,16:24:55.776
