# FW/GUI: v9.6.1-multi17-dual (PyQt5)
# StartTime: 2026-04-03 16:24:47
# Slot: 13
# DeviceID: 13
# Label: EMG13
# IP: 192.168.137.206
# TCP: 3333
# DeviceFW: EMG_FW_v9.6_MULTI17_DUALCH_RUNTIMECFG_CHEN
# EMG column notes: EMG_t_s=seconds since this Start; sample_idx=device sample index (ADS frame index); fs=sample rate (SPS); gain=gain; flags=0x01(TEST) 0x02(SHORT) 0x04(RLD); emg_valid=1 valid / 0 invalid (spike-guard decision); ch1_raw_uV=raw uV (after spike guard); ch1_filt_uV=filtered uV; ch1_env_uV=envelope (RMS) uV
EMG_t_s,sample_idx,fs,gain,flags,emg_valid,ch1_raw_uV,ch1_filt_uV,ch1_env_uV,ch2_raw_uV,ch2_filt_uV,ch2_env_uV
0.000000,941851,1000.00,12,0,1,814.901,0.451,3.209,1073.436,0.197,0.933
0.001000,941852,1000.00,12,0,1,815.454,0.167,3.136,1074.301,-0.146,0.926
0.002000,941853,1000.00,12,0,1,818.456,1.605,3.098,1074.757,1.089,0.938
0.003000,941854,1000.00,12,0,1,819.369,1.921,3.110,1073.099,-0.771,0.944
0.004000,941855,1000.00,12,0,1,819.609,0.211,3.104,1074.397,0.045,0.943
0.005000,941856,1000.00,12,0,1,819.850,-0.229,3.104,1074.421,0.808,0.936
0.006000,941857,1000.00,12,0,1,821.819,0.163,3.062,1073.676,-0.411,0.916
0.007000,941858,1000.00,12,0,1,824.125,2.046,2.936,1072.859,-0.649,0.885
0.008000,941859,1000.00,12,0,1,824.413,1.807,2.934,1072.643,-1.043,0.895
0.009000,941860,1000.00,12,0,1,824.966,1.896,2.942,1073.748,0.279,0.894
0.010000,941861,1000.00,12,0,1,825.903,2.924,2.966,1072.619,-0.320,0.892
0.011000,941862,1000.00,12,0,1,817.087,-3.238,2.990,1073.196,-0.303,0.893
0.012000,941863,1000.00,12,0,1,811.779,-8.432,3.216,1073.220,0.410,0.887
0.013000,941864,1000.00,12,0,1,815.694,-2.430,3.210,1073.556,0.184,0.876
0.014000,941865,1000.00,12,0,1,815.262,0.063,3.153,1073.244,0.320,0.869
0.015000,941866,1000.00,12,0,1,813.364,-1.075,3.144,1074.349,0.680,0.868
0.016000,941867,1000.00,12,0,1,814.181,0.991,3.142,1072.859,0.002,0.866
0.017000,941868,1000.00,12,0,1,811.995,0.137,3.127,1071.418,-1.978,0.906
0.018000,941869,1000.00,12,0,1,809.689,-1.904,3.119,1072.667,-0.645,0.900
0.019000,941870,1000.00,12,0,1,814.685,2.016,3.131,1071.947,-0.703,0.902
0.020000,941871,1000.00,12,0,1,816.679,4.572,3.110,1073.388,-0.123,0.881
0.021000,941872,1000.00,12,0,1,815.694,1.712,3.003,1074.397,1.576,0.896
0.022000,941873,1000.00,12,0,1,819.129,3.111,3.029,1073.556,0.307,0.891
0.023000,941874,1000.00,12,0,1,820.474,3.466,2.902,1073.868,0.499,0.888
0.024000,941875,1000.00,12,0,1,821.699,2.137,2.712,1074.228,0.840,0.895
0.025000,941876,1000.00,12,0,1,821.123,0.889,2.672,1072.379,-0.615,0.899
0.026000,941877,1000.00,12,0,1,819.441,-2.159,2.689,1072.403,-0.993,0.909
0.027000,941878,1000.00,12,0,1,821.915,-0.680,2.670,1074.397,1.153,0.923
0.028000,941879,1000.00,12,0,1,821.003,-0.641,2.672,1073.148,0.487,0.926
0.029000,941880,1000.00,12,0,1,817.976,-3.619,2.709,1072.091,-0.987,0.931
0.030000,941881,1000.00,12,0,1,818.721,-2.179,2.708,1072.883,0.050,0.931
0.031000,941882,1000.00,12,0,1,820.690,0.937,2.579,1072.259,-0.230,0.922
0.032000,941883,1000.00,12,0,1,821.963,3.059,2.533,1072.379,-0.343,0.912
0.033000,941884,1000.00,12,0,1,814.829,-1.306,2.537,1075.069,1.980,0.952
0.034000,941885,1000.00,12,0,1,813.244,-3.479,2.581,1075.333,2.484,0.997
0.035000,941886,1000.00,12,0,1,831.067,12.571,3.114,1076.126,2.134,1.020
0.036000,941887,1000.00,12,0,1,818.480,6.807,3.224,1074.301,0.868,0.985
0.037000,941888,1000.00,12,0,1,793.859,-19.651,4.231,1074.060,-0.577,0.983
0.038000,941889,1000.00,12,0,1,798.399,-14.840,4.713,1075.165,0.797,0.989
0.039000,941890,1000.00,12,0,1,808.776,-1.121,4.656,1073.988,-0.379,0.990
0.040000,941891,1000.00,12,0,1,811.274,1.332,4.615,1073.316,-1.354,1.005
0.041000,941892,1000.00,12,0,1,812.283,1.721,4.617,1074.180,-0.421,1.005
0.042000,941893,1000.00,12,0,1,815.454,2.928,4.632,1073.700,-0.640,1.008
0.043000,941894,1000.00,12,0,1,818.937,5.036,4.686,1074.397,-0.277,0.995
0.044000,941895,1000.00,12,0,1,821.819,5.488,4.742,1075.910,1.228,1.009
0.045000,941896,1000.00,12,0,1,822.276,4.474,4.780,1074.421,0.158,1.008
0.046000,941897,1000.00,12,0,1,820.330,0.997,4.778,1074.036,-0.841,0.945
0.047000,941898,1000.00,12,0,1,821.579,0.704,4.767,1074.541,0.097,0.945
0.048000,941899,1000.00,12,0,1,826.119,4.325,4.787,1074.925,0.240,0.893
0.049000,941900,1000.00,12,0,1,826.936,5.126,4.836,1072.859,-1.095,0.896
0.050000,941901,1000.00,12,0,1,823.837,1.918,4.843,1072.235,-2.142,0.946
0.051000,941902,1000.00,12,0,1,816.823,-3.555,4.869,1073.003,-0.819,0.953
0.052000,941903,1000.00,12,0,1,808.680,-9.595,5.049,1074.108,0.167,0.940
0.053000,941904,1000.00,12,0,1,812.091,-5.531,5.102,1073.700,0.125,0.934
0.054000,941905,1000.00,12,0,1,821.891,6.091,5.174,1073.292,-0.530,0.937
0.055000,941906,1000.00,12,0,1,816.126,3.551,5.199,1073.268,-0.442,0.932
0.056000,941907,1000.00,12,0,1,807.407,-5.577,5.258,1074.757,0.668,0.935
0.057000,941908,1000.00,12,0,1,804.909,-6.290,5.325,1072.955,-0.385,0.932
0.058000,941909,1000.00,12,0,1,803.227,-6.381,5.395,1074.180,-0.360,0.922
0.059000,941910,1000.00,12,0,1,805.485,-3.937,5.417,1075.502,1.616,0.949
0.060000,941911,1000.00,12,0,1,808.248,-0.473,5.401,1073.844,-0.190,0.948
0.061000,941912,1000.00,12,0,1,811.442,1.374,5.385,1072.547,-1.564,0.973
0.062000,941913,1000.00,12,0,1,812.451,1.934,5.259,1074.228,-0.085,0.971
0.063000,941914,1000.00,12,0,1,814.325,1.474,5.252,1074.156,0.416,0.973
0.064000,941915,1000.00,12,0,1,816.607,2.608,5.265,1074.421,0.227,0.972
0.065000,941916,1000.00,12,0,1,818.985,2.954,5.279,1074.349,0.500,0.970
0.066000,941917,1000.00,12,0,1,823.212,5.249,5.329,1073.988,0.028,0.970
0.067000,941918,1000.00,12,0,1,822.540,4.179,5.362,1074.397,0.374,0.930
0.068000,941919,1000.00,12,0,1,822.780,2.366,5.365,1074.565,0.705,0.931
0.069000,941920,1000.00,12,0,1,820.138,0.963,5.360,1073.316,-0.405,0.928
0.070000,941921,1000.00,12,0,1,818.168,-1.562,5.325,1074.060,-0.015,0.927
0.071000,941922,1000.00,12,0,1,817.447,-0.522,5.320,1075.958,1.828,0.937
0.072000,941923,1000.00,12,0,1,813.148,-2.824,5.317,1074.901,1.043,0.947
0.073000,941924,1000.00,12,0,1,811.370,-3.385,5.316,1072.499,-1.546,0.969
0.074000,941925,1000.00,12,0,1,808.031,-3.435,5.329,1073.027,-1.247,0.978
0.075000,941926,1000.00,12,0,1,803.636,-6.029,5.396,1072.163,-1.311,0.992
0.076000,941927,1000.00,12,0,1,802.194,-5.204,5.437,1072.979,-1.105,0.994
0.077000,941928,1000.00,12,0,1,805.557,-1.050,5.438,1072.715,-0.476,0.983
0.078000,941929,1000.00,12,0,1,811.634,5.263,5.488,1073.220,-0.609,0.984
0.079000,941930,1000.00,12,0,1,817.375,9.648,5.632,1072.667,-0.411,0.976
0.080000,941931,1000.00,12,0,1,818.024,8.861,5.762,1075.478,1.194,0.991
0.081000,941932,1000.00,12,0,1,823.741,9.933,5.929,1076.414,2.866,1.070
0.082000,941933,1000.00,12,0,1,820.714,6.713,5.989,1074.469,0.387,1.070
0.083000,941934,1000.00,12,0,1,817.015,-1.368,5.989,1073.964,-0.396,1.034
0.084000,941935,1000.00,12,0,1,819.537,-0.367,5.969,1073.940,-0.158,0.973
0.085000,941936,1000.00,12,0,1,819.729,-1.115,5.700,1072.067,-1.671,0.955
0.086000,941937,1000.00,12,0,1,816.991,-4.630,5.656,1072.979,-1.032,0.958
0.087000,941938,1000.00,12,0,1,817.447,-4.649,4.970,1073.196,-0.039,0.955
0.088000,941939,1000.00,12,0,1,819.922,-1.966,4.514,1075.285,1.305,0.966
0.089000,941940,1000.00,12,0,1,820.666,-0.290,4.512,1075.309,2.027,1.006
0.090000,941941,1000.00,12,0,1,817.279,-2.396,4.520,1073.388,-0.238,0.988
0.091000,941942,1000.00,12,0,1,816.367,-2.513,4.528,1073.340,-0.462,0.989
0.092000,941943,1000.00,12,0,1,810.313,-4.952,4.563,1071.802,-1.219,0.999
0.093000,941944,1000.00,12,0,1,806.926,-7.264,4.622,1072.235,-1.413,1.018
0.094000,941945,1000.00,12,0,1,807.719,-3.495,4.584,1073.820,0.727,1.009
0.095000,941946,1000.00,12,0,1,812.739,2.186,4.550,1071.274,-1.304,1.025
0.096000,941947,1000.00,12,0,1,812.595,4.248,4.588,1074.228,0.249,1.019
0.097000,941948,1000.00,12,0,1,807.647,-0.519,4.587,1075.598,2.736,1.090
0.098000,941949,1000.00,12,0,1,806.542,-1.936,4.554,1074.060,0.349,1.090
0.099000,941950,1000.00,12,0,1,809.112,0.540,4.497,1073.580,-0.170,1.080
0.100000,941951,1000.00,12,0,1,813.316,3.320,4.513,1073.940,-0.012,1.036
0.101000,941952,1000.00,12,0,1,815.526,4.480,4.530,1073.340,-0.402,1.031
0.102000,941953,1000.00,12,0,1,812.043,-0.247,4.322,1072.691,-1.047,1.042
0.103000,941954,1000.00,12,0,1,810.602,-3.595,4.281,1073.988,0.001,1.042
0.104000,941955,1000.00,12,0,1,814.853,-0.853,4.195,1075.237,1.479,1.060
0.105000,941956,1000.00,12,0,1,817.423,1.293,4.169,1073.964,0.311,1.059
0.106000,941957,1000.00,12,0,1,817.976,0.579,4.094,1073.580,-0.347,1.056
0.107000,941958,1000.00,12,0,1,817.928,0.250,3.997,1074.757,0.795,1.060
0.108000,941959,1000.00,12,0,1,818.288,0.271,3.894,1072.907,-0.341,1.060
0.109000,941960,1000.00,12,0,1,818.024,0.674,3.855,1072.019,-1.682,1.062
0.110000,941961,1000.00,12,0,1,817.640,0.835,3.856,1075.454,1.530,1.084
0.111000,941962,1000.00,12,0,1,814.109,-0.748,3.853,1074.252,1.310,1.077
0.112000,941963,1000.00,12,0,1,811.346,-2.420,3.858,1074.204,-0.009,1.077
0.113000,941964,1000.00,12,0,1,811.851,-0.241,3.853,1074.156,0.706,1.080
0.114000,941965,1000.00,12,0,1,812.115,1.693,3.842,1074.252,0.051,1.079
0.115000,941966,1000.00,12,0,1,810.121,1.015,3.822,1075.478,1.236,1.091
0.116000,941967,1000.00,12,0,1,808.752,0.276,3.750,1074.829,0.612,1.095
0.117000,941968,1000.00,12,0,1,808.224,0.300,3.703,1074.805,-0.051,1.093
0.118000,941969,1000.00,12,0,1,809.112,0.946,3.690,1073.172,-1.028,1.098
0.119000,941970,1000.00,12,0,1,809.425,1.005,3.691,1071.322,-3.121,1.182
0.120000,941971,1000.00,12,0,1,812.884,2.506,3.701,1074.349,-0.423,1.184
0.121000,941972,1000.00,12,0,1,813.364,2.502,3.717,1073.075,-0.342,1.156
0.122000,941973,1000.00,12,0,1,809.641,-2.672,3.715,1073.220,-1.343,1.163
0.123000,941974,1000.00,12,0,1,810.554,-3.676,3.720,1074.277,0.562,1.145
0.124000,941975,1000.00,12,0,1,812.307,-2.137,3.701,1074.180,0.166,1.131
0.125000,941976,1000.00,12,0,1,813.196,-2.356,3.617,1074.853,0.766,1.121
0.126000,941977,1000.00,12,0,1,815.334,-0.758,3.543,1074.397,0.570,1.113
0.127000,941978,1000.00,12,0,1,815.958,-0.160,3.540,1073.532,-0.472,1.113
0.128000,941979,1000.00,12,0,1,816.054,-0.146,3.460,1074.397,0.342,1.111
0.129000,941980,1000.00,12,0,1,820.858,3.950,3.229,1074.108,0.360,1.110
0.130000,941981,1000.00,12,0,1,828.017,10.717,3.339,1074.541,0.417,1.099
0.131000,941982,1000.00,12,0,1,828.977,11.712,3.453,1071.562,-1.496,1.043
0.132000,941983,1000.00,12,0,1,820.546,3.897,3.365,1072.835,-1.423,1.061
0.133000,941984,1000.00,12,0,1,810.650,-5.190,3.439,1074.637,1.408,1.078
0.134000,941985,1000.00,12,0,1,807.671,-6.863,3.573,1072.475,-0.687,1.082
0.135000,941986,1000.00,12,0,1,809.833,-2.859,3.592,1072.451,-1.175,1.069
0.136000,941987,1000.00,12,0,1,802.435,-6.395,3.646,1072.787,-0.228,1.060
0.137000,941988,1000.00,12,0,1,800.105,-9.225,3.816,1073.796,0.208,1.060
0.138000,941989,1000.00,12,0,1,799.912,-6.195,3.906,1073.652,0.625,1.048
0.139000,941990,1000.00,12,0,1,803.395,-3.613,3.939,1073.075,-0.433,1.009
0.140000,941991,1000.00,12,0,1,803.515,-1.667,3.931,1075.646,1.656,1.036
0.141000,941992,1000.00,12,0,1,804.452,-2.562,3.932,1074.565,1.267,1.049
0.142000,941993,1000.00,12,0,1,811.442,2.911,3.891,1074.301,-0.097,1.035
0.143000,941994,1000.00,12,0,1,812.259,3.544,3.786,1072.331,-0.943,1.024
0.144000,941995,1000.00,12,0,1,803.227,-6.043,3.850,1072.571,-1.626,1.045
0.145000,941996,1000.00,12,0,1,811.851,-1.611,3.844,1076.102,2.095,1.070
0.146000,941997,1000.00,12,0,1,821.459,9.172,4.012,1073.220,0.291,1.070
0.147000,941998,1000.00,12,0,1,818.769,5.276,4.080,1071.658,-2.296,1.049
0.148000,941999,1000.00,12,0,1,816.102,1.241,4.075,1075.141,1.374,1.066
0.149000,942000,1000.00,12,0,1,814.085,0.088,4.074,1076.126,2.586,1.127
0.150000,942001,1000.00,12,0,1,817.664,2.641,4.064,1074.661,0.911,1.134
0.151000,942002,1000.00,12,0,1,819.609,6.617,4.122,1071.514,-1.853,1.163
0.152000,942003,1000.00,12,0,1,819.417,5.858,4.204,1073.316,-0.963,1.161
0.153000,942004,1000.00,12,0,1,816.126,4.318,4.218,1073.628,0.595,1.164
0.154000,942005,1000.00,12,0,1,811.130,-0.134,4.216,1073.892,-0.064,1.145
0.155000,942006,1000.00,12,0,1,803.588,-5.087,4.273,1072.955,-0.196,1.145
0.156000,942007,1000.00,12,0,1,804.164,-4.662,4.323,1073.075,-0.784,1.149
0.157000,942008,1000.00,12,0,1,805.029,-1.067,4.326,1073.027,-0.285,1.144
0.158000,942009,1000.00,12,0,1,803.924,-2.182,4.336,1071.874,-1.401,1.160
0.159000,942010,1000.00,12,0,1,807.239,0.453,4.336,1072.619,-0.911,1.143
0.160000,942011,1000.00,12,0,1,808.344,1.675,4.341,1073.724,0.535,1.125
0.161000,942012,1000.00,12,0,1,803.876,-3.571,4.369,1072.163,-0.792,1.115
0.162000,942013,1000.00,12,0,1,803.467,-5.474,4.424,1072.115,-1.099,1.126
0.163000,942014,1000.00,12,0,1,813.556,1.966,4.432,1072.859,-0.054,1.121
0.164000,942015,1000.00,12,0,1,819.537,7.459,4.550,1072.307,-0.320,1.122
0.165000,942016,1000.00,12,0,1,821.963,6.260,4.633,1070.745,-1.576,1.131
0.166000,942017,1000.00,12,0,1,816.078,0.628,4.633,1072.547,-0.146,1.128
0.167000,942018,1000.00,12,0,1,805.509,-10.552,4.868,1073.364,1.390,1.145
0.168000,942019,1000.00,12,0,1,806.926,-9.486,5.047,1072.691,0.496,1.138
0.169000,942020,1000.00,12,0,1,809.689,-3.665,5.072,1072.331,0.236,1.049
0.170000,942021,1000.00,12,0,1,810.313,-2.154,5.069,1072.619,0.481,1.050
0.171000,942022,1000.00,12,0,1,807.335,-2.065,5.065,1074.421,1.905,1.083
0.172000,942023,1000.00,12,0,1,806.926,-1.728,5.057,1072.835,1.025,1.076
0.173000,942024,1000.00,12,0,1,806.734,1.056,5.032,1072.379,-0.386,1.074
0.174000,942025,1000.00,12,0,1,807.431,2.536,5.036,1072.427,0.293,1.075
0.175000,942026,1000.00,12,0,1,800.801,-0.574,5.025,1070.601,-1.452,1.089
0.176000,942027,1000.00,12,0,1,801.882,-0.857,5.026,1070.289,-1.769,1.114
0.177000,942028,1000.00,12,0,1,806.782,5.872,5.094,1072.547,0.415,1.114
0.178000,942029,1000.00,12,0,1,812.355,9.493,5.268,1073.628,1.684,1.138
0.179000,942030,1000.00,12,0,1,813.148,9.672,5.414,1072.355,0.401,1.138
0.180000,942031,1000.00,12,0,1,811.442,5.306,5.251,1072.739,0.179,1.137
0.181000,942032,1000.00,12,0,1,811.731,3.148,5.003,1076.078,3.006,1.195
0.182000,942033,1000.00,12,0,1,807.767,-1.371,4.976,1075.646,2.840,1.245
0.183000,942034,1000.00,12,0,1,807.167,-4.898,4.970,1074.541,0.771,1.233
0.184000,942035,1000.00,12,0,1,809.569,-2.632,4.889,1073.316,-0.192,1.230
0.185000,942036,1000.00,12,0,1,808.800,-4.164,4.907,1073.460,-0.567,1.221
0.186000,942037,1000.00,12,0,1,812.283,-2.045,4.832,1072.235,-1.032,1.229
0.187000,942038,1000.00,12,0,1,813.412,-0.153,4.653,1070.962,-2.383,1.274
0.188000,942039,1000.00,12,0,1,812.811,-1.295,4.573,1072.595,-0.726,1.276
0.189000,942040,1000.00,12,0,1,814.685,0.842,4.546,1074.805,1.664,1.296
0.190000,942041,1000.00,12,0,1,814.997,2.123,4.550,1073.075,0.384,1.275
0.191000,942042,1000.00,12,0,1,814.589,2.186,4.546,1072.979,-0.430,1.264
0.192000,942043,1000.00,12,0,1,813.076,2.051,4.536,1072.379,-0.313,1.265
0.193000,942044,1000.00,12,0,1,809.401,-0.239,4.509,1072.643,-0.565,1.260
0.194000,942045,1000.00,12,0,1,810.433,1.109,4.430,1069.785,-2.163,1.276
0.195000,942046,1000.00,12,0,1,813.508,5.196,4.485,1071.706,-1.552,1.261
0.196000,942047,1000.00,12,0,1,808.992,2.118,4.303,1072.979,1.054,1.269
0.197000,942048,1000.00,12,0,1,803.780,-3.375,4.265,1072.499,-0.070,1.227
0.198000,942049,1000.00,12,0,1,804.068,-2.919,4.281,1073.676,0.892,1.218
0.199000,942050,1000.00,12,0,1,804.765,-1.860,4.289,1074.012,1.306,1.176
0.200000,942051,1000.00,12,0,1,804.116,-2.846,4.292,1073.508,0.349,1.170
0.201000,942052,1000.00,12,0,1,808.224,-0.529,4.189,1073.148,0.066,1.140
0.202000,942053,1000.00,12,0,1,812.523,2.832,4.126,1073.484,-0.007,1.132
0.203000,942054,1000.00,12,0,1,815.862,3.664,4.113,1072.835,-0.186,1.129
0.204000,942055,1000.00,12,0,1,819.273,4.802,4.169,1073.964,0.193,1.130
0.205000,942056,1000.00,12,0,1,820.498,4.000,4.145,1073.964,0.894,1.136
0.206000,942057,1000.00,12,0,1,818.288,0.430,4.093,1072.163,-1.066,1.141
0.207000,942058,1000.00,12,0,1,816.174,-2.663,4.108,1072.355,-0.903,1.147
0.208000,942059,1000.00,12,0,1,816.367,-2.660,4.113,1071.730,-0.844,1.137
0.209000,942060,1000.00,12,0,1,811.827,-5.140,4.176,1072.547,-0.432,1.131
0.210000,942061,1000.00,12,0,1,810.770,-6.091,4.258,1073.388,0.955,1.136
0.211000,942062,1000.00,12,0,1,809.977,-3.671,4.259,1073.003,0.412,1.132
0.212000,942063,1000.00,12,0,1,809.617,-2.854,4.208,1072.259,-0.172,1.122
0.213000,942064,1000.00,12,0,1,808.728,-1.060,4.201,1071.898,-0.582,1.125
0.214000,942065,1000.00,12,0,1,806.566,-1.538,4.073,1071.971,-0.406,1.125
0.215000,942066,1000.00,12,0,1,806.230,-0.573,3.976,1072.619,0.156,1.103
0.216000,942067,1000.00,12,0,1,807.551,1.786,3.983,1074.156,1.376,1.120
0.217000,942068,1000.00,12,0,1,807.047,1.918,3.703,1074.252,1.516,1.123
0.218000,942069,1000.00,12,0,1,808.127,2.307,3.467,1073.340,0.209,1.122
0.219000,942070,1000.00,12,0,1,810.650,3.946,3.473,1072.019,-0.992,1.130
0.220000,942071,1000.00,12,0,1,808.704,1.577,3.467,1072.667,-0.787,1.133
0.221000,942072,1000.00,12,0,1,808.007,-1.338,3.460,1071.154,-1.353,1.117
0.222000,942073,1000.00,12,0,1,813.772,2.356,3.467,1071.778,-1.498,1.128
0.223000,942074,1000.00,12,0,1,827.536,11.983,3.856,1073.820,1.052,1.136
0.224000,942075,1000.00,12,0,1,820.066,6.209,3.938,1072.955,0.401,1.137
0.225000,942076,1000.00,12,0,1,815.646,-4.438,3.987,1072.187,-0.611,1.122
0.226000,942077,1000.00,12,0,1,820.378,0.772,3.987,1073.244,0.475,1.096
0.227000,942078,1000.00,12,0,1,823.645,2.456,3.915,1072.883,0.436,1.096
0.228000,942079,1000.00,12,0,1,815.622,-3.508,3.711,1073.700,0.788,1.075
0.229000,942080,1000.00,12,0,1,805.773,-12.770,3.894,1076.150,2.950,1.152
0.230000,942081,1000.00,12,0,1,803.443,-12.761,4.226,1074.877,2.032,1.187
0.231000,942082,1000.00,12,0,1,799.984,-11.406,4.501,1073.796,0.075,1.108
0.232000,942083,1000.00,12,0,1,796.501,-11.949,4.804,1073.027,-0.260,1.034
0.233000,942084,1000.00,12,0,1,792.418,-10.821,4.994,1073.172,-0.582,1.031
0.234000,942085,1000.00,12,0,1,792.658,-8.346,5.118,1072.643,-0.579,1.034
0.235000,942086,1000.00,12,0,1,797.078,-0.643,5.085,1071.490,-1.777,1.061
0.236000,942087,1000.00,12,0,1,810.361,11.173,5.317,1070.986,-2.013,1.089
0.237000,942088,1000.00,12,0,1,817.399,19.075,5.962,1071.610,-1.288,1.051
0.238000,942089,1000.00,12,0,1,829.938,24.557,6.897,1072.763,-0.075,1.046
0.239000,942090,1000.00,12,0,1,812.619,11.338,7.080,1074.733,1.582,1.044
0.240000,942091,1000.00,12,0,1,792.010,-15.352,7.399,1074.877,1.754,1.072
0.241000,942092,1000.00,12,0,1,798.111,-9.911,7.525,1072.643,-0.515,1.072
0.242000,942093,1000.00,12,0,1,806.326,-0.550,7.520,1071.778,-1.687,1.098
0.243000,942094,1000.00,12,0,1,807.959,-0.255,7.520,1072.067,-1.046,1.105
0.244000,942095,1000.00,12,0,1,808.055,-0.523,7.518,1073.868,0.420,1.063
0.245000,942096,1000.00,12,0,1,811.827,0.898,7.483,1073.964,1.049,1.051
0.246000,942097,1000.00,12,0,1,818.408,6.878,7.540,1073.196,-0.074,1.040
0.247000,942098,1000.00,12,0,1,819.417,6.909,7.588,1073.075,-0.054,1.040
0.248000,942099,1000.00,12,0,1,817.688,4.412,7.603,1072.739,-0.259,1.033
0.249000,942100,1000.00,12,0,1,812.283,-0.294,7.598,1073.075,0.004,1.017
0.250000,942101,1000.00,12,0,1,806.638,-4.899,7.619,1072.235,-0.316,1.016
0.251000,942102,1000.00,12,0,1,806.278,-3.974,7.640,1072.259,-0.606,1.020
0.252000,942103,1000.00,12,0,1,812.523,3.165,7.642,1072.835,0.336,1.021
0.253000,942104,1000.00,12,0,1,813.724,6.410,7.678,1073.292,0.603,1.024
0.254000,942105,1000.00,12,0,1,808.560,1.869,7.653,1072.955,0.446,1.026
0.255000,942106,1000.00,12,0,1,804.428,-1.714,7.636,1071.706,-0.767,1.024
0.256000,942107,1000.00,12,0,1,801.282,-3.583,7.652,1071.106,-1.351,1.030
0.257000,942108,1000.00,12,0,1,799.672,-4.622,7.671,1072.955,0.236,1.023
0.258000,942109,1000.00,12,0,1,803.251,-1.309,7.664,1072.691,0.529,1.019
0.259000,942110,1000.00,12,0,1,809.737,4.242,7.653,1071.826,-0.740,1.022
0.260000,942111,1000.00,12,0,1,813.724,6.719,7.663,1074.060,1.038,1.024
0.261000,942112,1000.00,12,0,1,818.673,8.173,7.733,1074.373,1.737,1.051
0.262000,942113,1000.00,12,0,1,823.188,9.810,7.846,1075.838,1.984,1.088
0.263000,942114,1000.00,12,0,1,830.058,11.832,8.021,1074.180,1.169,1.097
0.264000,942115,1000.00,12,0,1,814.397,-1.594,8.021,1073.051,-1.046,1.106
0.265000,942116,1000.00,12,0,1,804.140,-16.653,8.359,1072.667,-0.737,1.110
0.266000,942117,1000.00,12,0,1,808.512,-10.149,8.478,1073.628,-0.277,1.094
0.267000,942118,1000.00,12,0,1,811.250,-6.082,8.517,1072.379,-0.582,1.076
0.268000,942119,1000.00,12,0,1,811.442,-4.611,8.536,1073.268,-0.487,1.078
0.269000,942120,1000.00,12,0,1,803.948,-8.468,8.601,1074.108,1.029,1.078
0.270000,942121,1000.00,12,0,1,801.786,-10.199,8.718,1072.955,-0.125,1.073
0.271000,942122,1000.00,12,0,1,794.316,-10.981,8.854,1071.995,-1.066,1.066
0.272000,942123,1000.00,12,0,1,791.073,-13.206,9.042,1072.739,-0.276,1.046
0.273000,942124,1000.00,12,0,1,801.354,-0.030,8.882,1074.228,1.064,1.046
0.274000,942125,1000.00,12,0,1,802.363,4.743,8.864,1073.700,0.883,1.052
0.275000,942126,1000.00,12,0,1,799.024,1.302,8.844,1072.259,-0.875,1.056
0.276000,942127,1000.00,12,0,1,801.954,4.357,8.864,1073.412,-0.007,1.053
0.277000,942128,1000.00,12,0,1,807.119,8.713,8.943,1073.316,0.256,1.052
0.278000,942129,1000.00,12,0,1,807.911,8.804,9.016,1071.586,-1.483,1.067
0.279000,942130,1000.00,12,0,1,807.839,6.182,8.876,1073.220,-0.443,0.984
0.280000,942131,1000.00,12,0,1,807.599,4.404,8.713,1073.196,0.325,0.942
0.281000,942132,1000.00,12,0,1,807.671,2.242,8.568,1073.892,0.101,0.943
0.282000,942133,1000.00,12,0,1,807.599,0.787,8.401,1072.187,-0.567,0.945
0.283000,942134,1000.00,12,0,1,813.148,3.378,8.274,1074.613,0.273,0.942
0.284000,942135,1000.00,12,0,1,817.568,6.824,8.246,1075.333,2.209,0.989
0.285000,942136,1000.00,12,0,1,818.360,5.464,8.281,1073.652,-0.198,0.957
0.286000,942137,1000.00,12,0,1,815.334,1.854,8.134,1072.091,-1.353,0.934
0.287000,942138,1000.00,12,0,1,810.626,-3.051,7.685,1072.355,-1.207,0.932
0.288000,942139,1000.00,12,0,1,811.755,-2.287,6.864,1072.715,-0.404,0.933
0.289000,942140,1000.00,12,0,1,815.526,2.593,6.684,1073.700,0.512,0.909
0.290000,942141,1000.00,12,0,1,815.141,3.135,6.337,1070.794,-1.379,0.896
0.291000,942142,1000.00,12,0,1,810.890,0.127,6.180,1070.890,-1.993,0.937
0.292000,942143,1000.00,12,0,1,806.326,-3.218,6.196,1071.538,-0.321,0.907
0.293000,942144,1000.00,12,0,1,799.000,-7.594,6.288,1073.460,0.978,0.905
0.294000,942145,1000.00,12,0,1,794.748,-10.268,6.453,1075.261,2.892,0.992
0.295000,942146,1000.00,12,0,1,794.700,-7.698,6.543,1074.180,1.719,1.010
0.296000,942147,1000.00,12,0,1,796.021,-4.836,6.507,1072.499,-0.407,1.012
0.297000,942148,1000.00,12,0,1,798.567,-1.598,6.437,1072.739,-0.313,1.013
0.298000,942149,1000.00,12,0,1,799.624,-0.176,6.407,1072.451,-0.470,1.014
0.299000,942150,1000.00,12,0,1,804.885,2.954,6.420,1070.769,-1.821,1.046
0.300000,942151,1000.00,12,0,1,811.610,8.213,6.487,1072.547,-0.744,1.051
0.301000,942152,1000.00,12,0,1,813.412,7.669,6.553,1072.115,-0.006,1.047
0.302000,942153,1000.00,12,0,1,813.388,4.846,6.574,1072.643,-0.489,1.048
0.303000,942154,1000.00,12,0,1,819.297,6.996,6.586,1074.060,1.427,1.064
0.304000,942155,1000.00,12,0,1,825.158,10.632,6.750,1073.051,0.387,1.064
0.305000,942156,1000.00,12,0,1,824.798,7.982,6.840,1074.036,0.746,1.063
0.306000,942157,1000.00,12,0,1,820.690,2.270,6.828,1073.940,1.216,1.060
0.307000,942158,1000.00,12,0,1,814.277,-3.992,6.820,1072.427,-0.569,1.063
0.308000,942159,1000.00,12,0,1,815.982,-3.318,6.834,1071.995,-0.795,1.066
0.309000,942160,1000.00,12,0,1,813.076,-2.593,6.817,1072.187,-0.488,1.063
0.310000,942161,1000.00,12,0,1,811.731,-4.300,6.778,1074.325,1.359,1.070
0.311000,942162,1000.00,12,0,1,806.446,-5.117,6.718,1074.949,2.265,1.090
0.312000,942163,1000.00,12,0,1,802.026,-8.526,6.683,1074.829,1.541,1.075
0.313000,942164,1000.00,12,0,1,800.273,-6.814,6.541,1075.574,1.940,1.098
0.314000,942165,1000.00,12,0,1,802.146,-3.651,6.558,1072.955,-0.231,1.088
0.315000,942166,1000.00,12,0,1,800.561,-2.531,6.131,1073.124,-1.133,1.095
0.316000,942167,1000.00,12,0,1,796.958,-5.283,6.007,1071.322,-1.563,1.116
0.317000,942168,1000.00,12,0,1,796.285,-5.455,5.995,1072.643,-1.562,1.135
0.318000,942169,1000.00,12,0,1,800.008,-1.818,5.965,1072.067,-0.570,1.136
0.319000,942170,1000.00,12,0,1,803.491,1.057,5.846,1072.571,-1.207,1.139
0.320000,942171,1000.00,12,0,1,805.221,1.629,5.669,1073.484,0.419,1.141
0.321000,942172,1000.00,12,0,1,805.005,-0.086,5.453,1073.412,0.026,1.131
0.322000,942173,1000.00,12,0,1,805.509,-1.055,5.125,1074.421,0.699,1.134
0.323000,942174,1000.00,12,0,1,808.824,0.517,5.126,1074.709,1.162,1.136
0.324000,942175,1000.00,12,0,1,812.595,3.271,5.102,1074.180,0.210,1.130
0.325000,942176,1000.00,12,0,1,812.163,2.271,5.109,1073.844,0.019,1.123
0.326000,942177,1000.00,12,0,1,809.112,-0.931,5.074,1075.069,0.664,1.127
0.327000,942178,1000.00,12,0,1,809.040,-1.070,4.924,1073.820,0.235,1.127
0.328000,942179,1000.00,12,0,1,810.313,1.413,4.768,1074.108,-0.433,1.109
0.329000,942180,1000.00,12,0,1,810.530,2.670,4.703,1073.964,0.290,1.108
0.330000,942181,1000.00,12,0,1,808.848,2.557,4.675,1074.493,0.117,1.107
0.331000,942182,1000.00,12,0,1,811.466,5.186,4.722,1075.093,1.086,1.117
0.332000,942183,1000.00,12,0,1,809.184,5.497,4.784,1073.460,-0.420,1.116
0.333000,942184,1000.00,12,0,1,807.671,3.262,4.782,1073.124,-1.089,1.126
0.334000,942185,1000.00,12,0,1,812.259,7.810,4.813,1073.508,-0.313,1.083
0.335000,942186,1000.00,12,0,1,810.385,6.801,4.846,1075.261,0.845,1.089
0.336000,942187,1000.00,12,0,1,805.221,0.408,4.840,1075.982,1.845,1.103
0.337000,942188,1000.00,12,0,1,803.900,-1.531,4.825,1073.868,-0.417,1.092
0.338000,942189,1000.00,12,0,1,805.341,-1.155,4.817,1073.172,-1.460,1.109
0.339000,942190,1000.00,12,0,1,811.370,2.691,4.818,1074.541,-0.171,1.107
0.340000,942191,1000.00,12,0,1,814.853,4.694,4.844,1074.565,0.077,1.090
0.341000,942192,1000.00,12,0,1,808.560,-2.605,4.858,1073.748,-0.882,1.060
0.342000,942193,1000.00,12,0,1,797.702,-13.942,5.223,1074.469,-0.396,1.061
0.343000,942194,1000.00,12,0,1,800.681,-12.828,5.423,1074.156,-0.312,1.053
0.344000,942195,1000.00,12,0,1,806.254,-5.201,5.277,1073.436,-1.177,0.984
0.345000,942196,1000.00,12,0,1,808.704,-3.154,5.183,1074.397,-0.262,0.954
0.346000,942197,1000.00,12,0,1,809.497,-1.535,5.142,1074.997,0.542,0.956
0.347000,942198,1000.00,12,0,1,810.506,-0.389,5.137,1074.517,0.078,0.955
0.348000,942199,1000.00,12,0,1,808.824,-0.453,5.138,1072.667,-1.359,0.972
0.349000,942200,1000.00,12,0,1,805.990,-2.010,5.128,1074.301,-0.363,0.938
0.350000,942201,1000.00,12,0,1,804.164,-1.982,5.003,1076.054,1.961,0.973
0.351000,942202,1000.00,12,0,1,807.911,2.606,4.898,1076.342,1.793,1.005
0.352000,942203,1000.00,12,0,1,807.431,4.736,4.896,1074.180,0.045,1.003
0.353000,942204,1000.00,12,0,1,805.966,3.310,4.818,1074.829,-0.230,0.983
0.354000,942205,1000.00,12,0,1,807.311,5.153,4.635,1073.244,-0.630,0.985
0.355000,942206,1000.00,12,0,1,803.636,2.761,4.512,1075.117,-0.168,0.980
0.356000,942207,1000.00,12,0,1,801.666,-0.340,4.501,1073.484,-0.094,0.965
0.357000,942208,1000.00,12,0,1,802.435,0.783,4.467,1073.436,-1.545,0.986
0.358000,942209,1000.00,12,0,1,806.878,3.187,4.465,1073.148,-0.638,0.984
0.359000,942210,1000.00,12,0,1,803.323,0.651,4.451,1074.180,-0.442,0.983
0.360000,942211,1000.00,12,0,1,801.402,-4.356,4.452,1073.460,-0.294,0.965
0.361000,942212,1000.00,12,0,1,804.957,-1.355,4.397,1073.676,-0.705,0.916
0.362000,942213,1000.00,12,0,1,797.030,-7.725,4.367,1073.556,-0.343,0.891
0.363000,942214,1000.00,12,0,1,795.757,-11.539,4.561,1074.373,0.118,0.848
0.364000,942215,1000.00,12,0,1,800.129,-5.146,4.590,1073.556,-0.227,0.848
0.365000,942216,1000.00,12,0,1,800.993,-4.041,4.611,1074.349,0.043,0.833
0.366000,942217,1000.00,12,0,1,800.513,-3.391,4.576,1075.429,1.291,0.823
0.367000,942218,1000.00,12,0,1,801.474,-1.823,4.518,1072.307,-1.059,0.807
0.368000,942219,1000.00,12,0,1,806.758,3.738,4.541,1071.706,-2.414,0.873
0.369000,942220,1000.00,12,0,1,805.293,4.724,4.588,1072.499,-0.556,0.859
0.370000,942221,1000.00,12,0,1,802.579,1.802,4.589,1072.619,-0.552,0.861
0.371000,942222,1000.00,12,0,1,802.435,3.328,4.613,1073.268,0.422,0.863
0.372000,942223,1000.00,12,0,1,802.170,3.941,4.644,1072.931,0.272,0.858
0.373000,942224,1000.00,12,0,1,804.765,6.684,4.739,1075.381,1.969,0.887
0.374000,942225,1000.00,12,0,1,803.876,6.933,4.817,1076.030,3.096,0.989
0.375000,942226,1000.00,12,0,1,802.531,4.611,4.850,1075.069,1.381,1.008
0.376000,942227,1000.00,12,0,1,802.146,4.211,4.885,1073.676,0.132,1.004
0.377000,942228,1000.00,12,0,1,801.570,2.692,4.897,1074.012,-0.129,1.003
0.378000,942229,1000.00,12,0,1,799.960,0.584,4.894,1074.084,0.294,1.002
0.379000,942230,1000.00,12,0,1,799.312,-1.315,4.883,1073.027,-0.832,1.008
0.380000,942231,1000.00,12,0,1,803.588,1.068,4.872,1072.139,-1.599,1.033
0.381000,942232,1000.00,12,0,1,806.590,3.115,4.837,1073.820,-0.216,1.022
0.382000,942233,1000.00,12,0,1,807.287,1.654,4.779,1072.451,-0.628,1.024
0.383000,942234,1000.00,12,0,1,806.902,0.002,4.757,1071.634,-1.959,1.050
0.384000,942235,1000.00,12,0,1,809.641,0.541,4.628,1073.748,0.271,1.050
0.385000,942236,1000.00,12,0,1,811.250,1.810,4.534,1074.589,1.376,1.061
0.386000,942237,1000.00,12,0,1,816.559,4.534,4.579,1072.595,-0.449,1.030
0.387000,942238,1000.00,12,0,1,815.598,4.634,4.620,1072.019,-1.228,1.043
0.388000,942239,1000.00,12,0,1,813.364,0.646,4.618,1073.892,0.576,1.026
0.389000,942240,1000.00,12,0,1,810.722,-0.613,4.603,1074.997,1.876,1.059
0.390000,942241,1000.00,12,0,1,803.924,-5.770,4.628,1074.349,1.064,1.070
0.391000,942242,1000.00,12,0,1,799.984,-8.270,4.759,1072.427,-0.634,1.066
0.392000,942243,1000.00,12,0,1,799.216,-6.236,4.420,1073.148,-0.466,1.067
0.393000,942244,1000.00,12,0,1,799.048,-4.474,4.080,1075.598,2.065,1.105
0.394000,942245,1000.00,12,0,1,799.456,-2.139,4.025,1074.613,1.333,1.109
0.395000,942246,1000.00,12,0,1,802.122,0.848,4.002,1072.139,-1.310,1.124
0.396000,942247,1000.00,12,0,1,804.188,3.506,4.026,1071.274,-2.064,1.158
0.397000,942248,1000.00,12,0,1,815.694,11.163,4.324,1072.163,-1.062,1.168
0.398000,942249,1000.00,12,0,1,802.507,2.666,4.340,1072.331,-0.439,1.154
0.399000,942250,1000.00,12,0,1,789.055,-15.575,4.859,1073.820,0.569,1.155
0.400000,942251,1000.00,12,0,1,791.625,-11.367,5.110,1076.030,2.675,1.184
0.401000,942252,1000.00,12,0,1,793.787,-8.250,5.229,1074.637,1.430,1.174
0.402000,942253,1000.00,12,0,1,795.084,-6.945,5.278,1073.892,-0.109,1.174
0.403000,942254,1000.00,12,0,1,797.174,-4.319,5.292,1074.180,0.341,1.174
0.404000,942255,1000.00,12,0,1,801.258,-1.204,5.245,1074.108,0.062,1.171
0.405000,942256,1000.00,12,0,1,803.684,1.967,5.238,1073.628,-0.308,1.172
0.406000,942257,1000.00,12,0,1,807.815,4.261,5.272,1072.883,-0.993,1.180
0.407000,942258,1000.00,12,0,1,808.007,5.690,5.332,1073.508,-0.502,1.162
0.408000,942259,1000.00,12,0,1,805.557,2.386,5.324,1073.556,-0.047,1.158
0.409000,942260,1000.00,12,0,1,806.158,3.443,5.345,1073.628,-0.192,1.157
0.410000,942261,1000.00,12,0,1,810.986,7.799,5.423,1073.268,-0.195,1.156
0.411000,942262,1000.00,12,0,1,806.542,5.816,5.481,1072.907,-0.636,1.156
0.412000,942263,1000.00,12,0,1,800.897,-0.377,5.372,1072.379,-0.811,1.160
0.413000,942264,1000.00,12,0,1,802.363,1.867,5.125,1071.995,-1.093,1.170
0.414000,942265,1000.00,12,0,1,796.646,-0.841,5.074,1072.019,-0.830,1.176
0.415000,942266,1000.00,12,0,1,786.485,-9.752,5.227,1072.763,-0.062,1.176
0.416000,942267,1000.00,12,0,1,786.869,-8.502,5.342,1072.787,0.208,1.162
0.417000,942268,1000.00,12,0,1,791.457,-2.172,5.345,1071.298,-1.017,1.161
0.418000,942269,1000.00,12,0,1,790.712,-1.697,5.324,1073.172,0.151,1.110
0.419000,942270,1000.00,12,0,1,792.874,-0.948,5.283,1073.003,0.932,1.115
0.420000,942271,1000.00,12,0,1,795.180,1.536,5.282,1073.027,0.048,1.112
0.421000,942272,1000.00,12,0,1,796.117,0.845,5.262,1070.938,-0.964,1.119
0.422000,942273,1000.00,12,0,1,798.495,1.841,5.239,1072.499,-0.660,1.122
0.423000,942274,1000.00,12,0,1,802.795,4.150,5.186,1072.931,0.995,1.096
0.424000,942275,1000.00,12,0,1,809.473,8.343,5.228,1072.499,-0.133,1.005
0.425000,942276,1000.00,12,0,1,811.298,8.921,5.338,1072.235,-0.005,0.986
0.426000,942277,1000.00,12,0,1,812.451,7.131,5.400,1071.226,-0.845,0.993
0.427000,942278,1000.00,12,0,1,809.977,4.634,5.426,1072.979,0.367,0.994
0.428000,942279,1000.00,12,0,1,806.110,-0.199,5.426,1072.763,1.108,1.006
0.429000,942280,1000.00,12,0,1,802.098,-2.836,5.437,1074.204,1.279,1.015
0.430000,942281,1000.00,12,0,1,797.030,-6.117,5.503,1073.820,1.908,1.026
0.431000,942282,1000.00,12,0,1,796.381,-5.237,5.536,1072.907,0.061,1.025
0.432000,942283,1000.00,12,0,1,795.300,-3.130,5.548,1071.898,-0.308,1.022
0.433000,942284,1000.00,12,0,1,796.381,-1.182,5.551,1071.298,-1.154,0.998
0.434000,942285,1000.00,12,0,1,797.991,2.413,5.561,1073.388,0.738,1.002
0.435000,942286,1000.00,12,0,1,802.939,6.360,5.627,1072.499,0.642,0.987
0.436000,942287,1000.00,12,0,1,799.000,4.508,5.627,1071.322,-1.151,0.999
0.437000,942288,1000.00,12,0,1,796.838,-0.348,5.589,1071.394,-0.625,0.988
0.438000,942289,1000.00,12,0,1,805.125,6.311,5.659,1071.802,-0.389,0.986
0.439000,942290,1000.00,12,0,1,807.911,8.319,5.779,1071.226,-0.500,0.952
0.440000,942291,1000.00,12,0,1,810.097,6.278,5.790,1070.697,-1.155,0.954
0.441000,942292,1000.00,12,0,1,816.270,9.329,5.822,1073.484,1.151,0.964
0.442000,942293,1000.00,12,0,1,813.556,4.758,5.794,1072.019,0.741,0.967
0.443000,942294,1000.00,12,0,1,803.924,-6.608,5.835,1071.754,-0.740,0.928
0.444000,942295,1000.00,12,0,1,802.411,-10.116,6.000,1073.700,1.561,0.935
0.445000,942296,1000.00,12,0,1,803.395,-7.824,6.100,1073.508,1.245,0.933
0.446000,942297,1000.00,12,0,1,802.843,-7.963,6.183,1073.099,0.518,0.889
0.447000,942298,1000.00,12,0,1,803.395,-6.229,6.043,1074.156,1.260,0.895
0.448000,942299,1000.00,12,0,1,804.164,-4.067,6.058,1072.067,-0.228,0.893
0.449000,942300,1000.00,12,0,1,800.585,-5.100,5.690,1071.995,-1.064,0.902
0.450000,942301,1000.00,12,0,1,792.586,-10.086,5.641,1072.691,0.242,0.820
0.451000,942302,1000.00,12,0,1,790.544,-10.086,5.700,1071.538,-0.744,0.801
0.452000,942303,1000.00,12,0,1,792.754,-4.405,5.650,1073.220,0.352,0.803
0.453000,942304,1000.00,12,0,1,797.270,1.477,5.620,1072.547,0.680,0.807
0.454000,942305,1000.00,12,0,1,792.898,0.684,5.619,1071.947,-0.711,0.813
0.455000,942306,1000.00,12,0,1,788.911,-3.604,5.635,1072.979,0.640,0.817
0.456000,942307,1000.00,12,0,1,782.978,-6.182,5.670,1072.259,0.025,0.805
0.457000,942308,1000.00,12,0,1,782.834,-6.881,5.697,1071.418,-0.901,0.812
0.458000,942309,1000.00,12,0,1,788.118,-0.351,5.687,1072.667,0.112,0.812
0.459000,942310,1000.00,12,0,1,792.394,3.417,5.687,1073.556,1.098,0.826
0.460000,942311,1000.00,12,0,1,795.661,5.223,5.627,1073.268,0.623,0.830
0.461000,942312,1000.00,12,0,1,799.888,7.342,5.663,1073.508,0.484,0.828
0.462000,942313,1000.00,12,0,1,800.297,6.125,5.728,1073.292,0.327,0.822
0.463000,942314,1000.00,12,0,1,799.912,3.556,5.744,1074.421,0.778,0.814
0.464000,942315,1000.00,12,0,1,805.509,6.310,5.812,1072.691,-0.186,0.806
0.465000,942316,1000.00,12,0,1,813.316,12.261,5.906,1071.538,-2.014,0.855
0.466000,942317,1000.00,12,0,1,809.160,7.913,5.890,1073.364,-0.054,0.855
0.467000,942318,1000.00,12,0,1,801.930,-0.797,5.883,1072.619,-0.193,0.843
0.468000,942319,1000.00,12,0,1,800.969,-1.617,5.883,1073.604,-0.016,0.843
0.469000,942320,1000.00,12,0,1,802.387,0.947,5.883,1073.556,0.759,0.839
0.470000,942321,1000.00,12,0,1,802.603,2.260,5.887,1072.907,-0.416,0.841
0.471000,942322,1000.00,12,0,1,801.065,2.046,5.893,1072.667,-0.269,0.831
0.472000,942323,1000.00,12,0,1,801.258,2.611,5.899,1073.700,0.374,0.827
0.473000,942324,1000.00,12,0,1,804.164,5.885,5.928,1073.244,0.442,0.818
0.474000,942325,1000.00,12,0,1,801.762,4.502,5.845,1073.676,0.258,0.818
0.475000,942326,1000.00,12,0,1,796.670,-0.811,5.708,1073.916,0.792,0.826
0.476000,942327,1000.00,12,0,1,795.541,-2.246,5.627,1073.220,-0.070,0.817
0.477000,942328,1000.00,12,0,1,799.456,0.801,5.590,1074.541,0.702,0.822
0.478000,942329,1000.00,12,0,1,799.144,0.632,5.591,1073.316,0.189,0.807
0.479000,942330,1000.00,12,0,1,794.340,-5.121,5.623,1072.691,-1.262,0.806
0.480000,942331,1000.00,12,0,1,793.715,-7.073,5.645,1073.388,-0.171,0.760
0.481000,942332,1000.00,12,0,1,796.886,-4.526,5.633,1076.030,1.598,0.793
0.482000,942333,1000.00,12,0,1,800.537,-1.984,5.623,1075.189,1.482,0.819
0.483000,942334,1000.00,12,0,1,801.642,-1.474,5.624,1073.340,-1.149,0.819
0.484000,942335,1000.00,12,0,1,802.675,-1.789,5.619,1071.971,-2.026,0.861
0.485000,942336,1000.00,12,0,1,803.275,-1.332,5.550,1073.556,-0.957,0.867
0.486000,942337,1000.00,12,0,1,803.371,-1.517,5.518,1074.757,0.791,0.859
0.487000,942338,1000.00,12,0,1,803.467,-0.957,5.519,1075.381,0.995,0.866
0.488000,942339,1000.00,12,0,1,805.870,1.494,5.451,1074.349,0.248,0.865
0.489000,942340,1000.00,12,0,1,802.891,0.740,5.323,1073.604,-0.760,0.869
0.490000,942341,1000.00,12,0,1,795.228,-5.275,5.301,1071.634,-2.048,0.901
0.491000,942342,1000.00,12,0,1,794.796,-4.617,5.176,1071.082,-2.629,0.961
0.492000,942343,1000.00,12,0,1,794.652,-1.392,5.136,1071.706,-1.442,0.977
0.493000,942344,1000.00,12,0,1,793.091,-1.601,5.055,1071.394,-1.216,0.986
0.494000,942345,1000.00,12,0,1,798.207,3.763,4.877,1071.706,-0.924,0.970
0.495000,942346,1000.00,12,0,1,801.354,7.915,4.880,1070.313,-1.369,0.974
0.496000,942347,1000.00,12,0,1,800.633,6.165,4.828,1072.715,-0.005,0.971
0.497000,942348,1000.00,12,0,1,800.537,4.786,4.795,1073.580,2.002,0.995
0.498000,942349,1000.00,12,0,1,798.904,2.187,4.770,1073.244,0.749,1.001
0.499000,942350,1000.00,12,0,1,798.207,-0.331,4.716,1072.643,0.520,0.992
0.500000,942351,1000.00,12,0,1,797.727,-1.698,4.501,1071.298,-0.950,1.000
0.501000,942352,1000.00,12,0,1,797.775,-3.124,4.292,1073.412,0.534,0.998
0.502000,942353,1000.00,12,0,1,795.084,-5.721,4.323,1075.429,2.814,1.073
0.503000,942354,1000.00,12,0,1,791.914,-9.288,4.513,1072.979,0.437,1.070
0.504000,942355,1000.00,12,0,1,795.228,-6.422,4.603,1072.307,-0.865,1.073
0.505000,942356,1000.00,12,0,1,800.153,-0.855,4.576,1072.187,-0.469,1.071
0.506000,942357,1000.00,12,0,1,804.428,2.894,4.510,1071.346,-1.193,1.084
0.507000,942358,1000.00,12,0,1,808.440,6.551,4.501,1071.658,-0.789,1.082
0.508000,942359,1000.00,12,0,1,803.515,2.996,4.520,1069.713,-1.724,1.109
0.509000,942360,1000.00,12,0,1,798.783,-2.111,4.504,1071.322,-0.911,1.106
0.510000,942361,1000.00,12,0,1,799.192,-0.259,4.443,1071.947,1.009,1.112
0.511000,942362,1000.00,12,0,1,801.402,2.957,4.341,1071.874,0.308,1.110
0.512000,942363,1000.00,12,0,1,801.089,4.089,4.292,1072.115,0.956,1.118
0.513000,942364,1000.00,12,0,1,801.185,4.231,4.305,1072.859,1.284,1.127
0.514000,942365,1000.00,12,0,1,797.558,2.121,4.222,1073.868,2.145,1.167
0.515000,942366,1000.00,12,0,1,798.399,1.654,3.856,1070.025,-0.852,1.138
0.516000,942367,1000.00,12,0,1,798.471,2.866,3.713,1071.274,-1.208,1.151
0.517000,942368,1000.00,12,0,1,793.331,-2.366,3.726,1071.418,0.595,1.153
0.518000,942369,1000.00,12,0,1,793.211,-3.778,3.757,1072.499,0.210,1.154
0.519000,942370,1000.00,12,0,1,792.226,-3.742,3.792,1074.445,2.625,1.207
0.520000,942371,1000.00,12,0,1,792.154,-5.295,3.852,1073.868,1.596,1.227
0.521000,942372,1000.00,12,0,1,795.156,-2.556,3.858,1072.835,0.252,1.227
0.522000,942373,1000.00,12,0,1,802.026,2.108,3.852,1073.748,0.721,1.230
0.523000,942374,1000.00,12,0,1,803.540,3.567,3.795,1074.277,1.194,1.240
0.524000,942375,1000.00,12,0,1,798.976,-2.262,3.754,1071.947,-0.759,1.244
0.525000,942376,1000.00,12,0,1,796.429,-5.314,3.827,1073.556,-0.296,1.239
0.526000,942377,1000.00,12,0,1,799.600,-2.401,3.829,1074.036,1.267,1.252
0.527000,942378,1000.00,12,0,1,799.864,-0.615,3.828,1072.739,-0.619,1.251
0.528000,942379,1000.00,12,0,1,797.366,-2.380,3.842,1075.141,1.348,1.266
0.529000,942380,1000.00,12,0,1,798.855,-0.333,3.773,1074.541,1.436,1.269
0.530000,942381,1000.00,12,0,1,794.964,-1.024,3.641,1072.307,-1.252,1.281
0.531000,942382,1000.00,12,0,1,793.283,-2.582,3.603,1071.706,-1.593,1.281
0.532000,942383,1000.00,12,0,1,793.523,0.459,3.593,1073.580,-0.041,1.264
0.533000,942384,1000.00,12,0,1,794.003,1.623,3.594,1073.820,0.780,1.258
0.534000,942385,1000.00,12,0,1,797.102,5.309,3.663,1070.025,-2.573,1.278
0.535000,942386,1000.00,12,0,1,799.240,7.526,3.810,1070.193,-2.997,1.340
0.536000,942387,1000.00,12,0,1,799.024,6.543,3.915,1072.379,-0.110,1.335
0.537000,942388,1000.00,12,0,1,797.174,3.906,3.951,1072.355,-0.046,1.328
0.538000,942389,1000.00,12,0,1,800.081,4.271,3.992,1072.475,-0.123,1.327
0.539000,942390,1000.00,12,0,1,799.312,3.459,4.020,1073.436,0.669,1.326
0.540000,942391,1000.00,12,0,1,793.955,-3.531,3.982,1072.715,0.139,1.295
0.541000,942392,1000.00,12,0,1,796.477,-3.186,3.953,1071.850,-0.962,1.247
0.542000,942393,1000.00,12,0,1,802.194,1.710,3.956,1070.313,-1.976,1.262
0.543000,942394,1000.00,12,0,1,803.467,1.794,3.958,1071.874,-0.956,1.258
0.544000,942395,1000.00,12,0,1,806.110,2.187,3.934,1072.763,0.729,1.255
0.545000,942396,1000.00,12,0,1,810.770,5.291,3.845,1072.451,0.135,1.240
0.546000,942397,1000.00,12,0,1,818.528,10.243,4.015,1073.748,1.215,1.252
0.547000,942398,1000.00,12,0,1,798.279,-4.809,4.016,1073.075,1.018,1.228
0.548000,942399,1000.00,12,0,1,784.107,-22.090,5.078,1072.307,-0.192,1.224
0.549000,942400,1000.00,12,0,1,791.289,-11.086,5.315,1071.947,-0.116,1.222
0.550000,942401,1000.00,12,0,1,794.219,-4.197,5.342,1073.604,0.963,1.222
0.551000,942402,1000.00,12,0,1,794.340,-2.659,5.337,1072.427,0.753,1.224
0.552000,942403,1000.00,12,0,1,790.448,-2.943,5.292,1070.601,-1.532,1.178
0.553000,942404,1000.00,12,0,1,788.695,-4.263,5.162,1071.947,-0.165,1.176
0.554000,942405,1000.00,12,0,1,793.715,2.254,5.091,1073.172,1.265,1.184
0.555000,942406,1000.00,12,0,1,789.752,0.743,5.091,1071.730,0.010,1.182
0.556000,942407,1000.00,12,0,1,784.179,-4.926,5.122,1071.754,-0.432,1.171
0.557000,942408,1000.00,12,0,1,785.500,-3.260,5.058,1075.093,2.352,1.212
0.558000,942409,1000.00,12,0,1,785.860,-1.825,5.047,1073.099,1.271,1.201
0.559000,942410,1000.00,12,0,1,789.680,0.373,5.039,1072.355,-0.933,1.201
0.560000,942411,1000.00,12,0,1,796.718,6.380,5.119,1072.235,-0.226,1.193
0.561000,942412,1000.00,12,0,1,806.302,12.453,5.397,1072.787,-0.434,1.194
0.562000,942413,1000.00,12,0,1,816.415,18.819,5.990,1072.475,-0.143,1.187
0.563000,942414,1000.00,12,0,1,793.355,-0.870,5.961,1073.075,-0.162,1.173
0.564000,942415,1000.00,12,0,1,787.205,-14.843,6.313,1072.307,-0.293,1.134
0.565000,942416,1000.00,12,0,1,796.501,-1.467,6.312,1074.277,0.696,1.132
0.566000,942417,1000.00,12,0,1,802.218,2.843,6.312,1073.940,1.267,1.133
0.567000,942418,1000.00,12,0,1,802.098,4.100,6.329,1073.580,0.084,1.130
0.568000,942419,1000.00,12,0,1,798.351,0.438,6.307,1074.301,0.950,1.137
0.569000,942420,1000.00,12,0,1,797.847,0.056,6.285,1072.019,-0.756,1.080
0.570000,942421,1000.00,12,0,1,796.261,0.807,6.241,1072.619,-1.035,1.067
0.571000,942422,1000.00,12,0,1,796.525,0.843,6.232,1073.436,0.723,1.071
0.572000,942423,1000.00,12,0,1,790.424,-1.348,6.227,1072.643,-0.405,1.068
0.573000,942424,1000.00,12,0,1,789.944,-3.231,6.224,1071.874,-0.793,1.060
0.574000,942425,1000.00,12,0,1,790.592,0.744,6.216,1070.097,-2.230,1.101
0.575000,942426,1000.00,12,0,1,787.806,-2.023,6.177,1071.754,-1.000,1.109
0.576000,942427,1000.00,12,0,1,790.376,0.317,6.168,1072.163,0.307,1.095
0.577000,942428,1000.00,12,0,1,793.355,3.348,6.186,1074.036,1.090,1.103
0.578000,942429,1000.00,12,0,1,792.538,1.636,6.181,1072.883,0.943,1.094
0.579000,942430,1000.00,12,0,1,793.643,1.010,6.183,1074.060,0.500,1.078
0.580000,942431,1000.00,12,0,1,794.580,0.833,6.182,1072.667,0.381,1.064
0.581000,942432,1000.00,12,0,1,794.219,-0.856,6.172,1072.955,-0.758,1.046
0.582000,942433,1000.00,12,0,1,796.622,-0.382,6.172,1074.108,0.991,1.055
0.583000,942434,1000.00,12,0,1,794.940,-1.713,6.173,1074.180,0.651,1.053
0.584000,942435,1000.00,12,0,1,795.276,-3.286,6.144,1073.099,-0.304,0.989
0.585000,942436,1000.00,12,0,1,797.486,-0.529,6.052,1072.091,-1.244,0.911
0.586000,942437,1000.00,12,0,1,796.862,-0.998,5.983,1074.637,0.614,0.915
0.587000,942438,1000.00,12,0,1,797.462,-0.318,5.957,1073.940,1.121,0.929
0.588000,942439,1000.00,12,0,1,796.766,0.368,5.927,1071.586,-1.821,0.964
0.589000,942440,1000.00,12,0,1,796.862,0.779,5.908,1073.556,0.080,0.959
0.590000,942441,1000.00,12,0,1,795.036,1.009,5.888,1072.379,-0.092,0.959
0.591000,942442,1000.00,12,0,1,792.466,-0.686,5.872,1072.163,-1.001,0.960
0.592000,942443,1000.00,12,0,1,790.640,-0.745,5.868,1071.346,-0.777,0.925
0.593000,942444,1000.00,12,0,1,790.064,-0.296,5.862,1073.724,0.510,0.918
0.594000,942445,1000.00,12,0,1,790.136,0.848,5.855,1072.235,0.573,0.916
0.595000,942446,1000.00,12,0,1,789.391,0.751,5.808,1073.460,0.046,0.915
0.596000,942447,1000.00,12,0,1,790.592,1.444,5.628,1072.619,0.670,0.904
0.597000,942448,1000.00,12,0,1,790.761,1.739,5.593,1072.739,-0.542,0.896
0.598000,942449,1000.00,12,0,1,790.280,0.082,4.639,1073.268,0.575,0.899
0.599000,942450,1000.00,12,0,1,792.082,0.641,4.367,1072.283,-0.571,0.903
0.600000,942451,1000.00,12,0,1,793.979,1.278,4.330,1071.826,-1.200,0.908
0.601000,942452,1000.00,12,0,1,794.340,0.307,4.314,1072.835,-0.131,0.902
0.602000,942453,1000.00,12,0,1,796.093,0.250,4.294,1072.547,-0.293,0.877
0.603000,942454,1000.00,12,0,1,797.678,0.857,4.253,1073.316,0.209,0.877
0.604000,942455,1000.00,12,0,1,794.316,-2.534,4.256,1073.796,0.769,0.865
0.605000,942456,1000.00,12,0,1,794.268,-3.799,4.289,1073.460,0.430,0.867
0.606000,942457,1000.00,12,0,1,796.862,-0.464,4.232,1073.460,0.223,0.866
0.607000,942458,1000.00,12,0,1,796.477,-0.140,4.207,1073.075,0.138,0.800
0.608000,942459,1000.00,12,0,1,796.165,0.007,4.199,1072.163,-0.745,0.786
0.609000,942460,1000.00,12,0,1,796.357,1.294,4.203,1072.067,-0.650,0.781
0.610000,942461,1000.00,12,0,1,793.787,0.278,4.105,1073.027,0.298,0.781
0.611000,942462,1000.00,12,0,1,791.481,-0.945,3.710,1074.445,1.688,0.814
0.612000,942463,1000.00,12,0,1,788.767,-1.685,2.596,1073.027,0.654,0.819
0.613000,942464,1000.00,12,0,1,789.175,-0.658,2.595,1072.067,-0.753,0.826
0.614000,942465,1000.00,12,0,1,790.592,2.044,1.553,1072.211,-0.347,0.826
0.615000,942466,1000.00,12,0,1,790.736,2.375,1.575,1072.835,0.113,0.821
0.616000,942467,1000.00,12,0,1,791.697,2.808,1.574,1073.075,0.438,0.803
0.617000,942468,1000.00,12,0,1,789.487,0.809,1.468,1072.379,-0.276,0.804
0.618000,942469,1000.00,12,0,1,790.112,-0.518,1.468,1071.418,-1.222,0.811
0.619000,942470,1000.00,12,0,1,791.986,0.984,1.475,1071.226,-1.369,0.827
0.620000,942471,1000.00,12,0,1,789.463,-2.258,1.505,1072.235,-0.437,0.817
0.621000,942472,1000.00,12,0,1,792.466,-1.665,1.518,1071.971,-0.293,0.811
0.622000,942473,1000.00,12,0,1,794.652,0.650,1.509,1073.340,0.386,0.811
0.623000,942474,1000.00,12,0,1,794.364,-1.190,1.448,1073.244,0.911,0.814
0.624000,942475,1000.00,12,0,1,794.460,-1.459,1.459,1070.313,-1.920,0.798
0.625000,942476,1000.00,12,0,1,796.309,-0.380,1.432,1070.986,-1.630,0.818
0.626000,942477,1000.00,12,0,1,794.700,-0.950,1.437,1072.475,0.525,0.820
0.627000,942478,1000.00,12,0,1,794.460,-1.558,1.375,1071.995,0.150,0.806
0.628000,942479,1000.00,12,0,1,793.835,-0.500,1.357,1072.283,0.346,0.796
0.629000,942480,1000.00,12,0,1,793.715,-0.041,1.349,1071.562,0.098,0.793
0.630000,942481,1000.00,12,0,1,795.228,2.540,1.391,1072.091,0.233,0.792
0.631000,942482,1000.00,12,0,1,793.042,2.125,1.418,1072.787,1.285,0.806
0.632000,942483,1000.00,12,0,1,789.535,-0.645,1.420,1073.532,1.619,0.826
0.633000,942484,1000.00,12,0,1,791.145,1.425,1.414,1073.556,1.701,0.855
0.634000,942485,1000.00,12,0,1,795.829,6.140,1.593,1074.949,2.263,0.912
0.635000,942486,1000.00,12,0,1,795.108,5.955,1.800,1073.220,1.115,0.909
0.636000,942487,1000.00,12,0,1,788.190,-1.128,1.802,1074.036,0.507,0.907
0.637000,942488,1000.00,12,0,1,786.365,-4.110,1.893,1073.604,0.903,0.902
0.638000,942489,1000.00,12,0,1,791.817,0.478,1.893,1072.835,-0.698,0.871
0.639000,942490,1000.00,12,0,1,794.724,2.938,1.935,1074.517,0.737,0.877
0.640000,942491,1000.00,12,0,1,794.316,0.845,1.933,1073.940,0.506,0.880
0.641000,942492,1000.00,12,0,1,792.826,-1.733,1.947,1070.073,-3.165,0.977
0.642000,942493,1000.00,12,0,1,794.219,-2.073,1.966,1071.370,-2.495,1.033
0.643000,942494,1000.00,12,0,1,793.859,-2.318,1.992,1072.379,-0.438,1.032
0.644000,942495,1000.00,12,0,1,790.544,-5.797,2.151,1071.778,-1.146,1.041
0.645000,942496,1000.00,12,0,1,789.776,-6.419,2.332,1074.228,0.838,1.048
0.646000,942497,1000.00,12,0,1,794.508,-1.582,2.334,1074.733,1.940,1.079
0.647000,942498,1000.00,12,0,1,796.237,1.613,2.332,1072.139,-0.814,1.083
0.648000,942499,1000.00,12,0,1,799.744,4.183,2.406,1072.763,-0.613,1.083
0.649000,942500,1000.00,12,0,1,803.491,8.438,2.684,1071.706,-0.716,1.085
0.650000,942501,1000.00,12,0,1,797.438,3.770,2.731,1071.442,-1.443,1.091
0.651000,942502,1000.00,12,0,1,791.193,-2.649,2.756,1072.835,0.319,1.092
0.652000,942503,1000.00,12,0,1,786.461,-4.902,2.842,1073.220,0.784,1.096
0.653000,942504,1000.00,12,0,1,785.572,-4.996,2.926,1075.309,2.152,1.137
0.654000,942505,1000.00,12,0,1,787.470,-1.235,2.909,1073.412,1.136,1.144
0.655000,942506,1000.00,12,0,1,790.736,2.107,2.874,1072.787,-0.746,1.147
0.656000,942507,1000.00,12,0,1,792.034,3.765,2.923,1073.075,0.229,1.147
0.657000,942508,1000.00,12,0,1,792.994,3.435,2.963,1072.067,-0.978,1.155
0.658000,942509,1000.00,12,0,1,789.944,0.412,2.963,1071.514,-1.369,1.166
0.659000,942510,1000.00,12,0,1,790.496,-1.323,2.963,1071.634,-1.125,1.174
0.660000,942511,1000.00,12,0,1,789.728,-1.694,2.973,1070.721,-1.597,1.194
0.661000,942512,1000.00,12,0,1,792.058,-1.724,2.980,1070.433,-1.802,1.198
0.662000,942513,1000.00,12,0,1,798.855,3.760,3.017,1071.538,-0.576,1.197
0.663000,942514,1000.00,12,0,1,805.966,8.597,3.252,1072.427,0.550,1.195
0.664000,942515,1000.00,12,0,1,807.167,8.216,3.441,1072.475,0.545,1.196
0.665000,942516,1000.00,12,0,1,809.785,7.546,3.587,1073.099,0.981,1.204
0.666000,942517,1000.00,12,0,1,807.119,4.820,3.630,1071.706,0.013,1.202
0.667000,942518,1000.00,12,0,1,800.201,-2.816,3.650,1071.778,-0.441,1.203
0.668000,942519,1000.00,12,0,1,800.585,-3.067,3.675,1072.427,0.613,1.194
0.669000,942520,1000.00,12,0,1,793.883,-5.771,3.762,1073.940,1.605,1.200
0.670000,942521,1000.00,12,0,1,783.746,-14.430,4.267,1073.940,1.894,1.228
0.671000,942522,1000.00,12,0,1,780.143,-14.385,4.722,1074.108,1.382,1.243
0.672000,942523,1000.00,12,0,1,788.719,-4.720,4.768,1073.412,0.914,1.248
0.673000,942524,1000.00,12,0,1,790.761,1.797,4.772,1074.853,1.434,1.258
0.674000,942525,1000.00,12,0,1,786.701,-2.053,4.776,1072.619,0.221,1.229
0.675000,942526,1000.00,12,0,1,786.821,-1.280,4.779,1072.355,-1.222,1.219
0.676000,942527,1000.00,12,0,1,787.350,0.014,4.777,1070.385,-1.750,1.242
0.677000,942528,1000.00,12,0,1,783.290,-3.336,4.795,1070.025,-2.798,1.303
0.678000,942529,1000.00,12,0,1,777.621,-8.338,4.938,1072.331,-0.031,1.302
0.679000,942530,1000.00,12,0,1,776.372,-9.526,5.118,1073.316,1.119,1.312
0.680000,942531,1000.00,12,0,1,782.666,-3.432,5.129,1072.307,0.054,1.311
0.681000,942532,1000.00,12,0,1,783.170,-1.562,5.125,1073.940,1.042,1.307
0.682000,942533,1000.00,12,0,1,786.629,-0.428,5.124,1073.628,1.156,1.297
0.683000,942534,1000.00,12,0,1,794.676,6.832,5.211,1071.922,-0.836,1.280
0.684000,942535,1000.00,12,0,1,794.580,6.565,5.221,1073.340,0.023,1.240
0.685000,942536,1000.00,12,0,1,792.778,2.884,5.169,1072.955,0.403,1.231
0.686000,942537,1000.00,12,0,1,798.399,7.060,5.262,1072.835,-0.501,1.231
0.687000,942538,1000.00,12,0,1,800.801,9.681,5.406,1073.340,0.429,1.226
0.688000,942539,1000.00,12,0,1,800.153,7.945,5.521,1073.916,0.563,1.224
0.689000,942540,1000.00,12,0,1,795.709,4.351,5.540,1074.180,0.957,1.227
0.690000,942541,1000.00,12,0,1,793.235,1.572,5.543,1074.349,0.790,1.230
0.691000,942542,1000.00,12,0,1,792.082,1.915,5.544,1071.298,-1.474,1.165
0.692000,942543,1000.00,12,0,1,789.487,0.491,5.537,1070.625,-2.718,1.175
0.693000,942544,1000.00,12,0,1,787.374,-0.630,5.528,1071.058,-1.356,1.189
0.694000,942545,1000.00,12,0,1,786.581,-0.416,5.467,1072.715,-0.029,1.178
0.695000,942546,1000.00,12,0,1,789.992,2.487,5.402,1070.794,-0.753,1.176
0.696000,942547,1000.00,12,0,1,789.872,3.309,5.418,1071.274,-1.220,1.157
0.697000,942548,1000.00,12,0,1,789.656,1.189,5.416,1071.514,0.059,1.151
0.698000,942549,1000.00,12,0,1,787.662,-0.619,5.384,1071.778,-0.174,1.148
0.699000,942550,1000.00,12,0,1,788.382,-2.194,5.259,1070.890,-0.448,1.145
0.700000,942551,1000.00,12,0,1,791.673,0.210,5.232,1070.697,-0.923,1.135
0.701000,942552,1000.00,12,0,1,793.451,0.420,5.219,1072.571,0.782,1.139
0.702000,942553,1000.00,12,0,1,787.302,-5.455,5.230,1072.067,0.844,1.140
0.703000,942554,1000.00,12,0,1,787.950,-7.316,5.284,1071.826,-0.149,1.099
0.704000,942555,1000.00,12,0,1,796.549,0.941,5.283,1072.643,0.927,1.095
0.705000,942556,1000.00,12,0,1,800.081,4.411,5.312,1074.709,2.175,1.132
0.706000,942557,1000.00,12,0,1,797.630,1.343,5.288,1072.019,0.549,1.135
0.707000,942558,1000.00,12,0,1,794.940,-1.263,5.269,1070.938,-1.733,1.152
0.708000,942559,1000.00,12,0,1,800.585,3.078,5.287,1071.418,-0.375,1.137
0.709000,942560,1000.00,12,0,1,797.198,3.142,5.302,1072.811,0.510,1.128
0.710000,942561,1000.00,12,0,1,788.310,-5.645,5.356,1073.628,1.667,1.130
0.711000,942562,1000.00,12,0,1,785.500,-6.312,5.425,1072.475,0.525,1.104
0.712000,942563,1000.00,12,0,1,788.406,-1.921,5.405,1073.003,0.502,1.103
0.713000,942564,1000.00,12,0,1,785.692,-1.367,5.270,1074.661,2.206,1.144
0.714000,942565,1000.00,12,0,1,784.227,-2.691,5.155,1074.180,1.593,1.163
0.715000,942566,1000.00,12,0,1,787.326,1.312,5.047,1074.829,1.564,1.176
0.716000,942567,1000.00,12,0,1,787.181,1.979,5.008,1075.478,2.056,1.211
0.717000,942568,1000.00,12,0,1,788.022,1.413,4.996,1071.658,-1.216,1.222
0.718000,942569,1000.00,12,0,1,789.632,2.627,4.991,1073.172,-1.240,1.231
0.719000,942570,1000.00,12,0,1,795.156,5.093,4.977,1071.442,-0.967,1.218
0.720000,942571,1000.00,12,0,1,799.816,8.236,4.686,1070.481,-3.198,1.271
0.721000,942572,1000.00,12,0,1,794.892,1.806,4.229,1072.475,-0.453,1.258
0.722000,942573,1000.00,12,0,1,795.469,-1.317,4.180,1073.244,0.251,1.252
0.723000,942574,1000.00,12,0,1,805.605,6.442,4.271,1072.787,-0.181,1.235
0.724000,942575,1000.00,12,0,1,806.086,6.629,4.363,1074.589,1.002,1.243
0.725000,942576,1000.00,12,0,1,794.604,-5.322,4.424,1073.316,0.371,1.232
0.726000,942577,1000.00,12,0,1,793.091,-8.536,4.585,1071.682,-1.732,1.232
0.727000,942578,1000.00,12,0,1,796.357,-3.079,4.582,1070.794,-2.151,1.205
0.728000,942579,1000.00,12,0,1,788.358,-7.867,4.565,1071.634,-1.343,1.220
0.729000,942580,1000.00,12,0,1,781.344,-13.240,4.747,1073.556,0.673,1.214
0.730000,942581,1000.00,12,0,1,783.122,-8.498,4.872,1072.835,0.508,1.216
0.731000,942582,1000.00,12,0,1,787.205,-1.648,4.873,1072.163,-0.618,1.210
0.732000,942583,1000.00,12,0,1,784.875,-0.756,4.874,1072.907,0.379,1.200
0.733000,942584,1000.00,12,0,1,785.572,0.036,4.777,1073.172,0.610,1.197
0.734000,942585,1000.00,12,0,1,786.797,3.220,4.708,1070.914,-1.012,1.206
0.735000,942586,1000.00,12,0,1,787.710,3.637,4.718,1073.244,0.168,1.205
0.736000,942587,1000.00,12,0,1,787.085,3.322,4.635,1073.820,1.937,1.233
0.737000,942588,1000.00,12,0,1,792.826,6.219,4.515,1073.820,0.859,1.238
0.738000,942589,1000.00,12,0,1,798.231,10.531,4.620,1073.340,0.856,1.241
0.739000,942590,1000.00,12,0,1,790.905,2.483,4.592,1074.901,1.363,1.249
0.740000,942591,1000.00,12,0,1,794.628,0.754,4.588,1071.754,-0.484,1.246
0.741000,942592,1000.00,12,0,1,794.580,2.449,4.593,1074.325,-0.083,1.228
0.742000,942593,1000.00,12,0,1,792.418,-3.381,4.617,1072.979,0.706,1.171
0.743000,942594,1000.00,12,0,1,792.898,-2.557,4.630,1071.586,-2.191,1.196
0.744000,942595,1000.00,12,0,1,792.298,-3.782,4.661,1072.307,-0.713,1.200
0.745000,942596,1000.00,12,0,1,793.499,-2.667,4.663,1072.547,-0.506,1.197
0.746000,942597,1000.00,12,0,1,796.910,0.927,4.641,1071.538,-1.241,1.198
0.747000,942598,1000.00,12,0,1,792.538,-1.425,4.642,1071.995,-0.824,1.204
0.748000,942599,1000.00,12,0,1,793.763,-1.172,4.645,1073.460,0.538,1.206
0.749000,942600,1000.00,12,0,1,793.067,1.221,4.637,1073.508,0.982,1.212
0.750000,942601,1000.00,12,0,1,794.147,1.799,4.644,1071.922,-0.744,1.210
0.751000,942602,1000.00,12,0,1,791.025,1.637,4.650,1072.571,-0.241,1.205
0.752000,942603,1000.00,12,0,1,784.131,-4.149,4.623,1072.427,0.027,1.199
0.753000,942604,1000.00,12,0,1,781.897,-5.144,4.564,1072.763,0.096,1.199
0.754000,942605,1000.00,12,0,1,783.819,-1.677,4.568,1071.610,-0.466,1.194
0.755000,942606,1000.00,12,0,1,787.133,1.772,4.532,1072.403,-0.265,1.154
0.756000,942607,1000.00,12,0,1,786.197,1.835,4.536,1072.427,0.453,1.153
0.757000,942608,1000.00,12,0,1,786.269,0.111,4.532,1073.460,0.777,1.132
0.758000,942609,1000.00,12,0,1,790.568,3.400,4.537,1073.148,0.997,1.140
0.759000,942610,1000.00,12,0,1,788.671,1.125,4.518,1073.148,0.361,1.138
0.760000,942611,1000.00,12,0,1,784.371,-4.607,4.494,1072.715,0.235,1.114
0.761000,942612,1000.00,12,0,1,788.094,-2.785,4.422,1072.691,-0.123,1.112
0.762000,942613,1000.00,12,0,1,796.958,4.673,4.463,1072.403,-0.220,1.110
0.763000,942614,1000.00,12,0,1,793.499,2.045,4.468,1073.676,0.593,1.069
0.764000,942615,1000.00,12,0,1,788.983,-4.647,4.500,1075.790,2.434,1.100
0.765000,942616,1000.00,12,0,1,789.511,-3.405,4.522,1074.156,1.151,1.090
0.766000,942617,1000.00,12,0,1,792.274,-0.551,4.514,1072.907,-0.914,1.058
0.767000,942618,1000.00,12,0,1,792.826,1.326,4.513,1074.301,0.484,1.046
0.768000,942619,1000.00,12,0,1,792.010,1.124,4.501,1072.931,-0.414,1.033
0.769000,942620,1000.00,12,0,1,792.922,2.685,4.459,1072.739,-1.146,1.037
0.770000,942621,1000.00,12,0,1,793.235,4.219,4.345,1073.148,-0.255,0.933
0.771000,942622,1000.00,12,0,1,789.704,1.928,4.346,1071.346,-1.676,0.961
0.772000,942623,1000.00,12,0,1,790.088,2.198,4.354,1072.235,-1.205,0.975
0.773000,942624,1000.00,12,0,1,788.214,2.185,4.268,1072.283,-0.238,0.976
0.774000,942625,1000.00,12,0,1,782.690,-2.679,4.181,1073.580,0.292,0.966
0.775000,942626,1000.00,12,0,1,784.251,-1.739,4.120,1073.220,0.776,0.971
0.776000,942627,1000.00,12,0,1,789.103,3.402,3.969,1072.355,-0.640,0.944
0.777000,942628,1000.00,12,0,1,789.007,2.806,3.965,1073.364,0.369,0.895
0.778000,942629,1000.00,12,0,1,792.874,3.851,3.844,1074.781,1.589,0.903
0.779000,942630,1000.00,12,0,1,793.451,3.976,3.404,1074.180,1.028,0.910
0.780000,942631,1000.00,12,0,1,788.094,-2.976,3.213,1072.835,-0.502,0.910
0.781000,942632,1000.00,12,0,1,788.647,-4.549,3.268,1072.835,-0.724,0.911
0.782000,942633,1000.00,12,0,1,791.145,-2.147,3.281,1072.331,-0.798,0.917
0.783000,942634,1000.00,12,0,1,791.073,-2.900,3.306,1073.460,-0.225,0.913
0.784000,942635,1000.00,12,0,1,789.535,-4.244,3.329,1073.556,0.494,0.904
0.785000,942636,1000.00,12,0,1,793.835,-1.160,3.293,1072.955,-0.494,0.907
0.786000,942637,1000.00,12,0,1,794.676,1.477,3.266,1073.220,-0.109,0.865
0.787000,942638,1000.00,12,0,1,796.501,2.007,3.158,1071.394,-1.383,0.878
0.788000,942639,1000.00,12,0,1,799.504,5.853,2.906,1073.148,-0.471,0.872
0.789000,942640,1000.00,12,0,1,797.702,4.582,2.956,1074.060,1.385,0.873
0.790000,942641,1000.00,12,0,1,792.898,0.528,2.955,1073.051,-0.051,0.870
0.791000,942642,1000.00,12,0,1,790.232,-1.294,2.941,1073.724,0.491,0.873
0.792000,942643,1000.00,12,0,1,790.472,-0.130,2.902,1072.427,-0.257,0.868
0.793000,942644,1000.00,12,0,1,789.535,0.409,2.880,1072.211,-0.988,0.823
0.794000,942645,1000.00,12,0,1,791.265,1.577,2.838,1072.307,-0.280,0.818
0.795000,942646,1000.00,12,0,1,789.415,1.201,2.818,1074.180,0.877,0.824
0.796000,942647,1000.00,12,0,1,786.653,-2.559,2.838,1073.652,1.147,0.821
0.797000,942648,1000.00,12,0,1,785.596,-3.313,2.870,1072.499,-0.647,0.818
0.798000,942649,1000.00,12,0,1,788.911,-1.471,2.872,1072.787,-0.208,0.815
0.799000,942650,1000.00,12,0,1,788.262,-1.498,2.875,1070.769,-1.608,0.835
0.800000,942651,1000.00,12,0,1,789.463,-2.650,2.888,1070.866,-2.002,0.875
0.801000,942652,1000.00,12,0,1,792.970,0.219,2.879,1072.307,0.046,0.874
0.802000,942653,1000.00,12,0,1,799.840,4.425,2.887,1072.019,-0.159,0.875
0.803000,942654,1000.00,12,0,1,802.387,6.193,2.928,1072.187,-0.073,0.875
0.804000,942655,1000.00,12,0,1,796.525,-0.456,2.919,1073.388,0.983,0.883
0.805000,942656,1000.00,12,0,1,792.922,-5.271,3.002,1071.971,0.085,0.882
0.806000,942657,1000.00,12,0,1,796.982,-1.260,2.996,1071.898,-0.612,0.884
0.807000,942658,1000.00,12,0,1,798.135,1.185,3.001,1072.115,0.160,0.878
0.808000,942659,1000.00,12,0,1,797.582,0.810,2.965,1074.637,1.784,0.902
0.809000,942660,1000.00,12,0,1,794.147,-0.864,2.963,1074.829,2.604,0.973
0.810000,942661,1000.00,12,0,1,793.115,-1.466,2.898,1072.859,0.123,0.973
0.811000,942662,1000.00,12,0,1,794.316,1.265,2.876,1073.268,0.165,0.973
0.812000,942663,1000.00,12,0,1,790.736,-0.317,2.800,1073.988,1.063,0.984
0.813000,942664,1000.00,12,0,1,788.551,-2.259,2.803,1072.787,-0.102,0.981
0.814000,942665,1000.00,12,0,1,790.376,0.501,2.726,1071.178,-1.528,0.943
0.815000,942666,1000.00,12,0,1,789.271,0.267,2.683,1070.842,-1.819,0.964
0.816000,942667,1000.00,12,0,1,791.193,0.972,2.686,1073.051,0.312,0.956
0.817000,942668,1000.00,12,0,1,792.778,2.569,2.704,1073.027,0.844,0.961
0.818000,942669,1000.00,12,0,1,790.400,-0.695,2.701,1072.331,-0.240,0.960
0.819000,942670,1000.00,12,0,1,787.494,-4.414,2.746,1075.550,2.217,0.997
0.820000,942671,1000.00,12,0,1,787.734,-5.096,2.775,1074.084,1.719,1.026
0.821000,942672,1000.00,12,0,1,792.898,-1.283,2.768,1073.340,-0.451,1.000
0.822000,942673,1000.00,12,0,1,794.484,0.396,2.751,1072.979,-0.044,0.985
0.823000,942674,1000.00,12,0,1,794.748,-1.015,2.737,1075.405,1.079,0.996
0.824000,942675,1000.00,12,0,1,797.558,1.039,2.715,1075.429,1.951,1.033
0.825000,942676,1000.00,12,0,1,797.654,1.139,2.709,1075.838,1.029,1.038
0.826000,942677,1000.00,12,0,1,794.532,-1.749,2.677,1073.532,-0.346,1.035
0.827000,942678,1000.00,12,0,1,793.355,-2.552,2.672,1071.562,-2.908,1.112
0.828000,942679,1000.00,12,0,1,789.487,-4.011,2.677,1071.178,-2.661,1.152
0.829000,942680,1000.00,12,0,1,788.214,-4.413,2.690,1071.274,-2.177,1.184
0.830000,942681,1000.00,12,0,1,786.341,-3.096,2.693,1073.099,-0.455,1.184
0.831000,942682,1000.00,12,0,1,784.803,-3.134,2.652,1073.099,0.375,1.180
0.832000,942683,1000.00,12,0,1,786.893,0.541,2.636,1072.259,-0.838,1.181
0.833000,942684,1000.00,12,0,1,789.175,4.050,2.666,1073.868,0.732,1.185
0.834000,942685,1000.00,12,0,1,792.850,7.149,2.788,1073.436,0.684,1.187
0.835000,942686,1000.00,12,0,1,795.348,9.327,3.079,1072.115,-0.793,1.190
0.836000,942687,1000.00,12,0,1,805.677,15.180,3.748,1072.499,-0.498,1.192
0.837000,942688,1000.00,12,0,1,807.743,16.798,4.428,1071.971,-0.548,1.179
0.838000,942689,1000.00,12,0,1,782.810,-7.261,4.470,1072.859,-0.167,1.177
0.839000,942690,1000.00,12,0,1,781.753,-14.832,4.895,1073.484,0.874,1.167
0.840000,942691,1000.00,12,0,1,792.322,-0.960,4.896,1073.316,0.374,1.168
0.841000,942692,1000.00,12,0,1,795.541,0.202,4.893,1071.898,-0.677,1.170
0.842000,942693,1000.00,12,0,1,794.532,-0.863,4.894,1073.075,-0.196,1.170
0.843000,942694,1000.00,12,0,1,791.001,-5.046,4.946,1072.835,0.368,1.163
0.844000,942695,1000.00,12,0,1,795.565,-2.258,4.951,1072.787,-0.295,1.163
0.845000,942696,1000.00,12,0,1,798.063,1.844,4.955,1072.115,-0.364,1.157
0.846000,942697,1000.00,12,0,1,791.938,-3.899,4.973,1072.883,-0.118,1.146
0.847000,942698,1000.00,12,0,1,788.431,-6.600,5.038,1072.547,0.198,1.143
0.848000,942699,1000.00,12,0,1,791.145,-2.903,5.050,1071.826,-0.710,1.147
0.849000,942700,1000.00,12,0,1,790.544,-0.714,5.047,1070.601,-1.402,1.141
0.850000,942701,1000.00,12,0,1,782.738,-6.067,5.105,1072.499,0.002,1.105
0.851000,942702,1000.00,12,0,1,780.600,-7.017,5.201,1072.235,0.699,1.110
0.852000,942703,1000.00,12,0,1,783.722,-1.484,5.167,1071.538,-0.457,1.111
0.853000,942704,1000.00,12,0,1,784.923,1.366,5.096,1074.060,1.703,1.137
0.854000,942705,1000.00,12,0,1,785.764,2.633,5.109,1073.676,1.946,1.162
0.855000,942706,1000.00,12,0,1,783.674,1.529,5.059,1073.268,0.553,1.164
0.856000,942707,1000.00,12,0,1,783.098,0.134,5.056,1072.595,0.427,1.163
0.857000,942708,1000.00,12,0,1,786.581,3.004,5.071,1073.316,0.284,1.163
0.858000,942709,1000.00,12,0,1,791.529,6.406,5.150,1073.580,1.027,1.145
0.859000,942710,1000.00,12,0,1,796.357,9.002,5.304,1073.532,0.400,1.085
0.860000,942711,1000.00,12,0,1,797.871,8.361,5.430,1072.163,-0.525,1.088
0.861000,942712,1000.00,12,0,1,796.381,4.488,5.464,1071.010,-1.866,1.119
0.862000,942713,1000.00,12,0,1,791.938,-0.996,5.466,1072.019,-0.842,1.115
0.863000,942714,1000.00,12,0,1,788.455,-5.441,5.510,1073.388,0.694,1.120
0.864000,942715,1000.00,12,0,1,784.755,-7.984,5.624,1073.436,0.709,1.103
0.865000,942716,1000.00,12,0,1,784.827,-7.627,5.727,1073.916,0.898,1.080
0.866000,942717,1000.00,12,0,1,789.872,-1.548,5.729,1071.947,-0.547,1.082
0.867000,942718,1000.00,12,0,1,791.313,1.585,5.722,1073.316,-0.177,1.076
0.868000,942719,1000.00,12,0,1,789.391,0.414,5.722,1072.475,0.209,1.076
0.869000,942720,1000.00,12,0,1,790.328,1.860,5.694,1073.916,0.298,1.030
0.870000,942721,1000.00,12,0,1,790.160,3.104,5.665,1072.595,0.385,1.002
0.871000,942722,1000.00,12,0,1,789.872,3.055,5.678,1071.538,-1.599,1.025
0.872000,942723,1000.00,12,0,1,787.350,1.860,5.684,1072.715,-0.034,1.025
0.873000,942724,1000.00,12,0,1,786.341,0.622,5.683,1074.060,1.165,1.027
0.874000,942725,1000.00,12,0,1,788.719,3.047,5.697,1072.619,0.072,0.989
0.875000,942726,1000.00,12,0,1,788.935,3.366,5.715,1073.003,-0.177,0.979
0.876000,942727,1000.00,12,0,1,785.332,-0.514,5.710,1072.979,0.226,0.978
0.877000,942728,1000.00,12,0,1,787.205,-0.429,5.699,1072.595,-0.364,0.889
0.878000,942729,1000.00,12,0,1,788.575,1.038,5.673,1073.316,0.162,0.806
0.879000,942730,1000.00,12,0,1,789.031,-0.223,5.638,1073.316,0.418,0.747
0.880000,942731,1000.00,12,0,1,790.400,0.112,5.621,1070.409,-2.118,0.802
0.881000,942732,1000.00,12,0,1,794.364,2.117,5.612,1071.826,-1.404,0.825
0.882000,942733,1000.00,12,0,1,799.768,5.714,5.669,1072.235,0.079,0.816
0.883000,942734,1000.00,12,0,1,802.915,7.129,5.730,1072.475,-0.268,0.811
0.884000,942735,1000.00,12,0,1,798.063,1.799,5.645,1072.787,0.433,0.807
0.885000,942736,1000.00,12,0,1,793.331,-4.079,5.519,1071.658,-0.572,0.804
0.886000,942737,1000.00,12,0,1,795.012,-2.529,5.097,1072.427,-0.209,0.801
0.887000,942738,1000.00,12,0,1,794.123,-1.613,4.516,1072.787,0.691,0.803
0.888000,942739,1000.00,12,0,1,787.974,-6.220,4.484,1073.220,0.591,0.807
0.889000,942740,1000.00,12,0,1,789.535,-4.402,4.012,1071.418,-0.386,0.800
0.890000,942741,1000.00,12,0,1,787.542,-2.670,4.028,1073.172,0.125,0.798
0.891000,942742,1000.00,12,0,1,785.380,-4.454,4.076,1073.772,1.782,0.831
0.892000,942743,1000.00,12,0,1,784.803,-2.665,4.092,1072.163,-0.343,0.832
0.893000,942744,1000.00,12,0,1,785.092,-1.656,4.036,1072.067,-0.436,0.833
0.894000,942745,1000.00,12,0,1,784.875,-0.705,4.025,1072.931,0.414,0.834
0.895000,942746,1000.00,12,0,1,786.653,0.713,4.017,1071.346,-0.682,0.838
0.896000,942747,1000.00,12,0,1,787.566,1.725,3.987,1072.283,-0.416,0.840
0.897000,942748,1000.00,12,0,1,780.984,-3.942,3.916,1073.316,1.089,0.853
0.898000,942749,1000.00,12,0,1,782.449,-5.011,3.958,1072.163,-0.055,0.847
0.899000,942750,1000.00,12,0,1,792.538,4.551,4.009,1074.349,1.185,0.841
0.900000,942751,1000.00,12,0,1,788.070,1.235,3.920,1076.102,3.248,0.958
0.901000,942752,1000.00,12,0,1,785.356,-4.617,3.848,1073.604,0.556,0.956
0.902000,942753,1000.00,12,0,1,792.202,1.621,3.849,1072.931,-0.747,0.960
0.903000,942754,1000.00,12,0,1,795.084,4.313,3.893,1073.940,0.315,0.930
0.904000,942755,1000.00,12,0,1,792.994,1.518,3.881,1072.835,-0.474,0.891
0.905000,942756,1000.00,12,0,1,794.388,1.815,3.883,1071.490,-1.896,0.927
0.906000,942757,1000.00,12,0,1,788.286,-1.866,3.892,1073.196,-0.411,0.927
0.907000,942758,1000.00,12,0,1,778.222,-10.697,4.154,1071.874,-0.703,0.932
0.908000,942759,1000.00,12,0,1,784.803,-4.403,4.102,1072.595,-0.924,0.929
0.909000,942760,1000.00,12,0,1,785.308,1.351,3.904,1072.139,-0.210,0.928
0.910000,942761,1000.00,12,0,1,784.875,-0.165,3.720,1071.898,-1.072,0.938
0.911000,942762,1000.00,12,0,1,785.380,3.120,3.692,1071.274,-0.896,0.908
0.912000,942763,1000.00,12,0,1,785.932,3.284,3.719,1072.547,-0.204,0.901
0.913000,942764,1000.00,12,0,1,791.073,7.998,3.810,1073.868,1.478,0.920
0.914000,942765,1000.00,12,0,1,786.845,5.319,3.716,1074.060,1.383,0.935
0.915000,942766,1000.00,12,0,1,780.095,-2.939,3.580,1073.772,0.873,0.935
0.916000,942767,1000.00,12,0,1,780.864,-2.331,3.589,1072.667,-0.122,0.932
0.917000,942768,1000.00,12,0,1,782.786,-0.576,3.582,1072.499,-0.677,0.936
0.918000,942769,1000.00,12,0,1,780.648,-2.471,3.599,1073.796,0.651,0.940
0.919000,942770,1000.00,12,0,1,783.290,-1.868,3.599,1075.165,1.672,0.968
0.920000,942771,1000.00,12,0,1,786.365,1.322,3.577,1074.565,1.211,0.982
0.921000,942772,1000.00,12,0,1,787.109,0.649,3.552,1072.979,-0.661,0.960
0.922000,942773,1000.00,12,0,1,788.671,1.162,3.546,1071.538,-1.821,0.994
0.923000,942774,1000.00,12,0,1,788.671,0.787,3.547,1071.538,-1.829,1.014
0.924000,942775,1000.00,12,0,1,785.188,-2.524,3.539,1071.826,-1.049,1.025
0.925000,942776,1000.00,12,0,1,786.461,-1.909,3.517,1072.403,-0.461,1.026
0.926000,942777,1000.00,12,0,1,787.950,0.926,3.518,1071.754,-0.589,1.029
0.927000,942778,1000.00,12,0,1,791.337,3.726,3.557,1070.818,-1.454,1.048
0.928000,942779,1000.00,12,0,1,792.442,5.968,3.653,1070.337,-1.542,1.071
0.929000,942780,1000.00,12,0,1,786.341,1.011,3.656,1069.977,-1.524,1.090
0.930000,942781,1000.00,12,0,1,783.891,-1.613,3.663,1071.706,0.019,1.048
0.931000,942782,1000.00,12,0,1,783.434,-0.059,3.651,1072.907,1.615,1.055
0.932000,942783,1000.00,12,0,1,781.729,-0.963,3.563,1072.571,1.042,1.065
0.933000,942784,1000.00,12,0,1,780.143,-1.347,3.422,1072.355,0.689,1.068
0.934000,942785,1000.00,12,0,1,778.246,-2.434,3.430,1072.283,0.501,1.069
0.935000,942786,1000.00,12,0,1,778.414,-2.041,3.394,1072.619,0.651,1.070
0.936000,942787,1000.00,12,0,1,782.690,1.629,3.382,1073.796,1.516,1.091
0.937000,942788,1000.00,12,0,1,782.593,1.943,3.386,1074.277,1.866,1.118
0.938000,942789,1000.00,12,0,1,783.410,0.602,3.271,1074.156,1.370,1.132
0.939000,942790,1000.00,12,0,1,782.425,-0.274,3.211,1073.460,0.579,1.133
0.940000,942791,1000.00,12,0,1,783.050,-1.672,3.198,1072.547,-0.424,1.135
0.941000,942792,1000.00,12,0,1,785.308,0.109,3.135,1072.355,-0.643,1.110
0.942000,942793,1000.00,12,0,1,790.857,3.535,3.152,1072.739,-0.175,1.109
0.943000,942794,1000.00,12,0,1,791.889,4.524,3.208,1071.754,-0.760,1.113
0.944000,942795,1000.00,12,0,1,792.418,2.969,3.234,1072.307,-0.547,1.114
0.945000,942796,1000.00,12,0,1,788.767,0.218,3.232,1073.700,1.059,1.120
0.946000,942797,1000.00,12,0,1,788.382,-1.420,3.229,1073.148,0.634,1.122
0.947000,942798,1000.00,12,0,1,794.724,4.822,3.253,1072.019,-0.594,1.114
0.948000,942799,1000.00,12,0,1,794.988,6.404,3.302,1071.754,-0.803,1.120
0.949000,942800,1000.00,12,0,1,789.463,0.859,3.241,1071.826,-0.620,1.111
0.950000,942801,1000.00,12,0,1,780.143,-6.038,3.347,1069.713,-2.036,1.052
0.951000,942802,1000.00,12,0,1,776.949,-8.794,3.510,1071.898,-0.801,1.055
0.952000,942803,1000.00,12,0,1,774.715,-7.170,3.646,1072.139,0.736,1.055
0.953000,942804,1000.00,12,0,1,771.256,-8.893,3.809,1072.667,0.149,1.054
0.954000,942805,1000.00,12,0,1,771.856,-6.497,3.912,1072.235,0.491,1.054
0.955000,942806,1000.00,12,0,1,777.669,-0.274,3.904,1073.436,0.637,1.024
0.956000,942807,1000.00,12,0,1,781.777,4.258,3.941,1073.820,1.505,1.044
0.957000,942808,1000.00,12,0,1,785.044,5.822,3.731,1072.811,0.111,1.039
0.958000,942809,1000.00,12,0,1,784.491,4.436,3.732,1072.787,-0.134,1.031
0.959000,942810,1000.00,12,0,1,782.305,0.406,3.728,1072.859,0.132,1.031
0.960000,942811,1000.00,12,0,1,782.233,-1.065,3.731,1071.010,-1.436,1.040
0.961000,942812,1000.00,12,0,1,785.764,0.921,3.707,1071.394,-1.256,1.047
0.962000,942813,1000.00,12,0,1,789.415,3.410,3.709,1072.667,0.351,1.048
0.963000,942814,1000.00,12,0,1,791.193,3.973,3.577,1072.523,0.438,1.029
0.964000,942815,1000.00,12,0,1,793.979,4.978,3.567,1074.517,1.686,1.038
0.965000,942816,1000.00,12,0,1,793.115,4.195,3.592,1074.180,2.037,1.070
0.966000,942817,1000.00,12,0,1,791.313,1.385,3.582,1073.484,0.452,1.072
0.967000,942818,1000.00,12,0,1,790.064,0.846,3.583,1073.964,1.041,1.077
0.968000,942819,1000.00,12,0,1,784.131,-3.308,3.597,1072.259,-0.463,1.075
0.969000,942820,1000.00,12,0,1,775.123,-9.884,3.850,1072.331,-0.923,1.057
0.970000,942821,1000.00,12,0,1,778.366,-6.226,3.945,1074.108,0.949,1.052
0.971000,942822,1000.00,12,0,1,781.537,0.745,3.945,1073.388,0.395,1.049
0.972000,942823,1000.00,12,0,1,781.849,1.325,3.946,1072.091,-1.117,1.029
0.973000,942824,1000.00,12,0,1,781.248,1.970,3.954,1072.979,-0.491,0.999
0.974000,942825,1000.00,12,0,1,780.312,0.983,3.941,1075.502,1.726,1.017
0.975000,942826,1000.00,12,0,1,779.207,-0.006,3.931,1073.748,0.543,1.018
0.976000,942827,1000.00,12,0,1,778.822,-0.789,3.931,1072.187,-1.759,1.045
0.977000,942828,1000.00,12,0,1,782.017,0.961,3.898,1072.067,-1.434,1.044
0.978000,942829,1000.00,12,0,1,782.569,1.391,3.810,1072.403,-1.132,1.034
0.979000,942830,1000.00,12,0,1,781.176,-1.746,3.815,1073.748,0.202,1.011
0.980000,942831,1000.00,12,0,1,782.353,-1.683,3.816,1073.196,0.103,1.011
0.981000,942832,1000.00,12,0,1,785.140,-0.169,3.816,1072.547,-0.841,0.992
0.982000,942833,1000.00,12,0,1,786.413,0.470,3.814,1074.373,0.829,0.988
0.983000,942834,1000.00,12,0,1,788.791,1.361,3.814,1074.637,1.381,1.003
0.984000,942835,1000.00,12,0,1,791.025,3.156,3.825,1073.796,0.279,1.001
0.985000,942836,1000.00,12,0,1,789.584,1.668,3.821,1072.595,-0.710,1.002
0.986000,942837,1000.00,12,0,1,790.977,2.086,3.826,1073.436,-0.261,0.979
0.987000,942838,1000.00,12,0,1,789.896,2.511,3.832,1072.835,-0.152,0.943
0.988000,942839,1000.00,12,0,1,783.843,-2.499,3.848,1074.228,0.364,0.925
0.989000,942840,1000.00,12,0,1,781.729,-3.682,3.883,1073.988,0.924,0.930
0.990000,942841,1000.00,12,0,1,780.480,-2.450,3.891,1072.451,-1.033,0.940
0.991000,942842,1000.00,12,0,1,778.006,-3.197,3.917,1073.340,-0.332,0.937
0.992000,942843,1000.00,12,0,1,778.702,-1.368,3.890,1074.397,0.866,0.944
0.993000,942844,1000.00,12,0,1,779.183,0.586,3.838,1073.844,0.211,0.939
0.994000,942845,1000.00,12,0,1,779.375,0.904,3.817,1073.532,-0.255,0.936
0.995000,942846,1000.00,12,0,1,780.672,2.013,3.827,1072.907,-0.780,0.931
0.996000,942847,1000.00,12,0,1,779.975,1.103,3.825,1073.964,-0.086,0.926
0.997000,942848,1000.00,12,0,1,777.501,-2.033,3.775,1073.532,-0.009,0.922
0.998000,942849,1000.00,12,0,1,775.243,-4.736,3.725,1073.027,-0.854,0.923
0.999000,942850,1000.00,12,0,1,777.549,-3.688,3.760,1073.460,-0.273,0.920
1.000000,942851,1000.00,12,0,1,786.245,3.223,3.690,1073.460,-0.142,0.874
1.001000,942852,1000.00,12,0,1,788.839,5.495,3.560,1072.979,-0.545,0.870
1.002000,942853,1000.00,12,0,1,790.160,3.793,3.454,1072.859,-0.553,0.867
1.003000,942854,1000.00,12,0,1,789.031,2.446,3.236,1072.043,-1.014,0.879
1.004000,942855,1000.00,12,0,1,782.353,-4.306,3.162,1073.508,0.073,0.876
1.005000,942856,1000.00,12,0,1,778.222,-8.061,3.361,1073.532,0.779,0.879
1.006000,942857,1000.00,12,0,1,779.351,-5.471,3.396,1072.931,-0.175,0.853
1.007000,942858,1000.00,12,0,1,781.008,-1.935,3.305,1071.826,-0.801,0.860
1.008000,942859,1000.00,12,0,1,776.973,-3.040,3.274,1072.667,-0.381,0.862
1.009000,942860,1000.00,12,0,1,774.330,-4.453,3.333,1073.268,0.680,0.867
1.010000,942861,1000.00,12,0,1,775.507,-0.917,3.332,1075.454,2.031,0.890
1.011000,942862,1000.00,12,0,1,780.263,4.461,3.389,1074.733,1.886,0.912
1.012000,942863,1000.00,12,0,1,783.146,8.448,3.561,1073.268,-0.310,0.912
1.013000,942864,1000.00,12,0,1,784.299,8.678,3.724,1072.115,-1.142,0.924
1.014000,942865,1000.00,12,0,1,784.035,7.752,3.818,1073.532,-0.261,0.893
1.015000,942866,1000.00,12,0,1,785.788,7.329,3.911,1074.349,0.956,0.856
1.016000,942867,1000.00,12,0,1,781.056,2.777,3.926,1072.259,-0.910,0.864
1.017000,942868,1000.00,12,0,1,773.586,-6.066,4.017,1072.163,-1.488,0.877
1.018000,942869,1000.00,12,0,1,777.141,-4.493,4.040,1072.859,-0.203,0.875
1.019000,942870,1000.00,12,0,1,780.239,-0.645,3.792,1071.658,-1.204,0.882
1.020000,942871,1000.00,12,0,1,783.170,-0.162,3.688,1071.466,-1.321,0.891
1.021000,942872,1000.00,12,0,1,787.374,3.125,3.713,1071.802,-0.650,0.894
1.022000,942873,1000.00,12,0,1,786.821,1.542,3.715,1071.346,-0.745,0.886
1.023000,942874,1000.00,12,0,1,785.452,-1.024,3.707,1072.595,0.225,0.884
1.024000,942875,1000.00,12,0,1,784.899,-1.689,3.712,1074.589,2.282,0.909
1.025000,942876,1000.00,12,0,1,785.356,-1.296,3.717,1073.940,1.716,0.938
1.026000,942877,1000.00,12,0,1,783.362,-1.885,3.725,1073.220,0.525,0.907
1.027000,942878,1000.00,12,0,1,777.741,-5.832,3.812,1073.700,0.875,0.893
1.028000,942879,1000.00,12,0,1,778.942,-4.081,3.851,1073.820,0.915,0.888
1.029000,942880,1000.00,12,0,1,779.999,-0.082,3.843,1073.868,0.721,0.893
1.030000,942881,1000.00,12,0,1,779.086,-0.047,3.835,1072.667,-0.260,0.894
1.031000,942882,1000.00,12,0,1,777.045,-0.210,3.836,1072.283,-0.959,0.896
1.032000,942883,1000.00,12,0,1,775.579,-0.877,3.837,1069.376,-2.740,0.969
1.033000,942884,1000.00,12,0,1,770.895,-3.391,3.862,1070.745,-2.310,1.004
1.034000,942885,1000.00,12,0,1,770.367,-4.114,3.880,1071.610,-0.021,1.003
1.035000,942886,1000.00,12,0,1,771.568,-1.515,3.879,1072.187,-0.114,0.998
1.036000,942887,1000.00,12,0,1,772.985,-0.513,3.868,1073.460,1.415,1.018
1.037000,942888,1000.00,12,0,1,777.021,2.503,3.868,1074.060,1.743,1.047
1.038000,942889,1000.00,12,0,1,780.432,4.842,3.912,1073.628,1.165,1.058
1.039000,942890,1000.00,12,0,1,781.056,3.710,3.913,1072.115,-0.236,1.051
1.040000,942891,1000.00,12,0,1,780.528,1.674,3.905,1071.202,-1.330,1.058
1.041000,942892,1000.00,12,0,1,776.805,-2.604,3.896,1069.256,-2.379,1.109
1.042000,942893,1000.00,12,0,1,775.940,-4.546,3.944,1070.457,-1.751,1.129
1.043000,942894,1000.00,12,0,1,776.780,-3.153,3.968,1072.283,0.926,1.137
1.044000,942895,1000.00,12,0,1,778.870,-1.139,3.969,1071.298,0.031,1.136
1.045000,942896,1000.00,12,0,1,777.165,-1.219,3.963,1072.859,0.973,1.139
1.046000,942897,1000.00,12,0,1,777.933,-0.698,3.961,1071.947,0.951,1.147
1.047000,942898,1000.00,12,0,1,783.554,5.471,4.026,1071.610,-0.272,1.148
1.048000,942899,1000.00,12,0,1,787.350,9.693,4.199,1072.931,1.316,1.156
1.049000,942900,1000.00,12,0,1,789.439,10.974,4.447,1073.868,1.865,1.185
1.050000,942901,1000.00,12,0,1,777.861,2.251,4.435,1073.268,1.308,1.199
1.051000,942902,1000.00,12,0,1,772.337,-5.335,4.431,1073.508,0.925,1.204
1.052000,942903,1000.00,12,0,1,772.913,-1.792,4.405,1073.532,1.016,1.210
1.053000,942904,1000.00,12,0,1,771.472,-2.558,4.407,1075.478,2.056,1.236
1.054000,942905,1000.00,12,0,1,775.555,1.110,4.367,1071.947,-0.253,1.237
1.055000,942906,1000.00,12,0,1,778.654,4.692,4.268,1074.108,-0.309,1.233
1.056000,942907,1000.00,12,0,1,778.462,3.032,4.219,1073.099,0.784,1.237
1.057000,942908,1000.00,12,0,1,776.324,0.311,4.210,1072.739,-1.264,1.245
1.058000,942909,1000.00,12,0,1,775.700,-2.110,4.199,1072.715,-0.181,1.244
1.059000,942910,1000.00,12,0,1,775.940,-2.326,4.164,1074.036,0.252,1.241
1.060000,942911,1000.00,12,0,1,778.078,-1.808,4.170,1073.460,0.393,1.209
1.061000,942912,1000.00,12,0,1,786.413,4.296,4.167,1074.373,0.434,1.180
1.062000,942913,1000.00,12,0,1,789.151,6.625,4.100,1073.532,0.208,1.180
1.063000,942914,1000.00,12,0,1,788.046,3.110,3.937,1074.349,0.182,1.169
1.064000,942915,1000.00,12,0,1,786.221,0.838,3.783,1073.388,-0.109,1.169
1.065000,942916,1000.00,12,0,1,786.028,-0.312,3.638,1072.787,-1.175,1.173
1.066000,942917,1000.00,12,0,1,784.755,-0.642,3.618,1072.499,-1.138,1.177
1.067000,942918,1000.00,12,0,1,782.593,-2.244,3.529,1072.115,-1.336,1.173
1.068000,942919,1000.00,12,0,1,782.257,-1.593,3.479,1073.124,-0.587,1.175
1.069000,942920,1000.00,12,0,1,782.401,-0.073,3.478,1072.811,-0.210,1.163
1.070000,942921,1000.00,12,0,1,781.032,-0.166,3.478,1072.859,-0.734,1.153
1.071000,942922,1000.00,12,0,1,780.143,-0.145,3.450,1074.325,0.901,1.156
1.072000,942923,1000.00,12,0,1,779.062,-0.213,3.443,1072.115,-0.786,1.157
1.073000,942924,1000.00,12,0,1,777.165,-1.316,3.445,1071.322,-2.053,1.192
1.074000,942925,1000.00,12,0,1,776.805,-1.603,3.444,1072.331,-0.605,1.151
1.075000,942926,1000.00,12,0,1,776.684,-1.341,3.444,1070.457,-1.750,1.152
1.076000,942927,1000.00,12,0,1,780.816,1.172,3.438,1072.355,-0.704,1.154
1.077000,942928,1000.00,12,0,1,784.131,4.015,3.386,1071.634,0.112,1.147
1.078000,942929,1000.00,12,0,1,781.248,0.018,3.336,1072.091,-0.580,1.143
1.079000,942930,1000.00,12,0,1,779.975,-3.197,3.367,1072.715,0.966,1.147
1.080000,942931,1000.00,12,0,1,784.707,-0.172,3.367,1074.156,1.517,1.166
1.081000,942932,1000.00,12,0,1,787.109,1.606,3.374,1073.340,1.382,1.175
1.082000,942933,1000.00,12,0,1,785.452,-1.132,3.376,1072.403,-0.187,1.109
1.083000,942934,1000.00,12,0,1,786.845,-1.166,3.346,1072.835,0.303,1.061
1.084000,942935,1000.00,12,0,1,785.428,-1.627,3.303,1072.811,0.415,1.062
1.085000,942936,1000.00,12,0,1,778.798,-7.297,3.453,1073.340,0.545,1.065
1.086000,942937,1000.00,12,0,1,775.483,-9.368,3.698,1072.307,0.098,1.046
1.087000,942938,1000.00,12,0,1,775.964,-6.531,3.795,1072.691,-0.290,1.018
1.088000,942939,1000.00,12,0,1,780.648,-0.592,3.734,1073.460,0.975,1.014
1.089000,942940,1000.00,12,0,1,778.030,0.348,3.697,1074.325,1.209,1.027
1.090000,942941,1000.00,12,0,1,773.297,-3.622,3.725,1071.490,-0.663,1.014
1.091000,942942,1000.00,12,0,1,769.382,-4.665,3.765,1070.649,-2.368,1.014
1.092000,942943,1000.00,12,0,1,768.878,-4.018,3.753,1070.721,-1.303,1.000
1.093000,942944,1000.00,12,0,1,774.114,2.031,3.737,1072.475,-0.101,0.992
1.094000,942945,1000.00,12,0,1,780.167,8.110,3.906,1074.565,2.216,1.040
1.095000,942946,1000.00,12,0,1,777.477,5.717,3.985,1074.925,2.292,1.081
1.096000,942947,1000.00,12,0,1,773.177,-0.132,3.984,1072.619,0.067,1.072
1.097000,942948,1000.00,12,0,1,773.562,-0.783,3.910,1071.514,-1.377,1.089
1.098000,942949,1000.00,12,0,1,776.180,0.938,3.664,1072.019,-0.747,1.078
1.099000,942950,1000.00,12,0,1,777.165,0.971,3.322,1073.988,1.010,1.055
1.100000,942951,1000.00,12,0,1,776.444,-0.646,3.308,1073.148,0.651,1.043
1.101000,942952,1000.00,12,0,1,777.549,-0.887,3.223,1073.268,0.047,1.035
1.102000,942953,1000.00,12,0,1,781.729,2.287,3.229,1072.859,0.140,1.025
1.103000,942954,1000.00,12,0,1,786.365,5.750,3.311,1071.898,-0.982,0.993
1.104000,942955,1000.00,12,0,1,788.695,7.160,3.458,1073.532,0.303,0.993
1.105000,942956,1000.00,12,0,1,785.068,3.509,3.430,1073.027,0.526,0.995
1.106000,942957,1000.00,12,0,1,780.119,-1.520,3.410,1073.460,0.060,0.989
1.107000,942958,1000.00,12,0,1,783.482,1.298,3.415,1072.955,0.338,0.973
1.108000,942959,1000.00,12,0,1,788.719,7.466,3.562,1073.003,-0.345,0.974
1.109000,942960,1000.00,12,0,1,784.227,4.378,3.600,1072.739,-0.025,0.974
1.110000,942961,1000.00,12,0,1,779.135,-0.973,3.594,1072.859,-0.332,0.973
1.111000,942962,1000.00,12,0,1,777.621,-1.277,3.547,1072.835,-0.034,0.971
1.112000,942963,1000.00,12,0,1,773.081,-3.928,3.465,1073.292,0.134,0.971
1.113000,942964,1000.00,12,0,1,774.282,-3.191,3.467,1073.316,0.311,0.972
1.114000,942965,1000.00,12,0,1,776.949,0.848,3.467,1073.868,0.536,0.974
1.115000,942966,1000.00,12,0,1,776.780,0.214,3.467,1072.595,-0.325,0.961
1.116000,942967,1000.00,12,0,1,776.564,-0.568,3.467,1073.724,0.005,0.948
1.117000,942968,1000.00,12,0,1,776.060,-1.751,3.461,1073.460,0.478,0.931
1.118000,942969,1000.00,12,0,1,777.765,-1.520,3.460,1073.196,-0.392,0.929
1.119000,942970,1000.00,12,0,1,781.176,0.717,3.462,1073.172,-0.109,0.929
1.120000,942971,1000.00,12,0,1,778.846,-1.857,3.472,1071.586,-1.403,0.944
1.121000,942972,1000.00,12,0,1,775.916,-5.979,3.573,1072.379,-1.061,0.947
1.122000,942973,1000.00,12,0,1,778.726,-3.880,3.615,1074.541,1.384,0.961
1.123000,942974,1000.00,12,0,1,780.191,-1.655,3.618,1072.955,0.153,0.916
1.124000,942975,1000.00,12,0,1,780.167,-1.884,3.620,1073.556,-0.061,0.912
1.125000,942976,1000.00,12,0,1,779.951,-1.256,3.620,1073.220,0.351,0.880
1.126000,942977,1000.00,12,0,1,784.419,2.593,3.634,1074.757,0.845,0.882
1.127000,942978,1000.00,12,0,1,781.969,2.821,3.612,1072.595,-0.031,0.882
1.128000,942979,1000.00,12,0,1,774.138,-4.228,3.661,1073.075,-0.974,0.889
1.129000,942980,1000.00,12,0,1,777.909,-0.604,3.634,1070.409,-1.724,0.911
1.130000,942981,1000.00,12,0,1,775.531,1.274,3.638,1073.916,-0.371,0.887
1.131000,942982,1000.00,12,0,1,773.297,-1.788,3.640,1075.381,2.913,0.959
1.132000,942983,1000.00,12,0,1,770.967,-1.031,3.639,1071.418,-1.473,0.981
1.133000,942984,1000.00,12,0,1,771.856,-0.852,3.638,1072.355,-1.286,0.996
1.134000,942985,1000.00,12,0,1,780.648,7.425,3.779,1072.379,0.001,0.995
1.135000,942986,1000.00,12,0,1,786.052,12.114,4.019,1073.748,0.109,0.992
1.136000,942987,1000.00,12,0,1,784.803,8.637,3.986,1071.418,-0.428,0.994
1.137000,942988,1000.00,12,0,1,778.342,1.082,3.881,1071.346,-2.046,1.034
1.138000,942989,1000.00,12,0,1,772.961,-6.080,3.974,1072.787,0.584,1.028
1.139000,942990,1000.00,12,0,1,777.861,-3.009,3.996,1072.403,-0.117,1.014
1.140000,942991,1000.00,12,0,1,778.990,-1.077,3.966,1072.235,-0.140,1.010
1.141000,942992,1000.00,12,0,1,777.837,-3.823,3.948,1073.075,0.540,0.956
1.142000,942993,1000.00,12,0,1,771.952,-8.006,4.068,1071.874,-0.203,0.938
1.143000,942994,1000.00,12,0,1,770.487,-10.194,4.306,1069.953,-1.994,0.980
1.144000,942995,1000.00,12,0,1,779.351,-1.009,4.153,1071.058,-1.098,0.941
1.145000,942996,1000.00,12,0,1,776.925,0.002,4.074,1073.051,1.293,0.902
1.146000,942997,1000.00,12,0,1,772.937,-4.816,4.130,1072.787,1.061,0.914
1.147000,942998,1000.00,12,0,1,775.075,-0.718,4.130,1072.139,0.306,0.895
1.148000,942999,1000.00,12,0,1,776.420,1.856,4.136,1071.298,-0.411,0.890
1.149000,943000,1000.00,12,0,1,771.496,-0.532,4.135,1073.003,0.784,0.886
1.150000,943001,1000.00,12,0,1,771.808,-0.534,4.134,1072.619,1.084,0.894
1.151000,943002,1000.00,12,0,1,778.054,6.675,4.239,1072.931,0.548,0.897
1.152000,943003,1000.00,12,0,1,781.104,9.865,4.451,1073.436,1.361,0.918
1.153000,943004,1000.00,12,0,1,780.143,8.071,4.522,1073.604,1.073,0.920
1.154000,943005,1000.00,12,0,1,777.405,4.592,4.455,1071.154,-0.782,0.925
1.155000,943006,1000.00,12,0,1,774.499,0.739,4.428,1072.043,-0.829,0.930
1.156000,943007,1000.00,12,0,1,774.282,-0.400,4.424,1073.075,0.933,0.939
1.157000,943008,1000.00,12,0,1,778.894,2.433,4.433,1073.676,0.971,0.948
1.158000,943009,1000.00,12,0,1,785.380,7.132,4.422,1073.700,1.093,0.959
1.159000,943010,1000.00,12,0,1,789.776,8.938,4.557,1072.883,0.147,0.959
1.160000,943011,1000.00,12,0,1,786.461,4.265,4.595,1070.890,-1.601,0.984
1.161000,943012,1000.00,12,0,1,776.636,-6.471,4.682,1073.364,0.067,0.985
1.162000,943013,1000.00,12,0,1,776.180,-8.729,4.810,1072.907,0.758,0.990
1.163000,943014,1000.00,12,0,1,781.296,-2.731,4.804,1073.388,0.078,0.989
1.164000,943015,1000.00,12,0,1,784.323,0.239,4.803,1074.060,1.257,1.002
1.165000,943016,1000.00,12,0,1,782.353,-0.803,4.804,1074.949,1.403,1.021
1.166000,943017,1000.00,12,0,1,783.746,-0.315,4.804,1073.388,0.317,1.022
1.167000,943018,1000.00,12,0,1,781.392,-0.363,4.797,1071.514,-1.859,1.053
1.168000,943019,1000.00,12,0,1,778.606,-3.154,4.813,1071.514,-1.761,1.080
1.169000,943020,1000.00,12,0,1,774.619,-4.557,4.855,1073.292,0.043,1.080
1.170000,943021,1000.00,12,0,1,770.679,-7.020,4.949,1073.364,0.403,1.063
1.171000,943022,1000.00,12,0,1,768.734,-6.775,4.969,1072.427,-0.551,1.056
1.172000,943023,1000.00,12,0,1,772.313,-2.373,4.950,1070.673,-1.973,1.074
1.173000,943024,1000.00,12,0,1,777.741,3.756,4.973,1071.995,-1.011,1.084
1.174000,943025,1000.00,12,0,1,778.606,4.902,5.014,1073.796,1.150,1.096
1.175000,943026,1000.00,12,0,1,776.300,1.696,5.017,1074.325,1.469,1.114
1.176000,943027,1000.00,12,0,1,775.940,0.380,5.004,1073.364,0.514,1.110
1.177000,943028,1000.00,12,0,1,776.300,-0.052,4.988,1073.964,0.548,1.113
1.178000,943029,1000.00,12,0,1,775.171,-1.639,4.957,1072.307,-0.421,1.106
1.179000,943030,1000.00,12,0,1,776.348,-1.867,4.963,1072.595,-0.938,1.087
1.180000,943031,1000.00,12,0,1,778.174,-0.338,4.960,1072.283,-0.391,1.087
1.181000,943032,1000.00,12,0,1,782.642,2.270,4.964,1073.051,-0.270,1.006
1.182000,943033,1000.00,12,0,1,783.146,3.045,4.981,1074.036,1.051,0.996
1.183000,943034,1000.00,12,0,1,779.062,-1.674,4.985,1072.739,-0.105,0.979
1.184000,943035,1000.00,12,0,1,779.086,-2.158,4.883,1072.499,-0.746,0.985
1.185000,943036,1000.00,12,0,1,778.342,-1.409,4.577,1073.412,0.399,0.986
1.186000,943037,1000.00,12,0,1,779.951,-0.155,4.411,1075.742,2.029,1.025
1.187000,943038,1000.00,12,0,1,782.978,3.982,4.444,1074.781,1.715,1.013
1.188000,943039,1000.00,12,0,1,778.774,1.332,4.364,1073.220,-0.666,1.014
1.189000,943040,1000.00,12,0,1,776.228,-1.308,4.347,1070.385,-2.511,1.074
1.190000,943041,1000.00,12,0,1,775.724,-0.123,4.344,1071.010,-2.610,1.136
1.191000,943042,1000.00,12,0,1,770.247,-3.635,4.341,1071.154,-1.136,1.145
1.192000,943043,1000.00,12,0,1,769.238,-4.504,4.239,1071.514,-1.186,1.157
1.193000,943044,1000.00,12,0,1,772.721,0.162,3.986,1071.418,-0.553,1.124
1.194000,943045,1000.00,12,0,1,772.385,0.646,3.985,1071.778,-0.415,1.115
1.195000,943046,1000.00,12,0,1,772.937,0.313,3.985,1071.202,-0.473,1.102
1.196000,943047,1000.00,12,0,1,772.697,0.301,3.927,1070.337,-1.248,1.106
1.197000,943048,1000.00,12,0,1,770.559,-2.442,3.941,1071.634,-0.158,1.105
1.198000,943049,1000.00,12,0,1,772.481,-1.691,3.939,1071.442,0.385,1.105
1.199000,943050,1000.00,12,0,1,774.426,0.115,3.938,1071.562,-0.081,1.100
1.200000,943051,1000.00,12,0,1,777.285,1.341,3.942,1073.748,2.060,1.127
1.201000,943052,1000.00,12,0,1,783.530,5.921,3.918,1072.115,0.905,1.132
1.202000,943053,1000.00,12,0,1,785.668,7.192,3.800,1072.547,0.298,1.116
1.203000,943054,1000.00,12,0,1,783.338,3.501,3.658,1072.427,0.932,1.114
1.204000,943055,1000.00,12,0,1,780.864,0.421,3.601,1069.905,-1.589,1.131
1.205000,943056,1000.00,12,0,1,784.827,2.988,3.624,1071.514,-0.508,1.127
1.206000,943057,1000.00,12,0,1,782.810,2.973,3.648,1071.346,0.443,1.121
1.207000,943058,1000.00,12,0,1,786.293,3.812,3.671,1072.019,0.195,1.113
1.208000,943059,1000.00,12,0,1,786.965,6.768,3.657,1073.964,2.438,1.155
1.209000,943060,1000.00,12,0,1,770.799,-6.912,3.569,1073.724,1.975,1.188
1.210000,943061,1000.00,12,0,1,767.196,-11.800,3.893,1072.139,0.315,1.167
1.211000,943062,1000.00,12,0,1,764.050,-8.976,3.991,1073.099,0.639,1.170
1.212000,943063,1000.00,12,0,1,763.521,-9.666,4.034,1072.499,0.617,1.169
1.213000,943064,1000.00,12,0,1,769.358,-1.337,4.020,1074.301,1.248,1.182
1.214000,943065,1000.00,12,0,1,773.802,3.195,4.045,1073.220,1.144,1.180
1.215000,943066,1000.00,12,0,1,772.217,2.155,4.055,1072.523,-0.628,1.166
1.216000,943067,1000.00,12,0,1,778.942,5.349,4.125,1073.148,0.308,1.166
1.217000,943068,1000.00,12,0,1,776.060,4.278,4.169,1072.115,-0.610,1.139
1.218000,943069,1000.00,12,0,1,770.007,-4.701,4.198,1072.115,-0.975,1.120
1.219000,943070,1000.00,12,0,1,773.490,-2.420,4.162,1071.658,-0.827,1.126
1.220000,943071,1000.00,12,0,1,777.741,1.535,4.048,1072.235,-0.784,1.130
1.221000,943072,1000.00,12,0,1,777.333,0.239,3.933,1070.794,-1.171,1.140
1.222000,943073,1000.00,12,0,1,779.735,1.232,3.922,1071.995,-0.997,1.114
1.223000,943074,1000.00,12,0,1,780.288,1.811,3.895,1072.979,0.925,1.113
1.224000,943075,1000.00,12,0,1,781.056,1.748,3.840,1072.859,0.258,1.101
1.225000,943076,1000.00,12,0,1,780.288,1.539,3.839,1071.562,-0.542,1.084
1.226000,943077,1000.00,12,0,1,777.861,-0.322,3.839,1071.466,-1.011,1.091
1.227000,943078,1000.00,12,0,1,770.895,-5.015,3.904,1071.922,-0.207,1.089
1.228000,943079,1000.00,12,0,1,770.007,-5.406,3.971,1073.556,1.059,1.097
1.229000,943080,1000.00,12,0,1,771.088,-1.427,3.968,1073.388,1.221,1.103
1.230000,943081,1000.00,12,0,1,774.138,2.061,3.978,1072.475,0.009,1.102
1.231000,943082,1000.00,12,0,1,768.133,-0.490,3.966,1073.628,0.749,1.106
1.232000,943083,1000.00,12,0,1,763.065,-5.826,4.027,1072.835,0.535,1.099
1.233000,943084,1000.00,12,0,1,763.041,-3.973,4.060,1074.060,0.647,1.102
1.234000,943085,1000.00,12,0,1,767.629,0.454,4.049,1074.469,1.718,1.124
1.235000,943086,1000.00,12,0,1,776.348,8.029,4.200,1072.979,-0.258,1.123
1.236000,943087,1000.00,12,0,1,774.883,7.088,4.318,1073.268,-0.165,1.086
1.237000,943088,1000.00,12,0,1,770.727,-0.058,4.281,1073.316,0.070,1.059
1.238000,943089,1000.00,12,0,1,773.682,1.370,4.281,1071.298,-1.650,1.080
1.239000,943090,1000.00,12,0,1,779.375,4.966,4.335,1072.835,-0.764,1.025
1.240000,943091,1000.00,12,0,1,782.978,6.840,4.441,1072.331,-0.180,0.957
1.241000,943092,1000.00,12,0,1,782.185,4.268,4.452,1072.739,-0.639,0.948
1.242000,943093,1000.00,12,0,1,781.849,1.943,4.415,1073.820,0.889,0.941
1.243000,943094,1000.00,12,0,1,784.587,3.301,4.440,1073.220,0.190,0.938
1.244000,943095,1000.00,12,0,1,784.948,3.415,4.465,1072.619,-0.538,0.940
1.245000,943096,1000.00,12,0,1,781.224,-0.211,4.465,1071.995,-0.905,0.946
1.246000,943097,1000.00,12,0,1,774.210,-5.796,4.539,1071.971,-1.056,0.941
1.247000,943098,1000.00,12,0,1,769.358,-9.103,4.706,1072.307,-0.406,0.943
1.248000,943099,1000.00,12,0,1,770.199,-6.250,4.782,1072.595,-0.204,0.942
1.249000,943100,1000.00,12,0,1,766.932,-5.714,4.850,1072.163,-0.313,0.943
1.250000,943101,1000.00,12,0,1,767.605,-4.521,4.888,1072.547,-0.225,0.897
1.251000,943102,1000.00,12,0,1,767.484,-1.359,4.820,1072.787,0.329,0.889
1.252000,943103,1000.00,12,0,1,765.635,-2.603,4.725,1070.938,-1.202,0.904
1.253000,943104,1000.00,12,0,1,765.395,-1.733,4.706,1071.610,-0.962,0.905
1.254000,943105,1000.00,12,0,1,767.220,0.062,4.705,1073.436,1.201,0.893
1.255000,943106,1000.00,12,0,1,766.764,0.018,4.686,1073.820,1.448,0.913
1.256000,943107,1000.00,12,0,1,765.707,-1.756,4.674,1075.069,2.134,0.960
1.257000,943108,1000.00,12,0,1,770.967,1.513,4.648,1073.436,0.973,0.969
1.258000,943109,1000.00,12,0,1,772.817,3.447,4.574,1072.667,-0.617,0.910
1.259000,943110,1000.00,12,0,1,771.016,-0.348,4.469,1075.285,1.754,0.901
1.260000,943111,1000.00,12,0,1,771.808,-0.669,4.147,1075.357,2.059,0.946
1.261000,943112,1000.00,12,0,1,773.322,0.051,3.948,1073.124,-0.450,0.943
1.262000,943113,1000.00,12,0,1,772.697,-0.641,3.705,1074.493,0.202,0.940
1.263000,943114,1000.00,12,0,1,773.874,-0.149,3.700,1074.060,0.503,0.926
1.264000,943115,1000.00,12,0,1,776.204,2.494,3.689,1073.700,-0.577,0.915
1.265000,943116,1000.00,12,0,1,777.021,3.605,3.712,1074.060,0.070,0.911
1.266000,943117,1000.00,12,0,1,774.450,2.024,3.645,1073.124,-0.784,0.917
1.267000,943118,1000.00,12,0,1,772.217,0.424,3.595,1074.060,-0.299,0.914
1.268000,943119,1000.00,12,0,1,769.574,-0.405,3.533,1073.316,-0.293,0.904
1.269000,943120,1000.00,12,0,1,769.790,0.508,3.517,1073.220,-1.041,0.908
1.270000,943121,1000.00,12,0,1,768.133,1.053,3.514,1073.916,0.077,0.902
1.271000,943122,1000.00,12,0,1,767.653,0.710,3.515,1074.565,0.378,0.888
1.272000,943123,1000.00,12,0,1,773.562,6.123,3.616,1074.661,0.581,0.881
1.273000,943124,1000.00,12,0,1,787.950,17.512,4.375,1074.036,-0.175,0.871
1.274000,943125,1000.00,12,0,1,792.994,21.157,5.295,1072.859,-1.208,0.887
1.275000,943126,1000.00,12,0,1,762.248,-6.756,5.376,1072.355,-1.662,0.914
1.276000,943127,1000.00,12,0,1,754.249,-21.997,6.211,1073.580,-0.507,0.906
1.277000,943128,1000.00,12,0,1,767.292,-5.347,6.216,1076.655,2.226,0.959
1.278000,943129,1000.00,12,0,1,777.693,2.973,6.184,1075.429,1.559,0.972
1.279000,943130,1000.00,12,0,1,779.327,4.585,6.214,1074.541,-0.295,0.958
1.280000,943131,1000.00,12,0,1,776.660,-0.371,6.208,1074.373,-0.079,0.958
1.281000,943132,1000.00,12,0,1,770.103,-6.651,6.278,1076.030,0.838,0.959
1.282000,943133,1000.00,12,0,1,773.514,-5.310,6.269,1074.853,0.455,0.958
1.283000,943134,1000.00,12,0,1,776.901,-0.231,6.244,1073.892,-1.203,0.969
1.284000,943135,1000.00,12,0,1,772.937,-3.295,6.261,1073.412,-1.136,0.952
1.285000,943136,1000.00,12,0,1,768.854,-6.609,6.227,1075.886,0.595,0.955
1.286000,943137,1000.00,12,0,1,764.050,-8.255,6.256,1074.132,0.099,0.955
1.287000,943138,1000.00,12,0,1,762.873,-8.053,6.359,1072.667,-2.182,1.003
1.288000,943139,1000.00,12,0,1,764.626,-3.031,6.370,1074.469,-0.181,0.976
1.289000,943140,1000.00,12,0,1,762.128,-2.916,6.345,1073.244,-0.596,0.974
1.290000,943141,1000.00,12,0,1,760.350,-2.917,6.284,1073.916,-0.838,0.981
1.291000,943142,1000.00,12,0,1,765.539,2.683,6.267,1073.220,-0.305,0.977
1.292000,943143,1000.00,12,0,1,768.806,7.335,6.346,1071.874,-2.157,1.016
1.293000,943144,1000.00,12,0,1,772.817,9.347,6.466,1072.859,-0.806,1.022
1.294000,943145,1000.00,12,0,1,771.544,8.307,6.554,1074.036,0.386,1.021
1.295000,943146,1000.00,12,0,1,764.554,-0.002,6.554,1074.613,0.965,1.022
1.296000,943147,1000.00,12,0,1,762.680,-3.300,6.519,1072.811,-0.461,1.013
1.297000,943148,1000.00,12,0,1,762.728,-3.050,6.405,1072.523,-1.227,1.026
1.298000,943149,1000.00,12,0,1,764.962,-2.162,6.351,1074.661,0.985,1.035
1.299000,943150,1000.00,12,0,1,768.878,1.230,6.302,1075.454,1.805,1.065
1.300000,943151,1000.00,12,0,1,770.895,2.183,6.277,1072.499,-0.697,1.069
1.301000,943152,1000.00,12,0,1,773.297,3.190,6.290,1073.003,-1.085,1.079
1.302000,943153,1000.00,12,0,1,779.927,7.641,6.372,1073.868,0.631,1.069
1.303000,943154,1000.00,12,0,1,784.107,10.846,6.549,1074.589,0.793,1.067
1.304000,943155,1000.00,12,0,1,776.204,3.282,6.566,1074.565,1.110,1.065
1.305000,943156,1000.00,12,0,1,774.354,-0.996,6.567,1075.357,1.280,1.060
1.306000,943157,1000.00,12,0,1,779.351,4.815,6.598,1074.180,0.621,1.020
1.307000,943158,1000.00,12,0,1,773.322,0.949,6.596,1075.478,0.865,1.018
1.308000,943159,1000.00,12,0,1,765.419,-6.582,6.643,1074.012,0.461,1.017
1.309000,943160,1000.00,12,0,1,764.674,-5.630,6.690,1071.754,-2.280,1.037
1.310000,943161,1000.00,12,0,1,764.530,-3.512,6.708,1071.082,-2.422,1.053
1.311000,943162,1000.00,12,0,1,763.449,-3.106,6.723,1072.187,-1.229,1.065
1.312000,943163,1000.00,12,0,1,759.317,-5.141,6.761,1073.628,0.403,1.066
1.313000,943164,1000.00,12,0,1,752.351,-10.197,6.913,1073.508,0.560,1.067
1.314000,943165,1000.00,12,0,1,750.742,-10.853,7.073,1073.460,0.113,1.064
1.315000,943166,1000.00,12,0,1,759.438,-2.222,7.061,1074.012,0.755,1.069
1.316000,943167,1000.00,12,0,1,764.530,3.876,7.077,1074.949,1.234,1.078
1.317000,943168,1000.00,12,0,1,766.764,3.943,7.098,1074.228,0.799,1.083
1.318000,943169,1000.00,12,0,1,765.635,2.310,7.106,1073.508,-0.414,1.084
1.319000,943170,1000.00,12,0,1,765.010,-0.425,7.106,1074.997,0.841,1.080
1.320000,943171,1000.00,12,0,1,766.163,0.002,7.104,1074.973,1.040,1.090
1.321000,943172,1000.00,12,0,1,772.769,4.308,7.129,1075.646,0.992,1.098
1.322000,943173,1000.00,12,0,1,775.459,7.007,7.146,1075.910,1.441,1.113
1.323000,943174,1000.00,12,0,1,773.514,3.725,6.723,1075.742,0.782,1.119
1.324000,943175,1000.00,12,0,1,779.375,7.166,6.106,1073.172,-1.149,1.117
1.325000,943176,1000.00,12,0,1,774.931,5.426,6.079,1071.298,-3.200,1.183
1.326000,943177,1000.00,12,0,1,765.395,-4.904,5.269,1073.676,-0.836,1.186
1.327000,943178,1000.00,12,0,1,764.866,-4.057,5.246,1073.916,0.334,1.145
1.328000,943179,1000.00,12,0,1,767.076,0.020,5.229,1073.988,-0.173,1.124
1.329000,943180,1000.00,12,0,1,767.893,2.241,5.198,1074.156,0.459,1.125
1.330000,943181,1000.00,12,0,1,765.251,1.222,5.201,1073.388,-0.430,1.126
1.331000,943182,1000.00,12,0,1,768.830,3.631,5.141,1073.172,-0.590,1.123
1.332000,943183,1000.00,12,0,1,772.817,8.398,5.222,1071.995,-1.343,1.137
1.333000,943184,1000.00,12,0,1,759.125,-3.062,5.240,1072.931,-0.851,1.131
1.334000,943185,1000.00,12,0,1,758.068,-7.933,5.339,1072.739,-0.238,1.120
1.335000,943186,1000.00,12,0,1,760.687,-2.247,5.266,1073.124,-0.464,1.119
1.336000,943187,1000.00,12,0,1,763.017,-2.289,5.145,1073.436,0.312,1.119
1.337000,943188,1000.00,12,0,1,765.179,0.092,5.017,1073.748,0.228,1.077
1.338000,943189,1000.00,12,0,1,768.637,1.092,5.001,1074.325,0.812,1.082
1.339000,943190,1000.00,12,0,1,769.430,1.244,4.987,1072.163,-0.866,1.086
1.340000,943191,1000.00,12,0,1,771.616,0.996,4.972,1072.259,-1.418,1.098
1.341000,943192,1000.00,12,0,1,770.319,-0.378,4.958,1072.475,-0.320,1.098
1.342000,943193,1000.00,12,0,1,768.205,-3.446,4.873,1073.532,0.172,1.055
1.343000,943194,1000.00,12,0,1,767.460,-3.906,4.722,1072.379,0.022,1.049
1.344000,943195,1000.00,12,0,1,770.007,-1.151,4.577,1072.427,-0.638,1.051
1.345000,943196,1000.00,12,0,1,774.042,3.207,4.599,1073.700,1.099,1.054
1.346000,943197,1000.00,12,0,1,776.396,6.157,4.658,1072.475,0.188,1.052
1.347000,943198,1000.00,12,0,1,773.249,3.833,4.669,1072.595,-0.140,1.038
1.348000,943199,1000.00,12,0,1,763.881,-3.432,4.684,1074.517,1.865,1.062
1.349000,943200,1000.00,12,0,1,765.251,-2.930,4.700,1073.940,1.434,1.051
1.350000,943201,1000.00,12,0,1,769.022,3.785,4.720,1072.883,0.099,1.046
1.351000,943202,1000.00,12,0,1,761.431,-1.879,4.706,1072.331,-0.396,1.036
1.352000,943203,1000.00,12,0,1,756.267,-6.836,4.681,1074.397,1.096,1.044
1.353000,943204,1000.00,12,0,1,757.035,-4.614,4.470,1071.610,-0.445,1.040
1.354000,943205,1000.00,12,0,1,755.931,-4.368,4.489,1071.538,-1.859,1.061
1.355000,943206,1000.00,12,0,1,756.723,-3.805,4.519,1072.235,-0.068,1.046
1.356000,943207,1000.00,12,0,1,762.032,0.750,4.469,1073.099,0.119,1.042
1.357000,943208,1000.00,12,0,1,762.032,1.000,4.469,1073.892,1.150,1.047
1.358000,943209,1000.00,12,0,1,761.503,-1.615,4.377,1072.739,0.044,1.045
1.359000,943210,1000.00,12,0,1,763.521,-0.431,4.304,1071.898,-1.050,1.006
1.360000,943211,1000.00,12,0,1,763.881,-0.838,4.277,1072.451,-0.333,0.947
1.361000,943212,1000.00,12,0,1,765.443,-0.511,4.255,1072.739,-0.019,0.930
1.362000,943213,1000.00,12,0,1,767.557,1.265,4.196,1073.388,0.600,0.933
1.363000,943214,1000.00,12,0,1,773.418,5.364,4.013,1074.661,1.568,0.955
1.364000,943215,1000.00,12,0,1,775.531,7.929,3.874,1073.124,0.567,0.959
1.365000,943216,1000.00,12,0,1,777.645,7.990,4.023,1070.289,-2.332,1.008
1.366000,943217,1000.00,12,0,1,777.117,8.079,4.146,1070.697,-1.878,1.028
1.367000,943218,1000.00,12,0,1,764.242,-2.652,4.125,1072.019,-0.083,1.022
1.368000,943219,1000.00,12,0,1,760.687,-7.127,4.234,1073.364,1.141,1.033
1.369000,943220,1000.00,12,0,1,757.924,-4.941,4.291,1074.709,2.338,1.078
1.370000,943221,1000.00,12,0,1,756.387,-5.860,4.370,1072.595,0.610,1.071
1.371000,943222,1000.00,12,0,1,755.306,-3.420,4.354,1072.355,-0.493,1.064
1.372000,943223,1000.00,12,0,1,749.205,-7.182,4.360,1072.979,0.583,1.048
1.373000,943224,1000.00,12,0,1,750.502,-5.700,4.403,1072.811,0.152,1.042
1.374000,943225,1000.00,12,0,1,749.445,-3.527,4.313,1072.427,-0.158,1.030
1.375000,943226,1000.00,12,0,1,753.264,-1.797,4.252,1073.532,0.506,0.928
1.376000,943227,1000.00,12,0,1,761.311,6.362,4.291,1073.748,0.921,0.929
1.377000,943228,1000.00,12,0,1,770.415,11.860,4.571,1074.517,1.040,0.940
1.378000,943229,1000.00,12,0,1,773.249,12.811,4.917,1073.820,0.627,0.943
1.379000,943230,1000.00,12,0,1,770.343,6.335,4.988,1074.493,0.470,0.943
1.380000,943231,1000.00,12,0,1,769.454,2.499,4.997,1073.724,0.261,0.942
1.381000,943232,1000.00,12,0,1,772.769,3.451,4.995,1074.277,-0.020,0.939
1.382000,943233,1000.00,12,0,1,770.127,0.693,4.852,1074.757,0.834,0.927
1.383000,943234,1000.00,12,0,1,766.812,-3.771,4.862,1076.318,1.602,0.946
1.384000,943235,1000.00,12,0,1,767.773,-2.588,4.745,1074.925,0.824,0.953
1.385000,943236,1000.00,12,0,1,766.091,-2.386,4.747,1074.228,-0.679,0.955
1.386000,943237,1000.00,12,0,1,760.422,-6.188,4.816,1074.012,-0.457,0.957
1.387000,943238,1000.00,12,0,1,755.306,-8.547,4.965,1074.180,-0.491,0.959
1.388000,943239,1000.00,12,0,1,757.636,-4.632,5.006,1074.060,-0.396,0.953
1.389000,943240,1000.00,12,0,1,759.221,0.499,5.003,1073.628,-0.737,0.951
1.390000,943241,1000.00,12,0,1,753.504,-2.726,5.016,1072.787,-1.420,0.951
1.391000,943242,1000.00,12,0,1,748.388,-6.059,5.089,1072.715,-1.365,0.970
1.392000,943243,1000.00,12,0,1,750.334,-3.012,5.083,1072.307,-1.456,0.991
1.393000,943244,1000.00,12,0,1,755.186,2.721,5.068,1074.277,0.086,0.991
1.394000,943245,1000.00,12,0,1,759.197,6.151,5.139,1074.277,0.689,0.992
1.395000,943246,1000.00,12,0,1,761.551,7.019,5.214,1073.988,-0.203,0.980
1.396000,943247,1000.00,12,0,1,763.593,6.672,5.227,1073.556,-0.357,0.981
1.397000,943248,1000.00,12,0,1,765.323,5.867,5.265,1072.451,-1.436,1.001
1.398000,943249,1000.00,12,0,1,767.196,4.926,5.288,1073.676,-0.574,0.969
1.399000,943250,1000.00,12,0,1,767.605,3.113,5.290,1074.373,0.599,0.952
1.400000,943251,1000.00,12,0,1,760.350,-4.379,5.300,1074.036,-0.038,0.952
1.401000,943252,1000.00,12,0,1,764.362,-4.117,5.325,1073.460,-0.367,0.951
1.402000,943253,1000.00,12,0,1,768.517,1.879,5.243,1075.189,0.727,0.944
1.403000,943254,1000.00,12,0,1,766.692,-0.879,5.204,1073.508,0.143,0.942
1.404000,943255,1000.00,12,0,1,762.032,-4.024,5.198,1074.228,-0.377,0.907
1.405000,943256,1000.00,12,0,1,756.843,-7.637,5.282,1073.580,0.278,0.907
1.406000,943257,1000.00,12,0,1,755.114,-7.191,5.378,1074.228,-0.101,0.907
1.407000,943258,1000.00,12,0,1,758.044,-1.996,5.383,1073.772,0.441,0.895
1.408000,943259,1000.00,12,0,1,758.933,1.467,5.383,1075.213,0.861,0.903
1.409000,943260,1000.00,12,0,1,758.116,2.174,5.391,1075.021,1.435,0.914
1.410000,943261,1000.00,12,0,1,766.476,9.210,5.545,1073.628,-0.382,0.914
1.411000,943262,1000.00,12,0,1,779.014,20.744,6.273,1072.883,-1.011,0.925
1.412000,943263,1000.00,12,0,1,759.606,5.223,6.313,1073.460,-0.447,0.923
1.413000,943264,1000.00,12,0,1,751.102,-9.631,6.414,1072.955,-0.657,0.901
1.414000,943265,1000.00,12,0,1,760.398,1.288,6.318,1073.340,-0.472,0.900
1.415000,943266,1000.00,12,0,1,767.316,6.283,6.279,1073.099,-0.427,0.840
1.416000,943267,1000.00,12,0,1,767.292,4.963,6.214,1074.132,0.189,0.797
1.417000,943268,1000.00,12,0,1,758.405,-4.637,6.237,1074.301,0.614,0.802
1.418000,943269,1000.00,12,0,1,749.037,-14.977,6.510,1075.429,1.072,0.800
1.419000,943270,1000.00,12,0,1,749.205,-14.591,6.793,1075.910,1.614,0.763
1.420000,943271,1000.00,12,0,1,751.463,-10.898,6.916,1075.141,0.561,0.762
1.421000,943272,1000.00,12,0,1,755.666,-6.260,6.956,1075.478,0.437,0.762
1.422000,943273,1000.00,12,0,1,758.717,-2.188,6.888,1075.021,0.287,0.758
1.423000,943274,1000.00,12,0,1,759.894,-0.433,6.841,1076.198,0.656,0.764
1.424000,943275,1000.00,12,0,1,761.840,1.754,6.827,1076.582,1.507,0.792
1.425000,943276,1000.00,12,0,1,758.501,0.654,6.823,1075.502,0.045,0.789
1.426000,943277,1000.00,12,0,1,756.003,-1.551,6.767,1073.196,-1.721,0.816
1.427000,943278,1000.00,12,0,1,755.738,0.519,6.557,1074.108,-1.383,0.826
1.428000,943279,1000.00,12,0,1,757.852,3.330,6.319,1074.373,-0.152,0.821
1.429000,943280,1000.00,12,0,1,759.726,6.678,6.326,1075.598,0.370,0.820
1.430000,943281,1000.00,12,0,1,760.879,7.789,6.411,1074.997,0.536,0.823
1.431000,943282,1000.00,12,0,1,754.874,3.471,6.412,1074.349,-0.668,0.828
1.432000,943283,1000.00,12,0,1,754.922,1.522,6.414,1074.421,-0.362,0.821
1.433000,943284,1000.00,12,0,1,758.357,5.597,6.441,1073.508,-1.057,0.804
1.434000,943285,1000.00,12,0,1,755.834,2.717,6.442,1072.451,-2.060,0.847
1.435000,943286,1000.00,12,0,1,754.249,-0.504,6.434,1071.754,-2.300,0.902
1.436000,943287,1000.00,12,0,1,756.075,0.385,6.374,1073.628,-0.825,0.907
1.437000,943288,1000.00,12,0,1,753.745,-2.260,6.267,1073.292,-0.158,0.905
1.438000,943289,1000.00,12,0,1,753.697,-4.024,6.258,1073.604,-0.670,0.908
1.439000,943290,1000.00,12,0,1,761.023,1.448,6.261,1074.108,0.420,0.904
1.440000,943291,1000.00,12,0,1,757.996,-0.135,6.249,1071.634,-1.739,0.915
1.441000,943292,1000.00,12,0,1,757.900,-3.533,6.210,1072.739,-1.237,0.911
1.442000,943293,1000.00,12,0,1,759.534,-0.419,6.196,1072.571,-0.185,0.888
1.443000,943294,1000.00,12,0,1,764.122,2.127,6.191,1071.466,-1.572,0.915
1.444000,943295,1000.00,12,0,1,762.056,2.360,6.139,1072.739,-0.038,0.910
1.445000,943296,1000.00,12,0,1,754.489,-4.936,6.098,1075.502,2.481,0.975
1.446000,943297,1000.00,12,0,1,754.321,-4.423,6.057,1073.556,1.416,0.994
1.447000,943298,1000.00,12,0,1,755.210,-0.753,6.001,1073.844,0.472,0.976
1.448000,943299,1000.00,12,0,1,752.904,-1.518,5.964,1073.844,1.386,0.992
1.449000,943300,1000.00,12,0,1,750.021,-2.166,5.956,1074.637,1.283,1.005
1.450000,943301,1000.00,12,0,1,747.908,-2.801,5.937,1072.595,0.261,1.005
1.451000,943302,1000.00,12,0,1,746.106,-2.530,5.919,1073.220,-0.265,1.005
1.452000,943303,1000.00,12,0,1,746.394,-1.561,5.917,1073.340,0.786,1.005
1.453000,943304,1000.00,12,0,1,749.829,2.241,5.925,1073.388,0.212,1.006
1.454000,943305,1000.00,12,0,1,751.511,3.917,5.923,1073.796,0.736,1.010
1.455000,943306,1000.00,12,0,1,752.063,3.275,5.842,1073.676,0.527,1.012
1.456000,943307,1000.00,12,0,1,752.736,2.709,5.766,1074.349,0.694,1.016
1.457000,943308,1000.00,12,0,1,753.745,2.082,5.766,1074.036,0.685,1.019
1.458000,943309,1000.00,12,0,1,754.321,1.301,5.766,1072.667,-1.003,1.022
1.459000,943310,1000.00,12,0,1,760.254,4.276,5.789,1072.859,-0.821,1.008
1.460000,943311,1000.00,12,0,1,762.392,5.937,5.703,1074.685,0.681,1.011
1.461000,943312,1000.00,12,0,1,759.029,0.851,4.892,1074.277,0.747,1.007
1.462000,943313,1000.00,12,0,1,759.149,-0.415,4.836,1072.907,-0.961,1.014
1.463000,943314,1000.00,12,0,1,760.807,1.246,4.644,1072.331,-1.267,1.025
1.464000,943315,1000.00,12,0,1,756.075,-2.186,4.650,1074.108,0.154,1.023
1.465000,943316,1000.00,12,0,1,752.520,-5.348,4.627,1074.661,1.227,1.036
1.466000,943317,1000.00,12,0,1,752.231,-3.673,4.603,1072.307,-0.935,1.044
1.467000,943318,1000.00,12,0,1,749.373,-3.887,4.589,1072.235,-1.334,1.058
1.468000,943319,1000.00,12,0,1,746.418,-4.915,4.130,1073.388,0.279,1.047
1.469000,943320,1000.00,12,0,1,749.901,-0.262,3.577,1073.196,0.200,1.023
1.470000,943321,1000.00,12,0,1,751.102,3.224,3.260,1072.739,-0.176,1.020
1.471000,943322,1000.00,12,0,1,747.860,0.772,3.140,1071.898,-0.782,1.024
1.472000,943323,1000.00,12,0,1,748.412,1.007,3.128,1072.787,-0.157,1.023
1.473000,943324,1000.00,12,0,1,750.358,3.248,3.161,1072.331,0.009,1.019
1.474000,943325,1000.00,12,0,1,749.541,1.942,3.163,1072.403,-0.401,0.998
1.475000,943326,1000.00,12,0,1,747.667,-0.642,3.163,1071.442,-0.685,1.003
1.476000,943327,1000.00,12,0,1,749.661,-0.330,3.156,1070.914,-1.502,0.996
1.477000,943328,1000.00,12,0,1,749.397,-0.613,3.156,1071.778,-0.417,0.978
1.478000,943329,1000.00,12,0,1,751.991,-0.535,3.122,1071.995,-0.003,0.978
1.479000,943330,1000.00,12,0,1,754.778,1.842,2.987,1072.187,0.033,0.977
1.480000,943331,1000.00,12,0,1,760.014,4.287,2.842,1073.868,1.443,0.995
1.481000,943332,1000.00,12,0,1,759.942,4.339,2.865,1073.676,1.448,1.011
1.482000,943333,1000.00,12,0,1,758.885,1.139,2.862,1072.619,0.100,1.010
1.483000,943334,1000.00,12,0,1,752.616,-3.364,2.791,1072.499,-0.086,0.999
1.484000,943335,1000.00,12,0,1,748.196,-7.881,2.981,1073.460,0.759,0.962
1.485000,943336,1000.00,12,0,1,746.923,-6.582,3.122,1071.995,-0.140,0.905
1.486000,943337,1000.00,12,0,1,745.578,-5.536,3.218,1073.268,0.275,0.898
1.487000,943338,1000.00,12,0,1,747.980,-1.724,3.211,1074.349,1.969,0.940
1.488000,943339,1000.00,12,0,1,747.956,1.282,3.166,1074.733,1.733,0.967
1.489000,943340,1000.00,12,0,1,749.613,2.796,3.184,1074.661,1.682,0.994
1.490000,943341,1000.00,12,0,1,750.334,5.402,3.274,1073.700,0.554,0.966
1.491000,943342,1000.00,12,0,1,749.397,3.990,3.285,1073.652,0.170,0.951
1.492000,943343,1000.00,12,0,1,750.814,5.049,3.361,1073.196,0.000,0.950
1.493000,943344,1000.00,12,0,1,748.628,3.020,3.374,1073.580,-0.108,0.924
1.494000,943345,1000.00,12,0,1,746.755,-0.258,3.358,1073.051,-0.147,0.924
1.495000,943346,1000.00,12,0,1,743.920,-2.777,3.308,1071.874,-1.535,0.882
1.496000,943347,1000.00,12,0,1,747.860,-1.407,3.255,1071.634,-1.569,0.888
1.497000,943348,1000.00,12,0,1,753.192,3.665,3.294,1071.586,-1.436,0.908
1.498000,943349,1000.00,12,0,1,745.434,-3.586,3.326,1072.979,-0.256,0.887
1.499000,943350,1000.00,12,0,1,752.159,-1.939,3.323,1072.667,-0.035,0.869
1.500000,943351,1000.00,12,0,1,757.852,5.922,3.404,1074.252,0.595,0.872
1.501000,943352,1000.00,12,0,1,754.465,0.356,3.385,1074.325,1.323,0.891
1.502000,943353,1000.00,12,0,1,750.958,-2.927,3.403,1072.091,-1.192,0.900
1.503000,943354,1000.00,12,0,1,750.238,-3.693,3.429,1070.818,-2.273,0.955
1.504000,943355,1000.00,12,0,1,749.037,-3.305,3.416,1072.619,-0.656,0.954
1.505000,943356,1000.00,12,0,1,744.713,-5.443,3.471,1072.259,-0.126,0.951
1.506000,943357,1000.00,12,0,1,742.095,-6.451,3.568,1072.955,-0.064,0.946
1.507000,943358,1000.00,12,0,1,741.470,-4.169,3.604,1073.988,1.378,0.961
1.508000,943359,1000.00,12,0,1,740.918,-2.671,3.619,1074.349,1.445,0.972
1.509000,943360,1000.00,12,0,1,738.900,-2.000,3.580,1074.589,1.524,0.989
1.510000,943361,1000.00,12,0,1,736.041,-3.120,3.508,1073.196,0.363,0.986
1.511000,943362,1000.00,12,0,1,737.170,-0.939,3.508,1071.971,-1.104,0.993
1.512000,943363,1000.00,12,0,1,740.533,3.128,3.536,1072.547,-0.402,0.985
1.513000,943364,1000.00,12,0,1,740.005,3.206,3.560,1073.220,0.322,0.969
1.514000,943365,1000.00,12,0,1,741.638,3.184,3.575,1072.019,-0.480,0.972
1.515000,943366,1000.00,12,0,1,744.473,5.286,3.573,1073.268,0.017,0.956
1.516000,943367,1000.00,12,0,1,751.511,8.965,3.756,1073.820,1.154,0.961
1.517000,943368,1000.00,12,0,1,751.991,8.799,3.918,1072.595,-0.384,0.944
1.518000,943369,1000.00,12,0,1,754.033,6.251,3.956,1073.027,-0.220,0.943
1.519000,943370,1000.00,12,0,1,758.885,9.071,4.159,1073.868,0.641,0.947
1.520000,943371,1000.00,12,0,1,760.567,8.151,4.291,1072.763,-0.336,0.948
1.521000,943372,1000.00,12,0,1,760.783,5.968,4.372,1074.180,0.320,0.943
1.522000,943373,1000.00,12,0,1,758.501,2.818,4.388,1071.658,-0.935,0.952
1.523000,943374,1000.00,12,0,1,751.511,-4.000,4.400,1070.337,-3.085,1.047
1.524000,943375,1000.00,12,0,1,745.193,-9.205,4.581,1070.794,-1.682,1.072
1.525000,943376,1000.00,12,0,1,744.425,-8.493,4.735,1073.676,0.626,1.071
1.526000,943377,1000.00,12,0,1,747.115,-3.516,4.761,1073.604,1.504,1.071
1.527000,943378,1000.00,12,0,1,745.938,-2.127,4.769,1071.730,-0.712,1.075
1.528000,943379,1000.00,12,0,1,745.746,-1.377,4.773,1074.469,1.302,1.090
1.529000,943380,1000.00,12,0,1,748.100,2.139,4.775,1074.901,2.590,1.150
1.530000,943381,1000.00,12,0,1,749.109,3.801,4.767,1072.019,-0.682,1.136
1.531000,943382,1000.00,12,0,1,745.506,0.907,4.729,1072.139,-0.762,1.122
1.532000,943383,1000.00,12,0,1,745.121,-0.569,4.727,1074.301,1.289,1.137
1.533000,943384,1000.00,12,0,1,744.761,-0.410,4.703,1072.667,0.375,1.138
1.534000,943385,1000.00,12,0,1,743.824,-2.306,4.581,1073.772,0.223,1.134
1.535000,943386,1000.00,12,0,1,743.728,-2.925,4.504,1073.628,1.072,1.144
1.536000,943387,1000.00,12,0,1,744.977,-2.707,4.452,1074.277,0.544,1.145
1.537000,943388,1000.00,12,0,1,745.193,-3.008,4.466,1072.451,-0.238,1.112
1.538000,943389,1000.00,12,0,1,746.635,-2.800,4.480,1072.595,-1.211,1.098
1.539000,943390,1000.00,12,0,1,747.067,-2.545,4.477,1073.172,0.084,1.072
1.540000,943391,1000.00,12,0,1,748.076,-2.352,4.424,1071.754,-1.289,1.084
1.541000,943392,1000.00,12,0,1,755.258,3.273,4.412,1072.019,-1.296,1.099
1.542000,943393,1000.00,12,0,1,761.431,9.147,4.542,1073.580,0.503,1.102
1.543000,943394,1000.00,12,0,1,761.840,8.426,4.676,1072.619,-0.216,1.102
1.544000,943395,1000.00,12,0,1,749.541,-1.767,4.683,1071.850,-1.080,1.112
1.545000,943396,1000.00,12,0,1,741.542,-10.310,4.889,1072.955,-0.101,1.091
1.546000,943397,1000.00,12,0,1,740.029,-8.201,5.020,1073.532,0.791,1.074
1.547000,943398,1000.00,12,0,1,741.999,-4.471,5.033,1072.955,0.110,1.055
1.548000,943399,1000.00,12,0,1,751.150,5.405,5.066,1072.955,0.080,1.054
1.549000,943400,1000.00,12,0,1,767.557,20.070,5.800,1072.691,-0.043,1.054
1.550000,943401,1000.00,12,0,1,746.034,5.065,5.784,1073.796,0.717,1.056
1.551000,943402,1000.00,12,0,1,721.533,-22.700,6.615,1073.340,0.729,1.044
1.552000,943403,1000.00,12,0,1,724.223,-17.505,7.051,1071.874,-0.893,1.038
1.553000,943404,1000.00,12,0,1,734.792,-4.588,7.061,1073.172,0.089,0.987
1.554000,943405,1000.00,12,0,1,744.256,4.533,7.075,1073.652,1.006,0.993
1.555000,943406,1000.00,12,0,1,748.148,8.076,7.125,1073.388,0.353,0.994
1.556000,943407,1000.00,12,0,1,739.332,-1.160,7.068,1072.115,-0.531,0.997
1.557000,943408,1000.00,12,0,1,740.605,-3.467,7.061,1074.325,0.657,0.982
1.558000,943409,1000.00,12,0,1,746.250,2.317,7.058,1073.820,1.193,0.975
1.559000,943410,1000.00,12,0,1,740.413,-2.905,7.065,1073.820,-0.002,0.951
1.560000,943411,1000.00,12,0,1,736.618,-8.160,7.145,1074.180,0.820,0.957
1.561000,943412,1000.00,12,0,1,741.278,-2.924,7.155,1073.724,-0.010,0.944
1.562000,943413,1000.00,12,0,1,745.097,1.565,7.145,1074.853,0.712,0.948
1.563000,943414,1000.00,12,0,1,746.490,3.418,7.147,1072.235,-0.938,0.956
1.564000,943415,1000.00,12,0,1,753.072,8.617,7.236,1071.826,-2.370,1.011
1.565000,943416,1000.00,12,0,1,753.841,10.944,7.362,1074.373,0.716,1.016
1.566000,943417,1000.00,12,0,1,749.469,5.809,7.298,1073.099,-0.132,1.003
1.567000,943418,1000.00,12,0,1,742.359,0.469,7.192,1071.082,-2.177,1.048
1.568000,943419,1000.00,12,0,1,738.275,-3.066,7.150,1073.820,0.061,1.047
1.569000,943420,1000.00,12,0,1,737.026,-2.154,7.041,1072.835,0.384,1.045
1.570000,943421,1000.00,12,0,1,734.768,-2.587,6.956,1071.226,-1.876,1.077
1.571000,943422,1000.00,12,0,1,733.928,-2.507,6.913,1072.451,-0.364,1.077
1.572000,943423,1000.00,12,0,1,735.705,-0.016,6.902,1071.538,-0.622,1.072
1.573000,943424,1000.00,12,0,1,740.221,3.687,6.898,1072.019,-0.671,0.984
1.574000,943425,1000.00,12,0,1,738.011,2.291,6.782,1071.898,0.030,0.955
1.575000,943426,1000.00,12,0,1,739.645,0.648,6.676,1073.364,0.627,0.955
1.576000,943427,1000.00,12,0,1,740.221,1.638,6.661,1074.060,1.893,0.969
1.577000,943428,1000.00,12,0,1,742.935,1.037,6.656,1071.538,-0.662,0.968
1.578000,943429,1000.00,12,0,1,743.896,1.799,6.658,1072.379,-0.515,0.953
1.579000,943430,1000.00,12,0,1,745.578,0.784,6.652,1073.676,1.267,0.898
1.580000,943431,1000.00,12,0,1,747.643,2.053,6.637,1072.859,0.276,0.894
1.581000,943432,1000.00,12,0,1,745.217,-0.654,6.636,1073.340,0.421,0.889
1.582000,943433,1000.00,12,0,1,745.169,-1.923,6.641,1073.027,0.386,0.872
1.583000,943434,1000.00,12,0,1,745.241,-0.535,6.641,1072.619,-0.286,0.871
1.584000,943435,1000.00,12,0,1,747.427,1.013,6.635,1072.835,0.029,0.871
1.585000,943436,1000.00,12,0,1,740.461,-2.110,6.629,1071.562,-0.858,0.866
1.586000,943437,1000.00,12,0,1,735.393,-7.390,6.700,1074.012,0.692,0.868
1.587000,943438,1000.00,12,0,1,736.065,-3.494,6.704,1073.868,1.638,0.898
1.588000,943439,1000.00,12,0,1,736.978,-0.834,6.694,1072.427,-0.541,0.885
1.589000,943440,1000.00,12,0,1,738.540,2.145,6.691,1071.178,-1.173,0.900
1.590000,943441,1000.00,12,0,1,740.894,5.084,6.721,1074.228,0.856,0.890
1.591000,943442,1000.00,12,0,1,742.719,6.631,6.770,1072.715,0.888,0.880
1.592000,943443,1000.00,12,0,1,749.589,11.168,6.831,1072.307,-0.910,0.886
1.593000,943444,1000.00,12,0,1,743.704,6.462,6.788,1074.541,1.667,0.917
1.594000,943445,1000.00,12,0,1,730.132,-8.550,6.890,1073.772,1.041,0.916
1.595000,943446,1000.00,12,0,1,726.986,-12.446,6.960,1074.421,0.720,0.921
1.596000,943447,1000.00,12,0,1,731.165,-7.617,6.947,1072.907,0.131,0.915
1.597000,943448,1000.00,12,0,1,735.081,-3.822,6.939,1072.883,-1.068,0.927
1.598000,943449,1000.00,12,0,1,740.269,0.311,6.897,1071.706,-0.998,0.937
1.599000,943450,1000.00,12,0,1,738.227,-1.168,6.288,1073.844,-0.289,0.938
1.600000,943451,1000.00,12,0,1,742.575,0.052,6.247,1074.829,1.794,0.967
1.601000,943452,1000.00,12,0,1,742.431,1.871,5.366,1074.781,0.752,0.967
1.602000,943453,1000.00,12,0,1,738.275,-3.310,4.784,1074.949,1.030,0.970
1.603000,943454,1000.00,12,0,1,740.822,-0.742,4.741,1074.541,0.374,0.971
1.604000,943455,1000.00,12,0,1,741.134,1.506,4.702,1074.421,0.009,0.961
1.605000,943456,1000.00,12,0,1,734.624,-3.331,4.585,1072.307,-1.435,0.981
1.606000,943457,1000.00,12,0,1,734.336,-2.931,4.601,1071.106,-2.936,1.062
1.607000,943458,1000.00,12,0,1,734.792,0.345,4.575,1071.802,-1.600,1.082
1.608000,943459,1000.00,12,0,1,738.131,3.888,4.596,1072.283,-0.923,1.077
1.609000,943460,1000.00,12,0,1,737.266,5.327,4.640,1072.451,-0.423,1.078
1.610000,943461,1000.00,12,0,1,725.280,-4.329,4.535,1071.850,-0.784,1.078
1.611000,943462,1000.00,12,0,1,725.881,-5.322,4.579,1073.075,0.148,1.078
1.612000,943463,1000.00,12,0,1,736.642,6.690,4.670,1074.541,1.748,1.102
1.613000,943464,1000.00,12,0,1,740.870,10.242,4.866,1073.316,0.639,1.097
1.614000,943465,1000.00,12,0,1,738.780,6.711,4.805,1071.538,-1.261,1.060
1.615000,943466,1000.00,12,0,1,738.540,3.769,4.580,1072.499,-0.566,1.058
1.616000,943467,1000.00,12,0,1,736.498,0.964,4.508,1071.202,-0.957,1.067
1.617000,943468,1000.00,12,0,1,730.493,-5.834,4.583,1073.460,0.089,1.021
1.618000,943469,1000.00,12,0,1,729.460,-8.055,4.702,1074.877,2.380,1.075
1.619000,943470,1000.00,12,0,1,732.414,-4.829,4.742,1074.012,0.854,1.081
1.620000,943471,1000.00,12,0,1,734.840,-2.514,4.741,1073.652,0.397,1.049
1.621000,943472,1000.00,12,0,1,737.939,0.253,4.728,1073.988,0.519,1.050
1.622000,943473,1000.00,12,0,1,739.524,1.977,4.736,1072.331,-0.726,1.052
1.623000,943474,1000.00,12,0,1,743.632,4.955,4.759,1071.874,-1.451,1.067
1.624000,943475,1000.00,12,0,1,746.827,8.311,4.891,1071.394,-1.298,1.083
1.625000,943476,1000.00,12,0,1,744.449,6.010,4.964,1072.643,-0.334,1.080
1.626000,943477,1000.00,12,0,1,741.422,2.841,4.975,1073.388,0.895,1.054
1.627000,943478,1000.00,12,0,1,733.952,-2.323,4.983,1073.940,1.113,1.062
1.628000,943479,1000.00,12,0,1,731.526,-4.750,5.022,1075.117,2.037,1.098
1.629000,943480,1000.00,12,0,1,732.294,-1.391,5.025,1074.709,1.687,1.109
1.630000,943481,1000.00,12,0,1,731.285,-1.268,5.019,1073.292,-0.042,1.108
1.631000,943482,1000.00,12,0,1,728.979,-2.204,5.028,1073.268,-0.216,1.107
1.632000,943483,1000.00,12,0,1,732.967,0.898,5.022,1074.877,1.036,1.115
