# FW/GUI: v9.6.1-multi17-dual (PyQt5)
# StartTime: 2026-04-03 16:24:47
# Slot: 13
# DeviceID: 13
# Label: EMG13
# IP: 192.168.137.206
# TCP: 3333
# DeviceFW: EMG_FW_v9.6_MULTI17_DUALCH_RUNTIMECFG_CHEN
# IMU1_RefTime = format(imu_ms) = relative since power-on Time (IMU acquisition time)
IMU1_RefTime,ax_g,ay_g,az_g,gx_dps,gy_dps,gz_dps,mx_uT,my_uT,mz_uT,temp_C,qw,qx,qy,qz
'00:16:40.954,0.060059,0.029297,1.005371,0.243902,1.280488,-0.609756,-4.781250,17.543751,19.293751,30.903,0.56846653,-0.00981272,-0.02885119,-0.82214179
'00:16:40.964,0.060059,0.028809,1.004395,0.426829,1.341463,-0.548781,-5.000000,17.887501,19.550001,30.903,0.56846594,-0.00980903,-0.02885154,-0.82214223
'00:16:40.976,0.060547,0.029785,1.004395,0.304878,1.341463,-0.548781,-5.000000,17.887501,19.550001,30.918,0.56846485,-0.00981059,-0.02885022,-0.82214301
'00:16:40.984,0.060059,0.028320,1.004883,0.304878,1.341463,-0.548781,-5.012500,17.906250,19.493750,30.903,0.56846425,-0.00981340,-0.02884094,-0.82214372
'00:16:40.994,0.058594,0.029297,1.003418,0.365854,1.280488,-0.548781,-5.012500,17.906250,19.493750,30.933,0.56846324,-0.00980683,-0.02883729,-0.82214462
'00:16:41.004,0.060059,0.029297,1.003906,0.365854,1.341463,-0.548781,-4.856250,17.662500,19.393751,30.903,0.56846773,-0.00980966,-0.02884241,-0.82214130
'00:16:41.016,0.059082,0.029297,1.003418,0.304878,1.341463,-0.548781,-4.856250,17.662500,19.393751,30.948,0.56847307,-0.00981028,-0.02883889,-0.82213773
'00:16:41.024,0.060059,0.029297,1.005371,0.304878,1.280488,-0.548781,-4.856250,17.593750,19.375000,30.918,0.56847524,-0.00981735,-0.02884010,-0.82213610
'00:16:41.034,0.059082,0.028809,1.004395,0.365854,1.280488,-0.548781,-4.856250,17.593750,19.375000,30.903,0.56847811,-0.00981979,-0.02883980,-0.82213410
'00:16:41.044,0.059570,0.028809,1.003906,0.365854,1.341463,-0.548781,-4.781250,17.500000,19.287500,30.873,0.56848447,-0.00982370,-0.02884235,-0.82212957
'00:16:41.056,0.059082,0.028809,1.003418,0.243902,1.341463,-0.548781,-4.781250,17.500000,19.287500,30.888,0.56849195,-0.00983243,-0.02883278,-0.82212462
'00:16:41.064,0.058594,0.029785,1.004395,0.365854,1.341463,-0.609756,-4.893750,17.700001,19.531250,30.873,0.56849009,-0.00982500,-0.02883252,-0.82212601
'00:16:41.074,0.060059,0.028320,1.002930,0.304878,1.280488,-0.609756,-4.893750,17.700001,19.531250,30.903,0.56848782,-0.00983740,-0.02882881,-0.82212756
'00:16:41.084,0.059570,0.028809,1.005371,0.304878,1.341463,-0.548781,-5.012500,17.837500,19.531250,30.903,0.56848514,-0.00983503,-0.02881633,-0.82212988
'00:16:41.095,0.061035,0.029297,1.003906,0.304878,1.341463,-0.548781,-5.012500,17.837500,19.531250,30.933,0.56848206,-0.00983954,-0.02881260,-0.82213208
'00:16:41.104,0.060547,0.029297,1.004883,0.365854,1.280488,-0.548781,-4.912500,17.668751,19.493750,30.903,0.56848216,-0.00984505,-0.02881752,-0.82213177
'00:16:41.114,0.059570,0.029297,1.004395,0.365854,1.341463,-0.548781,-4.912500,17.668751,19.493750,30.903,0.56848244,-0.00984144,-0.02881631,-0.82213167
'00:16:41.124,0.059570,0.029297,1.003906,0.365854,1.341463,-0.548781,-4.812500,17.562500,19.381250,30.933,0.56848759,-0.00984232,-0.02882079,-0.82212794
'00:16:41.136,0.059570,0.029297,1.004395,0.304878,1.402439,-0.609756,-4.787500,17.587500,19.362501,30.918,0.56849153,-0.00984362,-0.02882014,-0.82212522
'00:16:41.144,0.061035,0.029297,1.002441,0.304878,1.280488,-0.548781,-4.787500,17.587500,19.362501,30.948,0.56849733,-0.00985840,-0.02882964,-0.82212071
'00:16:41.154,0.060059,0.028809,1.003418,0.304878,1.280488,-0.609756,-4.787500,17.587500,19.362501,30.933,0.56850030,-0.00987277,-0.02883444,-0.82211831
'00:16:41.164,0.061035,0.029297,1.004883,0.365854,1.341463,-0.609756,-4.775000,17.512501,19.350000,30.918,0.56850244,-0.00988240,-0.02884566,-0.82211632
'00:16:41.176,0.058594,0.030273,1.003906,0.365854,1.280488,-0.548781,-5.162500,18.025000,19.731251,30.933,0.56849085,-0.00986079,-0.02883648,-0.82212492
'00:16:41.184,0.059570,0.029785,1.003418,0.365854,1.341463,-0.548781,-5.162500,18.025000,19.731251,30.903,0.56848337,-0.00984900,-0.02882907,-0.82213049
'00:16:41.194,0.059570,0.030762,1.004883,0.304878,1.280488,-0.548781,-5.118750,18.031250,19.631250,30.888,0.56847713,-0.00984018,-0.02882709,-0.82213498
'00:16:41.204,0.058594,0.029785,1.004395,0.304878,1.341463,-0.548781,-5.118750,18.031250,19.631250,30.933,0.56847130,-0.00982569,-0.02881327,-0.82213967
'00:16:41.216,0.059570,0.029297,1.003906,0.304878,1.341463,-0.548781,-4.787500,17.543751,19.325001,30.918,0.56847935,-0.00983206,-0.02881551,-0.82213395
'00:16:41.224,0.060059,0.028320,1.002441,0.243902,1.280488,-0.548781,-4.787500,17.543751,19.325001,30.918,0.56848466,-0.00984763,-0.02881340,-0.82213016
'00:16:41.234,0.059082,0.029297,1.004883,0.365854,1.341463,-0.548781,-4.831250,17.600000,19.381250,30.873,0.56848941,-0.00984487,-0.02881508,-0.82212685
'00:16:41.244,0.059082,0.029297,1.004395,0.365854,1.341463,-0.548781,-4.831250,17.600000,19.381250,30.918,0.56849414,-0.00984223,-0.02881691,-0.82212355
'00:16:41.256,0.059082,0.029785,1.003906,0.365854,1.341463,-0.548781,-4.812500,17.543751,19.356251,30.918,0.56849977,-0.00983728,-0.02882281,-0.82211951
'00:16:41.264,0.060547,0.029785,1.004883,0.365854,1.341463,-0.548781,-4.812500,17.543751,19.356251,30.888,0.56850346,-0.00984034,-0.02883088,-0.82211664
'00:16:41.274,0.059570,0.030273,1.003906,0.365854,1.280488,-0.609756,-5.150000,18.081251,19.706251,30.948,0.56849173,-0.00982956,-0.02882963,-0.82212492
'00:16:41.284,0.060059,0.030273,1.002930,0.365854,1.341463,-0.609756,-5.150000,18.081251,19.706251,30.873,0.56848020,-0.00981745,-0.02882765,-0.82213311
'00:16:41.294,0.059082,0.030762,1.003418,0.304878,1.341463,-0.548781,-5.187500,18.118750,19.750000,30.948,0.56847120,-0.00979997,-0.02881819,-0.82213987
'00:16:41.304,0.060059,0.029785,1.004883,0.304878,1.341463,-0.487805,-5.187500,18.118750,19.750000,30.918,0.56846684,-0.00979165,-0.02880662,-0.82214339
'00:16:41.314,0.058594,0.029297,1.004883,0.365854,1.341463,-0.548781,-4.862500,17.593750,19.356251,30.933,0.56846956,-0.00978504,-0.02880418,-0.82214167
'00:16:41.324,0.060059,0.029297,1.003906,0.304878,1.341463,-0.548781,-4.862500,17.593750,19.356251,30.918,0.56847218,-0.00978984,-0.02880343,-0.82213983
'00:16:41.338,0.060547,0.030273,1.003906,0.304878,1.280488,-0.548781,-4.812500,17.543751,19.250000,30.873,0.56847911,-0.00980386,-0.02882105,-0.82213425
'00:16:41.344,0.059570,0.029297,1.003418,0.304878,1.280488,-0.548781,-4.812500,17.543751,19.250000,30.933,0.56848218,-0.00980885,-0.02882297,-0.82213200
'00:16:41.354,0.060547,0.030273,1.003418,0.304878,1.341463,-0.609756,-4.793750,17.581251,19.400000,30.948,0.56848438,-0.00981622,-0.02883448,-0.82212999
'00:16:41.364,0.059082,0.029785,1.003418,0.304878,1.280488,-0.548781,-4.793750,17.581251,19.400000,30.918,0.56849092,-0.00982178,-0.02884031,-0.82212520
'00:16:41.374,0.061035,0.029785,1.003418,0.304878,1.280488,-0.548781,-4.812500,17.531250,19.375000,30.918,0.56849495,-0.00983614,-0.02885094,-0.82212187
'00:16:41.384,0.059570,0.029297,1.003906,0.304878,1.341463,-0.609756,-4.812500,17.531250,19.375000,30.918,0.56849486,-0.00983943,-0.02884975,-0.82212193
'00:16:41.394,0.059082,0.029297,1.004395,0.304878,1.341463,-0.548781,-5.118750,17.887501,19.668751,30.918,0.56848553,-0.00982746,-0.02883104,-0.82212919
'00:16:41.404,0.061035,0.029297,1.003906,0.365854,1.341463,-0.548781,-5.118750,17.887501,19.668751,30.873,0.56847628,-0.00982346,-0.02882467,-0.82213585
'00:16:41.417,0.059082,0.029297,1.004883,0.243902,1.341463,-0.609756,-5.181250,18.043751,19.693750,30.918,0.56845781,-0.00981021,-0.02879405,-0.82214985
'00:16:41.424,0.060059,0.029297,1.004883,0.304878,1.341463,-0.548781,-5.181250,18.043751,19.693750,30.933,0.56845104,-0.00980497,-0.02878356,-0.82215496
'00:16:41.434,0.059570,0.029785,1.004395,0.365854,1.341463,-0.548781,-4.925000,17.668751,19.493750,30.903,0.56845059,-0.00979945,-0.02878487,-0.82215529
'00:16:41.444,0.060059,0.028809,1.002930,0.304878,1.341463,-0.548781,-4.787500,17.525000,19.425001,30.918,0.56845667,-0.00981018,-0.02878613,-0.82215092
'00:16:41.456,0.060059,0.028809,1.002930,0.304878,1.341463,-0.548781,-4.787500,17.525000,19.425001,30.918,0.56846392,-0.00982284,-0.02878756,-0.82214571
'00:16:41.464,0.060059,0.028320,1.003906,0.365854,1.341463,-0.548781,-4.775000,17.543751,19.400000,30.963,0.56846998,-0.00983083,-0.02879062,-0.82214131
'00:16:41.474,0.059082,0.028320,1.002930,0.365854,1.341463,-0.609756,-4.775000,17.543751,19.400000,30.918,0.56847319,-0.00983530,-0.02879099,-0.82213903
'00:16:41.484,0.059570,0.028809,1.003906,0.304878,1.280488,-0.548781,-5.187500,18.143751,19.768751,30.963,0.56846499,-0.00983240,-0.02877656,-0.82214524
'00:16:41.496,0.059570,0.029785,1.004395,0.365854,1.341463,-0.548781,-5.187500,18.143751,19.768751,30.888,0.56845522,-0.00981556,-0.02876742,-0.82215251
'00:16:41.504,0.060059,0.029785,1.003906,0.365854,1.341463,-0.548781,-5.112500,17.912500,19.668751,30.903,0.56844875,-0.00980746,-0.02876330,-0.82215723
'00:16:41.514,0.059570,0.029297,1.003418,0.426829,1.341463,-0.548781,-5.112500,17.912500,19.668751,30.933,0.56844085,-0.00979379,-0.02875824,-0.82216303
'00:16:41.524,0.060059,0.029785,1.004395,0.365854,1.341463,-0.548781,-4.800000,17.581251,19.418751,30.888,0.56844737,-0.00979744,-0.02876972,-0.82215808
'00:16:41.534,0.059082,0.029297,1.003906,0.304878,1.341463,-0.548781,-4.800000,17.581251,19.418751,30.948,0.56845393,-0.00980063,-0.02877024,-0.82215348
'00:16:41.544,0.059082,0.029785,1.004395,0.365854,1.402439,-0.548781,-4.850000,17.631250,19.343750,30.873,0.56845858,-0.00979175,-0.02877213,-0.82215031
'00:16:41.554,0.060547,0.029297,1.002930,0.304878,1.341463,-0.548781,-4.850000,17.631250,19.343750,30.903,0.56846306,-0.00980066,-0.02877609,-0.82214697
'00:16:41.564,0.060059,0.029785,1.004395,0.304878,1.341463,-0.548781,-4.737500,17.550001,19.318750,30.903,0.56847348,-0.00981031,-0.02878722,-0.82213926
'00:16:41.574,0.060547,0.029297,1.003906,0.365854,1.341463,-0.548781,-4.737500,17.550001,19.318750,30.903,0.56848395,-0.00982147,-0.02880179,-0.82213137
'00:16:41.585,0.061035,0.029297,1.003906,0.365854,1.341463,-0.609756,-5.037500,17.918751,19.556250,30.933,0.56847631,-0.00982239,-0.02880320,-0.82213660
'00:16:41.594,0.060547,0.029785,1.004395,0.304878,1.341463,-0.548781,-5.037500,17.918751,19.556250,30.903,0.56847388,-0.00982183,-0.02880098,-0.82213836
'00:16:41.604,0.060547,0.030273,1.002930,0.304878,1.280488,-0.548781,-5.118750,17.962500,19.581251,30.888,0.56846644,-0.00981998,-0.02879978,-0.82214357
'00:16:41.614,0.060059,0.028320,1.003906,0.304878,1.280488,-0.487805,-5.118750,17.962500,19.581251,30.873,0.56846381,-0.00982297,-0.02878556,-0.82214585
'00:16:41.624,0.060059,0.028809,1.003418,0.365854,1.341463,-0.609756,-4.818750,17.500000,19.318750,30.903,0.56846316,-0.00982739,-0.02878816,-0.82214616
'00:16:41.634,0.060059,0.029785,1.003906,0.365854,1.341463,-0.609756,-4.818750,17.500000,19.318750,30.948,0.56846229,-0.00982779,-0.02879605,-0.82214647
'00:16:41.644,0.058594,0.028809,1.004395,0.365854,1.341463,-0.609756,-4.781250,17.506250,19.387501,30.948,0.56846417,-0.00982640,-0.02879529,-0.82214522
'00:16:41.655,0.059082,0.028809,1.002930,0.365854,1.341463,-0.548781,-4.881250,17.681250,19.418751,30.903,0.56846777,-0.00982437,-0.02879319,-0.82214283
'00:16:41.664,0.059570,0.028809,1.004395,0.365854,1.341463,-0.548781,-4.881250,17.681250,19.418751,30.918,0.56847071,-0.00982486,-0.02879267,-0.82214081
'00:16:41.674,0.060059,0.028809,1.003418,0.304878,1.341463,-0.609756,-4.881250,17.681250,19.418751,30.918,0.56846951,-0.00983116,-0.02879004,-0.82214165
'00:16:41.684,0.060059,0.029785,1.003906,0.365854,1.341463,-0.609756,-4.806250,17.500000,19.306250,30.933,0.56846954,-0.00983222,-0.02879888,-0.82214131
'00:16:41.694,0.059082,0.029785,1.004395,0.365854,1.341463,-0.487805,-5.112500,18.025000,19.668751,30.903,0.56846833,-0.00981805,-0.02879192,-0.82214256
'00:16:41.704,0.061035,0.029297,1.004395,0.304878,1.341463,-0.609756,-5.112500,18.025000,19.668751,30.903,0.56845842,-0.00981927,-0.02878552,-0.82214962
'00:16:41.714,0.060547,0.029297,1.004395,0.304878,1.402439,-0.609756,-4.918750,17.750000,19.562500,30.948,0.56845578,-0.00982098,-0.02878268,-0.82215153
'00:16:41.724,0.060059,0.028320,1.002441,0.304878,1.341463,-0.548781,-4.918750,17.750000,19.562500,30.857,0.56845757,-0.00982876,-0.02877624,-0.82215042
'00:16:41.734,0.059570,0.029297,1.002930,0.365854,1.341463,-0.609756,-4.787500,17.487501,19.437500,30.903,0.56845824,-0.00983072,-0.02878193,-0.82214974
'00:16:41.744,0.059570,0.029785,1.004883,0.365854,1.402439,-0.548781,-4.787500,17.487501,19.437500,30.888,0.56846333,-0.00982607,-0.02878647,-0.82214611
'00:16:41.754,0.060059,0.029785,1.002930,0.243902,1.280488,-0.609756,-4.781250,17.556250,19.431250,30.888,0.56846569,-0.00984056,-0.02879313,-0.82214407
'00:16:41.764,0.059570,0.028320,1.003906,0.304878,1.341463,-0.548781,-4.781250,17.556250,19.431250,30.903,0.56847292,-0.00985045,-0.02879028,-0.82213906
'00:16:41.774,0.059082,0.029785,1.004395,0.304878,1.341463,-0.548781,-4.818750,17.531250,19.450001,30.918,0.56847653,-0.00984891,-0.02879010,-0.82213658
'00:16:41.784,0.060547,0.029785,1.004395,0.304878,1.341463,-0.609756,-4.818750,17.531250,19.450001,30.888,0.56847570,-0.00985539,-0.02879566,-0.82213688
'00:16:41.794,0.060059,0.028809,1.003418,0.365854,1.402439,-0.548781,-5.068750,17.900000,19.625000,30.918,0.56847057,-0.00984632,-0.02878474,-0.82214092
'00:16:41.804,0.059570,0.030273,1.003906,0.304878,1.341463,-0.548781,-5.068750,17.900000,19.625000,30.918,0.56846500,-0.00983639,-0.02877878,-0.82214511
'00:16:41.814,0.059082,0.029785,1.003906,0.365854,1.341463,-0.548781,-5.237500,18.093750,19.768751,30.873,0.56845243,-0.00981627,-0.02876463,-0.82215453
'00:16:41.824,0.059082,0.029785,1.003906,0.365854,1.341463,-0.548781,-5.237500,18.093750,19.768751,30.933,0.56843997,-0.00979650,-0.02875077,-0.82216387
'00:16:41.834,0.060059,0.030273,1.004395,0.304878,1.341463,-0.548781,-4.812500,17.550001,19.437500,30.903,0.56844465,-0.00980007,-0.02875901,-0.82216030
'00:16:41.844,0.060547,0.029785,1.003906,0.304878,1.341463,-0.609756,-4.812500,17.550001,19.437500,30.963,0.56844500,-0.00980815,-0.02876644,-0.82215970
'00:16:41.854,0.060059,0.029297,1.003418,0.304878,1.341463,-0.548781,-4.800000,17.575001,19.350000,30.903,0.56845165,-0.00981642,-0.02877099,-0.82215485
'00:16:41.864,0.058594,0.029297,1.003906,0.365854,1.341463,-0.548781,-4.800000,17.575001,19.350000,30.888,0.56845837,-0.00981329,-0.02877393,-0.82215013
'00:16:41.874,0.060059,0.029785,1.004883,0.365854,1.341463,-0.548781,-4.793750,17.525000,19.350000,30.933,0.56846416,-0.00981588,-0.02878416,-0.82214574
'00:16:41.884,0.060547,0.029297,1.003906,0.365854,1.341463,-0.548781,-4.793750,17.525000,19.350000,30.903,0.56846998,-0.00982323,-0.02879369,-0.82214129
'00:16:41.894,0.059082,0.030273,1.003418,0.426829,1.402439,-0.548781,-5.000000,17.893751,19.512501,30.963,0.56846964,-0.00980430,-0.02879698,-0.82214164
'00:16:41.904,0.059570,0.029297,1.003418,0.304878,1.341463,-0.548781,-5.000000,17.893751,19.512501,30.933,0.56846926,-0.00980251,-0.02879096,-0.82214214
'00:16:41.914,0.058105,0.029785,1.004395,0.365854,1.341463,-0.609756,-5.206250,18.200001,19.743750,30.918,0.56845696,-0.00978048,-0.02877773,-0.82215137
'00:16:41.924,0.060059,0.029785,1.004883,0.304878,1.280488,-0.548781,-5.206250,18.200001,19.743750,30.933,0.56844890,-0.00977680,-0.02877054,-0.82215724
'00:16:41.934,0.059082,0.029785,1.003906,0.365854,1.341463,-0.548781,-4.793750,17.531250,19.343750,30.873,0.56845500,-0.00977484,-0.02877769,-0.82215279
'00:16:41.944,0.060059,0.029297,1.003906,0.304878,1.341463,-0.609756,-4.793750,17.531250,19.343750,30.933,0.56845671,-0.00978308,-0.02878139,-0.82215138
'00:16:41.954,0.060059,0.030273,1.003906,0.304878,1.341463,-0.609756,-4.812500,17.543751,19.356251,30.918,0.56845712,-0.00978639,-0.02878935,-0.82215078
'00:16:41.964,0.059570,0.028320,1.003906,0.365854,1.341463,-0.609756,-4.775000,17.481251,19.250000,30.903,0.56845959,-0.00979275,-0.02879026,-0.82214897
'00:16:41.974,0.060547,0.029785,1.004395,0.304878,1.280488,-0.548781,-4.775000,17.481251,19.250000,30.933,0.56846585,-0.00980607,-0.02880163,-0.82214408
'00:16:41.984,0.058594,0.028320,1.004395,0.365854,1.341463,-0.609756,-5.025000,17.856251,19.587500,30.933,0.56845851,-0.00979753,-0.02878740,-0.82214975
'00:16:41.994,0.059570,0.028809,1.003418,0.365854,1.341463,-0.609756,-5.025000,17.856251,19.587500,30.918,0.56845110,-0.00979281,-0.02878029,-0.82215518
'00:16:42.004,0.059082,0.029785,1.003906,0.304878,1.280488,-0.548781,-5.112500,17.987501,19.700001,30.873,0.56844448,-0.00978620,-0.02877165,-0.82216014
'00:16:42.015,0.059082,0.028809,1.004395,0.304878,1.341463,-0.548781,-5.112500,17.987501,19.700001,30.903,0.56843764,-0.00977828,-0.02875285,-0.82216562
'00:16:42.024,0.060547,0.030273,1.003418,0.304878,1.280488,-0.548781,-4.850000,17.600000,19.350000,30.873,0.56844077,-0.00978660,-0.02876360,-0.82216298
'00:16:42.034,0.059082,0.029297,1.004395,0.365854,1.280488,-0.548781,-4.850000,17.600000,19.350000,30.933,0.56844453,-0.00978822,-0.02876819,-0.82216020
'00:16:42.044,0.058594,0.029297,1.003418,0.365854,1.402439,-0.548781,-4.787500,17.537500,19.231251,30.948,0.56845197,-0.00978121,-0.02876880,-0.82215512
'00:16:42.054,0.058105,0.030273,1.003906,0.304878,1.341463,-0.548781,-4.787500,17.537500,19.231251,30.918,0.56845901,-0.00977503,-0.02877148,-0.82215023
'00:16:42.064,0.059570,0.029785,1.004883,0.365854,1.341463,-0.548781,-4.818750,17.556250,19.356251,30.933,0.56846386,-0.00977439,-0.02877870,-0.82214663
'00:16:42.074,0.060059,0.029785,1.004883,0.304878,1.280488,-0.609756,-4.818750,17.556250,19.356251,30.903,0.56846409,-0.00978368,-0.02878636,-0.82214609
'00:16:42.084,0.060059,0.028809,1.003906,0.304878,1.341463,-0.548781,-4.800000,17.562500,19.306250,30.873,0.56847068,-0.00979374,-0.02878740,-0.82214138
'00:16:42.094,0.061035,0.029785,1.003906,0.304878,1.341463,-0.548781,-4.800000,17.562500,19.306250,30.888,0.56847698,-0.00980516,-0.02879767,-0.82213653
'00:16:42.104,0.059082,0.029785,1.003906,0.304878,1.280488,-0.548781,-4.950000,17.800001,19.550001,30.933,0.56847738,-0.00980481,-0.02879674,-0.82213629
'00:16:42.114,0.061035,0.030273,1.004883,0.365854,1.341463,-0.548781,-4.950000,17.800001,19.550001,30.903,0.56847783,-0.00980567,-0.02880700,-0.82213561
'00:16:42.124,0.059570,0.028809,1.004883,0.304878,1.341463,-0.548781,-5.125000,17.981251,19.631250,30.903,0.56847070,-0.00979961,-0.02879000,-0.82214121
'00:16:42.134,0.059082,0.028809,1.003906,0.365854,1.341463,-0.548781,-5.125000,17.981251,19.631250,30.933,0.56846369,-0.00978822,-0.02877620,-0.82214667
'00:16:42.144,0.060059,0.029785,1.003418,0.365854,1.341463,-0.548781,-4.768750,17.537500,19.306250,30.918,0.56847173,-0.00979308,-0.02878937,-0.82214060
'00:16:42.154,0.059082,0.029785,1.004883,0.304878,1.280488,-0.609756,-4.768750,17.537500,19.306250,30.903,0.56847519,-0.00979933,-0.02879662,-0.82213788
'00:16:42.164,0.059082,0.029297,1.004395,0.365854,1.402439,-0.609756,-4.800000,17.525000,19.381250,30.948,0.56847626,-0.00979383,-0.02879654,-0.82213720
'00:16:42.174,0.060059,0.028809,1.003418,0.243902,1.280488,-0.548781,-4.800000,17.525000,19.381250,30.903,0.56848136,-0.00981091,-0.02879511,-0.82213352
'00:16:42.184,0.060059,0.028809,1.003418,0.243902,1.280488,-0.548781,-4.793750,17.500000,19.306250,30.903,0.56848657,-0.00982754,-0.02879372,-0.82212977
'00:16:42.194,0.058105,0.029297,1.004883,0.365854,1.341463,-0.548781,-4.793750,17.500000,19.306250,30.918,0.56849198,-0.00982040,-0.02879266,-0.82212615
'00:16:42.204,0.060547,0.029297,1.004395,0.365854,1.280488,-0.609756,-5.012500,17.943750,19.618750,30.873,0.56848690,-0.00982485,-0.02879736,-0.82212945
'00:16:42.214,0.060059,0.029297,1.004395,0.304878,1.341463,-0.548781,-5.037500,17.931250,19.618750,30.948,0.56848433,-0.00982374,-0.02879051,-0.82213148
'00:16:42.224,0.060059,0.028809,1.005371,0.426829,1.341463,-0.548781,-5.037500,17.931250,19.618750,30.948,0.56848200,-0.00981830,-0.02878944,-0.82213319
'00:16:42.234,0.060547,0.029297,1.004395,0.243902,1.280488,-0.609756,-4.843750,17.612501,19.362501,30.933,0.56848167,-0.00983382,-0.02879111,-0.82213317
'00:16:42.244,0.060059,0.029785,1.004883,0.426829,1.341463,-0.548781,-4.843750,17.612501,19.362501,30.963,0.56848591,-0.00983112,-0.02880346,-0.82212984
'00:16:42.254,0.060059,0.028809,1.003418,0.304878,1.280488,-0.548781,-4.812500,17.487501,19.275000,30.903,0.56848963,-0.00984295,-0.02880456,-0.82212709
'00:16:42.264,0.058594,0.029297,1.004883,0.365854,1.341463,-0.548781,-4.812500,17.487501,19.275000,30.933,0.56849349,-0.00983686,-0.02880349,-0.82212453
'00:16:42.274,0.060059,0.030273,1.004395,0.304878,1.341463,-0.548781,-4.937500,17.712500,19.425001,30.873,0.56849310,-0.00983417,-0.02880479,-0.82212479
'00:16:42.284,0.059082,0.029785,1.004395,0.365854,1.341463,-0.548781,-4.937500,17.712500,19.425001,30.903,0.56849291,-0.00982505,-0.02880397,-0.82212506
'00:16:42.294,0.059082,0.029785,1.004883,0.365854,1.341463,-0.548781,-4.918750,17.675001,19.487501,30.933,0.56849287,-0.00981671,-0.02880334,-0.82212521
'00:16:42.304,0.059570,0.029297,1.003418,0.365854,1.341463,-0.609756,-4.918750,17.675001,19.487501,30.918,0.56848856,-0.00981327,-0.02880250,-0.82212826
'00:16:42.314,0.059570,0.029297,1.003418,0.426829,1.341463,-0.548781,-5.050000,17.912500,19.550001,30.903,0.56848511,-0.00980266,-0.02880166,-0.82213080
'00:16:42.324,0.059570,0.029785,1.003906,0.365854,1.280488,-0.609756,-5.050000,17.912500,19.550001,30.933,0.56847702,-0.00979747,-0.02880208,-0.82213644
'00:16:42.334,0.059570,0.029785,1.003906,0.304878,1.341463,-0.609756,-4.962500,17.725000,19.468750,30.918,0.56847091,-0.00979339,-0.02879745,-0.82214087
'00:16:42.344,0.060547,0.029297,1.004395,0.304878,1.402439,-0.609756,-4.962500,17.725000,19.468750,30.963,0.56846507,-0.00979217,-0.02879070,-0.82214517
'00:16:42.354,0.060547,0.029297,1.003418,0.365854,1.341463,-0.548781,-4.812500,17.543751,19.356251,30.933,0.56847003,-0.00979908,-0.02879932,-0.82214136
'00:16:42.364,0.059570,0.029785,1.004395,0.304878,1.341463,-0.548781,-4.812500,17.543751,19.356251,30.933,0.56847483,-0.00980134,-0.02880201,-0.82213791
'00:16:42.374,0.060059,0.030762,1.003906,0.365854,1.341463,-0.609756,-4.825000,17.600000,19.337500,30.888,0.56847561,-0.00979928,-0.02881706,-0.82213687
'00:16:42.384,0.059082,0.029785,1.004883,0.304878,1.341463,-0.548781,-4.825000,17.600000,19.337500,30.888,0.56848093,-0.00979865,-0.02881778,-0.82213317
'00:16:42.394,0.059570,0.030273,1.004883,0.304878,1.341463,-0.548781,-4.812500,17.556250,19.387501,30.918,0.56848574,-0.00979908,-0.02882294,-0.82212966
'00:16:42.404,0.059570,0.029297,1.004883,0.304878,1.341463,-0.548781,-4.812500,17.556250,19.387501,30.888,0.56849073,-0.00980333,-0.02882244,-0.82212618
'00:16:42.414,0.059082,0.029297,1.003906,0.365854,1.341463,-0.548781,-5.112500,18.006250,19.631250,30.918,0.56848490,-0.00979097,-0.02881228,-0.82213071
'00:16:42.424,0.059570,0.030273,1.002930,0.365854,1.280488,-0.548781,-5.112500,18.006250,19.631250,30.918,0.56847876,-0.00978229,-0.02881297,-0.82213504
'00:16:42.434,0.059570,0.030762,1.003906,0.304878,1.341463,-0.548781,-5.012500,17.843750,19.537500,30.918,0.56847594,-0.00977364,-0.02881247,-0.82213711
'00:16:42.444,0.059570,0.029297,1.003418,0.304878,1.341463,-0.609756,-5.012500,17.843750,19.537500,30.903,0.56846908,-0.00977076,-0.02880406,-0.82214218
'00:16:42.454,0.060547,0.029297,1.002441,0.304878,1.280488,-0.609756,-4.731250,17.531250,19.312500,30.903,0.56847504,-0.00979020,-0.02881779,-0.82213735
'00:16:42.464,0.059082,0.029785,1.003906,0.365854,1.402439,-0.548781,-4.731250,17.531250,19.312500,30.963,0.56848563,-0.00978730,-0.02882604,-0.82212977
'00:16:42.474,0.061035,0.029785,1.004395,0.304878,1.341463,-0.548781,-4.793750,17.537500,19.318750,30.918,0.56849162,-0.00979871,-0.02883531,-0.82212517
'00:16:42.484,0.060547,0.029297,1.003418,0.304878,1.341463,-0.548781,-4.818750,17.512501,19.318750,30.903,0.56849533,-0.00980745,-0.02883757,-0.82212242
'00:16:42.494,0.060059,0.028809,1.003906,0.365854,1.280488,-0.548781,-4.818750,17.512501,19.318750,30.933,0.56849903,-0.00981652,-0.02884231,-0.82211959
'00:16:42.504,0.059570,0.030273,1.004883,0.304878,1.280488,-0.548781,-5.243750,18.156250,19.768751,30.948,0.56848701,-0.00980497,-0.02883092,-0.82212843
'00:16:42.514,0.059570,0.029297,1.003418,0.365854,1.341463,-0.609756,-5.243750,18.156250,19.768751,30.918,0.56847110,-0.00979012,-0.02881638,-0.82214012
'00:16:42.525,0.059570,0.029785,1.004883,0.426829,1.280488,-0.548781,-5.225000,18.143751,19.768751,30.903,0.56845933,-0.00977433,-0.02881228,-0.82214859
'00:16:42.534,0.059570,0.029297,1.004883,0.304878,1.280488,-0.609756,-5.225000,18.143751,19.768751,30.933,0.56844582,-0.00976863,-0.02879881,-0.82215847
'00:16:42.544,0.060059,0.029785,1.004883,0.304878,1.341463,-0.548781,-4.818750,17.618750,19.387501,30.948,0.56845196,-0.00977476,-0.02880457,-0.82215395
'00:16:42.554,0.059082,0.030273,1.005371,0.304878,1.341463,-0.548781,-4.818750,17.618750,19.387501,30.903,0.56845800,-0.00977334,-0.02880901,-0.82214964
'00:16:42.564,0.059570,0.029785,1.003418,0.365854,1.341463,-0.548781,-4.800000,17.562500,19.362501,30.918,0.56846421,-0.00977424,-0.02881780,-0.82214503
'00:16:42.574,0.060059,0.029785,1.003418,0.365854,1.341463,-0.548781,-4.800000,17.562500,19.362501,30.933,0.56847036,-0.00977780,-0.02882831,-0.82214036
'00:16:42.584,0.060059,0.028809,1.002441,0.304878,1.341463,-0.548781,-4.768750,17.550001,19.275000,30.933,0.56847888,-0.00978986,-0.02883145,-0.82213422
'00:16:42.594,0.060547,0.030273,1.002441,0.365854,1.341463,-0.548781,-4.768750,17.550001,19.275000,30.873,0.56848705,-0.00979560,-0.02884905,-0.82212788
'00:16:42.604,0.060547,0.029297,1.003418,0.304878,1.341463,-0.548781,-4.837500,17.512501,19.306250,30.963,0.56848950,-0.00980318,-0.02884967,-0.82212607
'00:16:42.614,0.060059,0.029297,1.003906,0.304878,1.341463,-0.548781,-4.837500,17.512501,19.306250,30.933,0.56849195,-0.00980784,-0.02884818,-0.82212438
'00:16:42.624,0.059570,0.029297,1.003418,0.304878,1.280488,-0.548781,-4.968750,17.750000,19.487501,30.918,0.56849010,-0.00981004,-0.02884323,-0.82212581
'00:16:42.634,0.058594,0.030273,1.002930,0.304878,1.341463,-0.548781,-4.968750,17.750000,19.487501,30.903,0.56848823,-0.00979877,-0.02883727,-0.82212744
'00:16:42.644,0.059082,0.029785,1.003906,0.304878,1.341463,-0.609756,-4.850000,17.687500,19.412500,30.933,0.56848911,-0.00979800,-0.02883803,-0.82212681
'00:16:42.654,0.059570,0.029297,1.002930,0.365854,1.341463,-0.548781,-4.850000,17.687500,19.412500,30.918,0.56849450,-0.00979919,-0.02884259,-0.82212292
'00:16:42.665,0.060547,0.029785,1.003906,0.365854,1.341463,-0.548781,-4.787500,17.575001,19.350000,30.918,0.56850238,-0.00980640,-0.02885685,-0.82211688
'00:16:42.676,0.060059,0.029297,1.004883,0.304878,1.341463,-0.548781,-4.787500,17.575001,19.350000,30.963,0.56851029,-0.00981568,-0.02886044,-0.82211117
'00:16:42.684,0.059570,0.029297,1.004395,0.304878,1.341463,-0.548781,-4.793750,17.581251,19.250000,30.903,0.56851612,-0.00981973,-0.02886155,-0.82210705
'00:16:42.694,0.060059,0.029785,1.003906,0.304878,1.341463,-0.548781,-4.793750,17.581251,19.250000,30.903,0.56852326,-0.00982559,-0.02886770,-0.82210183
'00:16:42.704,0.059570,0.029785,1.004883,0.304878,1.341463,-0.548781,-4.837500,17.575001,19.337500,30.933,0.56852681,-0.00982592,-0.02886769,-0.82209937
'00:16:42.714,0.060059,0.029785,1.004395,0.304878,1.341463,-0.548781,-4.837500,17.575001,19.337500,30.918,0.56853032,-0.00982902,-0.02886975,-0.82209683
'00:16:42.724,0.060059,0.029297,1.003418,0.304878,1.280488,-0.548781,-5.175000,18.156250,19.737501,30.903,0.56852293,-0.00982760,-0.02885990,-0.82210231
'00:16:42.734,0.060059,0.029297,1.003418,0.365854,1.341463,-0.548781,-4.931250,17.668751,19.506250,30.918,0.56852167,-0.00982586,-0.02885868,-0.82210324
'00:16:42.745,0.060059,0.029297,1.004395,0.304878,1.280488,-0.487805,-4.931250,17.668751,19.506250,30.918,0.56852488,-0.00983205,-0.02885540,-0.82210106
'00:16:42.754,0.060547,0.029297,1.004883,0.304878,1.341463,-0.609756,-4.837500,17.600000,19.362501,30.888,0.56852465,-0.00983907,-0.02885699,-0.82210108
'00:16:42.764,0.060547,0.029785,1.003418,0.304878,1.280488,-0.609756,-4.837500,17.600000,19.362501,30.873,0.56852410,-0.00984953,-0.02886509,-0.82210105
'00:16:42.774,0.058594,0.029297,1.004395,0.365854,1.280488,-0.548781,-4.812500,17.512501,19.306250,30.933,0.56852803,-0.00984804,-0.02886664,-0.82209830
'00:16:42.786,0.060059,0.029785,1.003418,0.304878,1.341463,-0.548781,-4.812500,17.512501,19.306250,30.918,0.56853265,-0.00985232,-0.02887016,-0.82209493
'00:16:42.794,0.059082,0.029297,1.004395,0.365854,1.341463,-0.609756,-4.806250,17.518751,19.400000,30.948,0.56853252,-0.00985019,-0.02887076,-0.82209502
'00:16:42.804,0.059570,0.029297,1.003906,0.304878,1.341463,-0.609756,-4.806250,17.518751,19.400000,30.888,0.56853229,-0.00985341,-0.02886921,-0.82209520
'00:16:42.814,0.060547,0.030273,1.004395,0.243902,1.341463,-0.609756,-5.168750,18.031250,19.706251,30.903,0.56851802,-0.00984740,-0.02885638,-0.82210559
'00:16:42.824,0.060059,0.029785,1.004395,0.304878,1.341463,-0.548781,-5.168750,18.031250,19.706251,30.933,0.56850836,-0.00983790,-0.02884360,-0.82211283
'00:16:42.834,0.060059,0.029785,1.004395,0.365854,1.341463,-0.548781,-5.175000,18.031250,19.768751,30.933,0.56849817,-0.00982535,-0.02883480,-0.82212034
'00:16:42.844,0.059570,0.029785,1.004883,0.304878,1.341463,-0.548781,-5.175000,18.031250,19.768751,30.963,0.56848800,-0.00981331,-0.02881978,-0.82212804
'00:16:42.854,0.059082,0.029785,1.003418,0.304878,1.402439,-0.548781,-4.800000,17.512501,19.306250,30.903,0.56849319,-0.00980859,-0.02881787,-0.82212457
'00:16:42.866,0.060059,0.029297,1.002930,0.365854,1.280488,-0.609756,-4.800000,17.512501,19.306250,30.933,0.56849394,-0.00981861,-0.02882960,-0.82212353
'00:16:42.874,0.058594,0.029297,1.003906,0.365854,1.341463,-0.548781,-4.850000,17.631250,19.387501,30.903,0.56849727,-0.00981415,-0.02882898,-0.82212130
'00:16:42.884,0.060547,0.028809,1.002930,0.304878,1.341463,-0.548781,-4.850000,17.631250,19.387501,30.903,0.56850140,-0.00982457,-0.02882898,-0.82211832
'00:16:42.894,0.059570,0.029297,1.003906,0.304878,1.341463,-0.548781,-4.756250,17.525000,19.337500,30.888,0.56850968,-0.00983152,-0.02883247,-0.82211238
'00:16:42.904,0.060059,0.029297,1.004883,0.365854,1.341463,-0.548781,-4.756250,17.525000,19.337500,30.933,0.56851796,-0.00983781,-0.02884174,-0.82210626
'00:16:42.914,0.059082,0.029297,1.004395,0.304878,1.341463,-0.548781,-4.843750,17.575001,19.393751,30.903,0.56852100,-0.00983709,-0.02883706,-0.82210433
'00:16:42.924,0.059082,0.029297,1.004395,0.304878,1.341463,-0.548781,-4.843750,17.575001,19.393751,30.903,0.56852403,-0.00983639,-0.02883246,-0.82210240
'00:16:42.934,0.059570,0.029297,1.003906,0.365854,1.341463,-0.609756,-4.781250,17.550001,19.337500,30.933,0.56852674,-0.00983869,-0.02883884,-0.82210028
'00:16:42.947,0.060059,0.029785,1.003418,0.365854,1.280488,-0.609756,-4.881250,17.731251,19.462500,30.903,0.56852571,-0.00984413,-0.02885234,-0.82210045
'00:16:42.954,0.060059,0.029785,1.003418,0.365854,1.341463,-0.548781,-4.881250,17.731251,19.462500,30.903,0.56852830,-0.00984403,-0.02885730,-0.82209849
'00:16:42.964,0.060059,0.029785,1.003418,0.365854,1.341463,-0.548781,-4.881250,17.731251,19.462500,30.903,0.56853199,-0.00984388,-0.02886430,-0.82209570
'00:16:42.974,0.060059,0.029785,1.002930,0.243902,1.280488,-0.548781,-4.825000,17.543751,19.293751,30.903,0.56853555,-0.00985462,-0.02886592,-0.82209305
'00:16:42.987,0.060547,0.028809,1.003906,0.304878,1.341463,-0.548781,-4.806250,17.518751,19.356251,30.933,0.56854124,-0.00986829,-0.02886538,-0.82208896
'00:16:42.994,0.060547,0.028809,1.003906,0.304878,1.341463,-0.548781,-4.806250,17.518751,19.356251,30.933,0.56854428,-0.00987549,-0.02886507,-0.82208679
'00:16:43.004,0.059570,0.029785,1.004395,0.304878,1.280488,-0.548781,-4.768750,17.531250,19.387501,30.903,0.56855107,-0.00988326,-0.02887239,-0.82208174
'00:16:43.014,0.061035,0.029297,1.005371,0.304878,1.341463,-0.609756,-4.768750,17.531250,19.387501,30.903,0.56855363,-0.00989620,-0.02887908,-0.82207958
'00:16:43.025,0.059570,0.030273,1.004883,0.304878,1.341463,-0.548781,-5.106250,17.962500,19.637501,30.918,0.56854574,-0.00988242,-0.02886859,-0.82208557
'00:16:43.035,0.060059,0.028320,1.003418,0.365854,1.341463,-0.548781,-5.106250,17.962500,19.637501,30.933,0.56853906,-0.00987758,-0.02885523,-0.82209071
'00:16:43.044,0.060059,0.028809,1.004883,0.365854,1.341463,-0.548781,-4.931250,17.693750,19.462500,30.933,0.56853861,-0.00987693,-0.02885174,-0.82209116
'00:16:43.054,0.059082,0.029297,1.003906,0.365854,1.280488,-0.548781,-4.931250,17.693750,19.462500,30.903,0.56853788,-0.00987353,-0.02885032,-0.82209175
'00:16:43.067,0.059570,0.029297,1.004395,0.304878,1.280488,-0.548781,-4.781250,17.543751,19.343750,30.903,0.56854640,-0.00988527,-0.02885581,-0.82208553
'00:16:43.074,0.059570,0.029297,1.004395,0.304878,1.280488,-0.548781,-4.781250,17.543751,19.343750,30.903,0.56855094,-0.00989145,-0.02885867,-0.82208221
'00:16:43.084,0.059082,0.028809,1.004395,0.304878,1.280488,-0.609756,-4.825000,17.600000,19.362501,30.888,0.56855136,-0.00989734,-0.02885597,-0.82208195
'00:16:43.094,0.060059,0.029785,1.003906,0.304878,1.341463,-0.548781,-4.825000,17.600000,19.362501,30.948,0.56855604,-0.00990060,-0.02885972,-0.82207854
'00:16:43.105,0.059082,0.029297,1.004395,0.365854,1.341463,-0.548781,-4.825000,17.575001,19.350000,30.963,0.56856078,-0.00989642,-0.02886053,-0.82207528
'00:16:43.114,0.059570,0.029297,1.004395,0.304878,1.341463,-0.548781,-4.825000,17.575001,19.350000,30.933,0.56856459,-0.00989820,-0.02885894,-0.82207268
'00:16:43.124,0.060059,0.029785,1.002930,0.304878,1.341463,-0.609756,-5.125000,17.993750,19.643751,30.933,0.56855257,-0.00988980,-0.02884899,-0.82208144
'00:16:43.134,0.059570,0.029297,1.003418,0.365854,1.341463,-0.548781,-5.125000,17.993750,19.643751,30.888,0.56854517,-0.00987783,-0.02883884,-0.82208707
'00:16:43.147,0.059570,0.029785,1.003906,0.304878,1.341463,-0.548781,-5.306250,18.256250,19.812500,30.888,0.56852707,-0.00985592,-0.02881400,-0.82210071
'00:16:43.154,0.059570,0.029785,1.004395,0.365854,1.341463,-0.609756,-5.306250,18.256250,19.812500,30.918,0.56851440,-0.00984211,-0.02880393,-0.82211000
'00:16:43.164,0.060547,0.030273,1.004395,0.304878,1.341463,-0.548781,-4.831250,17.537500,19.381250,30.933,0.56851727,-0.00984589,-0.02881117,-0.82210771
'00:16:43.174,0.060547,0.029785,1.005371,0.304878,1.341463,-0.548781,-4.831250,17.537500,19.381250,30.918,0.56852023,-0.00985130,-0.02881513,-0.82210546
'00:16:43.185,0.059570,0.029297,1.004883,0.365854,1.341463,-0.548781,-4.787500,17.462500,19.331251,30.888,0.56852529,-0.00985179,-0.02881911,-0.82210182
'00:16:43.194,0.058594,0.028320,1.003418,0.365854,1.341463,-0.548781,-4.787500,17.462500,19.331251,30.903,0.56852962,-0.00985102,-0.02881438,-0.82209900
'00:16:43.204,0.059570,0.029297,1.004395,0.365854,1.341463,-0.548781,-4.812500,17.537500,19.337500,30.933,0.56853420,-0.00985105,-0.02881802,-0.82209570
'00:16:43.214,0.059082,0.029785,1.004395,0.365854,1.341463,-0.548781,-4.812500,17.537500,19.337500,30.918,0.56853868,-0.00984644,-0.02882247,-0.82209250
'00:16:43.225,0.060059,0.029785,1.002930,0.365854,1.341463,-0.548781,-4.975000,17.706251,19.462500,30.963,0.56853505,-0.00983981,-0.02882239,-0.82209509
'00:16:43.234,0.060059,0.029785,1.003418,0.365854,1.341463,-0.548781,-4.975000,17.706251,19.462500,30.933,0.56853211,-0.00983439,-0.02882216,-0.82209720
'00:16:43.244,0.060547,0.029297,1.003418,0.304878,1.280488,-0.548781,-5.131250,17.962500,19.656250,30.918,0.56852350,-0.00983527,-0.02881370,-0.82210344
'00:16:43.254,0.061035,0.028809,1.003906,0.365854,1.280488,-0.548781,-4.875000,17.625000,19.393751,30.933,0.56852552,-0.00984753,-0.02882061,-0.82210165
'00:16:43.266,0.059082,0.028809,1.003906,0.304878,1.280488,-0.609756,-4.875000,17.625000,19.393751,30.933,0.56852268,-0.00985254,-0.02881454,-0.82210377
'00:16:43.274,0.060059,0.029785,1.004883,0.365854,1.341463,-0.548781,-4.812500,17.606251,19.375000,30.933,0.56852745,-0.00985394,-0.02882229,-0.82210019
'00:16:43.284,0.060547,0.028809,1.002441,0.304878,1.280488,-0.609756,-4.812500,17.606251,19.375000,30.888,0.56852896,-0.00986995,-0.02882785,-0.82209875
'00:16:43.294,0.060059,0.029297,1.004395,0.365854,1.341463,-0.548781,-4.762500,17.500000,19.318750,30.948,0.56853615,-0.00987492,-0.02883620,-0.82209343
'00:16:43.306,0.061035,0.030273,1.004883,0.365854,1.341463,-0.609756,-4.762500,17.500000,19.318750,30.857,0.56853918,-0.00988229,-0.02885704,-0.82209051
'00:16:43.314,0.060059,0.030273,1.002930,0.304878,1.280488,-0.609756,-4.918750,17.650000,19.393751,30.903,0.56853493,-0.00988318,-0.02886013,-0.82209333
'00:16:43.324,0.058105,0.029297,1.001953,0.243902,1.341463,-0.548781,-4.918750,17.650000,19.393751,30.933,0.56853436,-0.00987635,-0.02884389,-0.82209438
'00:16:43.334,0.059570,0.029785,1.004883,0.365854,1.341463,-0.548781,-5.137500,17.943750,19.693750,30.918,0.56852476,-0.00986116,-0.02883375,-0.82210156
'00:16:43.346,0.060059,0.029297,1.004883,0.304878,1.280488,-0.487805,-5.137500,17.943750,19.693750,30.873,0.56851844,-0.00985775,-0.02881914,-0.82210648
'00:16:43.354,0.060547,0.028809,1.004395,0.426829,1.341463,-0.548781,-4.975000,17.775000,19.487501,30.948,0.56851726,-0.00985615,-0.02882059,-0.82210726
'00:16:43.364,0.059082,0.029297,1.004883,0.304878,1.219512,-0.548781,-4.975000,17.775000,19.487501,30.933,0.56851533,-0.00985895,-0.02881664,-0.82210871
'00:16:43.374,0.060059,0.028809,1.005859,0.304878,1.219512,-0.548781,-4.831250,17.506250,19.356251,30.888,0.56851754,-0.00987343,-0.02881822,-0.82210695
'00:16:43.384,0.060547,0.028809,1.002930,0.487805,1.463415,-0.609756,-4.831250,17.506250,19.356251,30.903,0.56851608,-0.00986432,-0.02882387,-0.82210787
'00:16:43.394,0.058105,0.031250,1.004395,0.487805,1.402439,-0.609756,-4.843750,17.550001,19.287500,30.918,0.56851452,-0.00983596,-0.02883653,-0.82210885
'00:16:43.404,0.061523,0.029297,1.001953,0.304878,1.341463,-0.609756,-4.843750,17.550001,19.287500,30.933,0.56851294,-0.00984846,-0.02884203,-0.82210959
'00:16:43.414,0.057617,0.031738,1.001953,0.304878,1.341463,-0.609756,-4.800000,17.550001,19.362501,30.918,0.56851371,-0.00983237,-0.02884948,-0.82210899
'00:16:43.425,0.060547,0.028320,1.002441,0.365854,1.280488,-0.609756,-4.800000,17.550001,19.362501,30.903,0.56851513,-0.00984911,-0.02885657,-0.82210756
'00:16:43.434,0.059082,0.029785,1.004883,0.304878,1.219512,-0.548781,-4.987500,17.843750,19.568750,30.963,0.56851364,-0.00985034,-0.02885541,-0.82210862
'00:16:43.444,0.060059,0.029297,1.002441,0.487805,1.402439,-0.548781,-4.987500,17.843750,19.568750,30.903,0.56851266,-0.00983729,-0.02886014,-0.82210928
'00:16:43.454,0.059570,0.028809,1.003906,0.304878,1.219512,-0.487805,-5.206250,18.131250,19.781250,30.888,0.56850686,-0.00983746,-0.02884575,-0.82211380
'00:16:43.466,0.058594,0.029785,1.005371,0.426829,1.341463,-0.609756,-5.206250,18.131250,19.781250,30.948,0.56848975,-0.00980842,-0.02883349,-0.82212640
'00:16:43.474,0.061035,0.027832,1.003906,0.365854,1.341463,-0.548781,-4.806250,17.606251,19.293751,30.933,0.56849555,-0.00982110,-0.02883617,-0.82212215
'00:16:43.484,0.059082,0.029785,1.003906,0.304878,1.219512,-0.609756,-4.806250,17.606251,19.293751,30.888,0.56849769,-0.00982995,-0.02884467,-0.82212027
'00:16:43.494,0.060059,0.031250,1.004395,0.365854,1.341463,-0.548781,-4.768750,17.512501,19.287500,30.918,0.56850460,-0.00982756,-0.02886388,-0.82211484
'00:16:43.506,0.061035,0.029785,1.002441,0.304878,1.341463,-0.548781,-4.775000,17.456251,19.268751,30.888,0.56851102,-0.00984077,-0.02887462,-0.82210987
'00:16:43.514,0.060059,0.029297,1.001465,0.304878,1.219512,-0.548781,-4.775000,17.456251,19.268751,30.963,0.56851512,-0.00985377,-0.02888151,-0.82210663
'00:16:43.524,0.058594,0.029785,1.004395,0.426829,1.341463,-0.609756,-5.000000,17.818750,19.556250,30.903,0.56850808,-0.00983640,-0.02887936,-0.82211178
'00:16:43.534,0.060059,0.028809,1.002441,0.304878,1.341463,-0.548781,-5.000000,17.818750,19.556250,30.918,0.56850552,-0.00983775,-0.02886941,-0.82211389
'00:16:43.546,0.060547,0.029297,1.003418,0.243902,1.280488,-0.548781,-5.018750,17.793751,19.556250,30.873,0.56849987,-0.00984717,-0.02885869,-0.82211806
'00:16:43.554,0.058594,0.028320,1.006348,0.365854,1.341463,-0.609756,-5.018750,17.793751,19.556250,30.933,0.56849305,-0.00983889,-0.02884505,-0.82212336
'00:16:43.564,0.060059,0.028320,1.006836,0.426829,1.341463,-0.609756,-4.850000,17.556250,19.343750,30.963,0.56849141,-0.00983994,-0.02884569,-0.82212446
'00:16:43.574,0.059570,0.028320,1.005371,0.365854,1.280488,-0.548781,-4.850000,17.556250,19.343750,30.888,0.56849394,-0.00984615,-0.02884360,-0.82212270
'00:16:43.587,0.058594,0.030273,1.003906,0.426829,1.341463,-0.548781,-4.831250,17.537500,19.350000,30.933,0.56849806,-0.00982907,-0.02885415,-0.82211969
'00:16:43.594,0.059570,0.031250,1.002930,0.426829,1.402439,-0.609756,-4.831250,17.537500,19.350000,30.933,0.56849714,-0.00981810,-0.02886444,-0.82212009
'00:16:43.606,0.060547,0.029785,1.000977,0.304878,1.280488,-0.487805,-4.756250,17.593750,19.356251,30.933,0.56851374,-0.00983805,-0.02888272,-0.82210774
'00:16:43.615,0.059082,0.030273,1.001953,0.304878,1.280488,-0.548781,-4.756250,17.593750,19.356251,30.857,0.56852212,-0.00984327,-0.02889317,-0.82210151
'00:16:43.625,0.059082,0.028809,1.005371,0.365854,1.280488,-0.548781,-4.862500,17.675001,19.381250,30.948,0.56852618,-0.00984563,-0.02889290,-0.82209869
'00:16:43.634,0.060059,0.028320,1.005859,0.365854,1.341463,-0.609756,-4.862500,17.675001,19.381250,30.918,0.56852607,-0.00985009,-0.02889071,-0.82209878
'00:16:43.644,0.061035,0.027832,1.004883,0.365854,1.280488,-0.548781,-5.050000,17.825001,19.550001,30.903,0.56852030,-0.00985817,-0.02888165,-0.82210299
'00:16:43.654,0.060547,0.030273,1.005859,0.365854,1.280488,-0.548781,-5.050000,17.825001,19.550001,30.948,0.56851407,-0.00985389,-0.02888407,-0.82210727
'00:16:43.664,0.059570,0.030762,1.004395,0.426829,1.341463,-0.548781,-4.956250,17.787500,19.531250,30.963,0.56851351,-0.00984031,-0.02889368,-0.82210748
'00:16:43.674,0.059570,0.030762,1.004395,0.426829,1.341463,-0.548781,-4.956250,17.787500,19.531250,30.963,0.56851295,-0.00982693,-0.02890315,-0.82210770
'00:16:43.684,0.060547,0.031250,1.002441,0.365854,1.341463,-0.548781,-4.818750,17.512501,19.381250,30.933,0.56851578,-0.00982473,-0.02891990,-0.82210518
'00:16:43.695,0.060059,0.029785,1.001953,0.365854,1.280488,-0.548781,-4.818750,17.512501,19.381250,30.888,0.56851904,-0.00983063,-0.02893030,-0.82210249
'00:16:43.704,0.059082,0.029785,1.003418,0.365854,1.280488,-0.609756,-4.818750,17.562500,19.381250,30.948,0.56851885,-0.00983067,-0.02893584,-0.82210242
'00:16:43.714,0.060059,0.029297,1.003418,0.548781,1.524390,-0.548781,-4.818750,17.562500,19.381250,30.933,0.56852385,-0.00981165,-0.02894389,-0.82209891
'00:16:43.724,0.060547,0.028320,1.002441,0.243902,1.219512,-0.548781,-4.818750,17.556250,19.356251,30.873,0.56852795,-0.00983645,-0.02894172,-0.82209585
'00:16:43.734,0.059082,0.029785,1.005859,0.243902,1.219512,-0.548781,-4.818750,17.556250,19.356251,30.933,0.56853177,-0.00984626,-0.02894083,-0.82209312
'00:16:43.746,0.059570,0.031250,1.002930,0.365854,1.341463,-0.609756,-5.068750,17.918751,19.675001,30.873,0.56851936,-0.00982616,-0.02894310,-0.82210186
'00:16:43.755,0.060059,0.029785,1.000977,0.426829,1.402439,-0.609756,-5.118750,17.968750,19.706251,30.933,0.56850850,-0.00981070,-0.02893872,-0.82210972
'00:16:43.765,0.061523,0.030762,1.004395,0.304878,1.280488,-0.548781,-5.118750,17.968750,19.706251,30.933,0.56850024,-0.00981220,-0.02894087,-0.82211533
'00:16:43.774,0.061523,0.030762,1.004395,0.304878,1.280488,-0.548781,-5.118750,17.968750,19.706251,30.933,0.56849283,-0.00981354,-0.02894279,-0.82212038
'00:16:43.784,0.060059,0.029785,1.003418,0.426829,1.402439,-0.548781,-4.800000,17.518751,19.250000,30.903,0.56849823,-0.00980788,-0.02895164,-0.82211640
'00:16:43.794,0.061035,0.028320,1.004395,0.304878,1.280488,-0.548781,-4.818750,17.556250,19.387501,30.948,0.56850248,-0.00982777,-0.02895182,-0.82211322
'00:16:43.804,0.060547,0.029297,1.003418,0.243902,1.219512,-0.548781,-4.818750,17.556250,19.387501,30.933,0.56850627,-0.00984842,-0.02895465,-0.82211024
'00:16:43.814,0.060059,0.029297,1.006348,0.243902,1.219512,-0.548781,-4.800000,17.531250,19.356251,30.933,0.56851090,-0.00986613,-0.02895527,-0.82210681
'00:16:43.826,0.058594,0.029785,1.006348,0.365854,1.341463,-0.548781,-4.800000,17.531250,19.356251,30.918,0.56851684,-0.00985724,-0.02895570,-0.82210279
'00:16:43.834,0.059570,0.029785,1.004883,0.304878,1.341463,-0.609756,-5.031250,17.843750,19.525000,30.903,0.56850988,-0.00985098,-0.02894753,-0.82210797
'00:16:43.844,0.060059,0.029297,1.004883,0.304878,1.219512,-0.609756,-5.031250,17.843750,19.525000,30.933,0.56850100,-0.00985658,-0.02894267,-0.82211421
'00:16:43.854,0.059082,0.029297,1.004883,0.304878,1.341463,-0.609756,-5.087500,17.837500,19.606251,30.903,0.56848824,-0.00984489,-0.02892354,-0.82212385
'00:16:43.864,0.059570,0.029297,1.003418,0.304878,1.280488,-0.548781,-5.087500,17.837500,19.606251,30.963,0.56847976,-0.00984094,-0.02891019,-0.82213023
'00:16:43.874,0.059082,0.030273,1.001953,0.243902,1.280488,-0.548781,-4.918750,17.662500,19.468750,30.903,0.56847894,-0.00984111,-0.02890579,-0.82213095
'00:16:43.884,0.060547,0.030273,1.003906,0.304878,1.341463,-0.609756,-4.918750,17.662500,19.468750,30.933,0.56847394,-0.00984142,-0.02890772,-0.82213434
'00:16:43.894,0.060059,0.029785,1.002930,0.182927,1.219512,-0.548781,-4.837500,17.581251,19.375000,30.918,0.56847708,-0.00985966,-0.02890722,-0.82213196
'00:16:43.904,0.061035,0.029785,1.003418,0.365854,1.219512,-0.548781,-4.837500,17.581251,19.375000,30.918,0.56848031,-0.00987385,-0.02892336,-0.82212900
'00:16:43.914,0.062012,0.028809,1.004395,0.060976,1.036585,-0.548781,-4.793750,17.450001,19.393751,30.873,0.56848276,-0.00992605,-0.02892448,-0.82212663
'00:16:43.924,0.062500,0.028320,1.003418,0.182927,1.158537,-0.548781,-4.793750,17.450001,19.393751,30.918,0.56848559,-0.00996753,-0.02892768,-0.82212406
'00:16:43.934,0.060059,0.028809,1.000977,0.548781,1.585366,-0.609756,-4.843750,17.562500,19.287500,30.918,0.56848498,-0.00994265,-0.02892928,-0.82212473
'00:16:43.944,0.057617,0.029785,1.005859,0.670732,1.768293,-0.670732,-4.843750,17.562500,19.287500,30.933,0.56848053,-0.00988049,-0.02892479,-0.82212871
'00:16:43.954,0.060059,0.028320,1.003906,0.060976,1.036585,-0.487805,-5.037500,17.837500,19.593750,30.903,0.56847915,-0.00991499,-0.02890593,-0.82212991
'00:16:43.964,0.058105,0.029785,1.004883,0.731707,1.707317,-0.609756,-5.037500,17.837500,19.593750,30.903,0.56847103,-0.00985080,-0.02890259,-0.82213642
'00:16:43.974,0.062012,0.025879,1.003418,0.243902,1.036585,-0.548781,-4.925000,17.625000,19.412500,30.903,0.56846936,-0.00990018,-0.02889514,-0.82213724
'00:16:43.984,0.057129,0.032715,1.007812,0.426829,1.402439,-0.548781,-4.925000,17.625000,19.412500,30.963,0.56846746,-0.00985915,-0.02890062,-0.82213886
'00:16:43.994,0.060547,0.029297,1.000977,0.548781,1.585366,-0.609756,-4.800000,17.556250,19.293751,30.903,0.56846990,-0.00983942,-0.02891079,-0.82213705
'00:16:44.004,0.062500,0.029297,1.000977,0.243902,1.219512,-0.487805,-4.800000,17.556250,19.293751,30.918,0.56847981,-0.00987235,-0.02892450,-0.82212932
'00:16:44.014,0.059082,0.033691,1.002441,0.243902,1.280488,-0.548781,-4.743750,17.493750,19.293751,30.933,0.56848706,-0.00986621,-0.02894915,-0.82212351
'00:16:44.024,0.060059,0.029785,1.003906,0.426829,1.463415,-0.548781,-4.743750,17.493750,19.293751,30.903,0.56849570,-0.00985857,-0.02895835,-0.82211730
'00:16:44.034,0.062500,0.028320,1.001953,0.304878,1.280488,-0.548781,-4.800000,17.512501,19.412500,30.888,0.56849993,-0.00988702,-0.02896533,-0.82211379
'00:16:44.044,0.061035,0.028809,1.004883,0.121951,1.158537,-0.548781,-5.093750,17.956251,19.693750,30.903,0.56849288,-0.00991119,-0.02894860,-0.82211896
'00:16:44.054,0.060547,0.029297,1.005859,0.365854,1.402439,-0.548781,-5.093750,17.956251,19.693750,30.888,0.56848659,-0.00990072,-0.02893799,-0.82212381
'00:16:44.064,0.060059,0.027344,1.004395,0.487805,1.402439,-0.548781,-5.031250,17.887501,19.625000,30.903,0.56848372,-0.00989215,-0.02892732,-0.82212627
'00:16:44.074,0.060059,0.028809,1.003906,0.243902,1.219512,-0.548781,-5.031250,17.887501,19.625000,30.903,0.56847992,-0.00990337,-0.02891681,-0.82212914
'00:16:44.084,0.057129,0.031250,1.005859,0.243902,1.280488,-0.548781,-4.831250,17.587500,19.362501,30.948,0.56848358,-0.00989106,-0.02891386,-0.82212686
'00:16:44.094,0.057129,0.029785,1.004883,0.487805,1.463415,-0.609756,-4.831250,17.587500,19.362501,30.933,0.56848386,-0.00985954,-0.02891151,-0.82212713
'00:16:44.104,0.058594,0.028809,1.003418,0.365854,1.341463,-0.548781,-4.800000,17.500000,19.287500,30.918,0.56848872,-0.00985623,-0.02890772,-0.82212394
'00:16:44.114,0.059082,0.029297,1.004883,0.182927,1.219512,-0.548781,-4.800000,17.500000,19.287500,30.918,0.56849300,-0.00987125,-0.02890101,-0.82212104
'00:16:44.124,0.059082,0.029785,1.004395,0.365854,1.341463,-0.609756,-4.837500,17.631250,19.400000,30.978,0.56849327,-0.00986609,-0.02890442,-0.82212079
'00:16:44.134,0.061035,0.029297,1.002441,0.365854,1.341463,-0.609756,-4.837500,17.631250,19.400000,30.933,0.56849355,-0.00987412,-0.02891332,-0.82212019
'00:16:44.144,0.061523,0.028320,1.003906,0.304878,1.280488,-0.487805,-5.381250,18.350000,19.925001,30.933,0.56848106,-0.00987521,-0.02889211,-0.82212956
'00:16:44.154,0.060547,0.030762,1.004883,0.365854,1.402439,-0.548781,-5.381250,18.350000,19.925001,30.933,0.56846416,-0.00984987,-0.02887889,-0.82214201
'00:16:44.164,0.062012,0.029297,1.003418,0.243902,1.341463,-0.548781,-5.106250,17.931250,19.568750,30.933,0.56845697,-0.00985797,-0.02886918,-0.82214723
'00:16:44.174,0.061035,0.029297,1.003418,0.304878,1.280488,-0.548781,-5.106250,17.931250,19.568750,30.903,0.56844974,-0.00986206,-0.02886335,-0.82215239
'00:16:44.184,0.059570,0.030273,1.005859,0.365854,1.341463,-0.548781,-4.818750,17.531250,19.312500,30.933,0.56845379,-0.00985739,-0.02887082,-0.82214938
'00:16:44.194,0.060059,0.028809,1.004395,0.365854,1.280488,-0.548781,-4.818750,17.531250,19.312500,30.903,0.56845794,-0.00986589,-0.02887535,-0.82214624
'00:16:44.204,0.058594,0.029297,1.003418,0.304878,1.280488,-0.548781,-4.818750,17.556250,19.343750,30.963,0.56846242,-0.00986787,-0.02887341,-0.82214319
'00:16:44.214,0.057129,0.030762,1.002441,0.426829,1.402439,-0.609756,-4.818750,17.556250,19.343750,30.978,0.56846266,-0.00984112,-0.02887727,-0.82214321
'00:16:44.224,0.057617,0.030273,1.004395,0.304878,1.219512,-0.548781,-4.800000,17.518751,19.375000,30.933,0.56846713,-0.00983902,-0.02888019,-0.82214004
'00:16:44.234,0.059082,0.032227,1.003906,0.304878,1.341463,-0.548781,-4.800000,17.518751,19.375000,30.948,0.56847141,-0.00982873,-0.02889402,-0.82213672
'00:16:44.244,0.061523,0.030273,1.004395,0.304878,1.341463,-0.548781,-5.068750,17.868750,19.631250,30.888,0.56846487,-0.00982900,-0.02889279,-0.82214128
'00:16:44.254,0.062500,0.028320,1.004395,0.304878,1.341463,-0.548781,-5.068750,17.868750,19.631250,30.933,0.56845872,-0.00984211,-0.02888444,-0.82214567
'00:16:44.264,0.062988,0.027832,1.004395,0.243902,1.280488,-0.548781,-5.212500,18.062500,19.700001,30.933,0.56844722,-0.00986126,-0.02886794,-0.82215397
'00:16:44.274,0.062988,0.028809,1.003906,0.304878,1.219512,-0.548781,-5.212500,18.062500,19.700001,30.918,0.56843546,-0.00987796,-0.02886464,-0.82216202
'00:16:44.284,0.062012,0.028320,1.002930,0.121951,1.158537,-0.548781,-4.956250,17.762501,19.468750,30.918,0.56843450,-0.00991513,-0.02885778,-0.82216248
'00:16:44.294,0.060547,0.029785,1.003906,0.487805,1.402439,-0.609756,-4.956250,17.762501,19.468750,30.963,0.56842980,-0.00990212,-0.02886739,-0.82216555
'00:16:44.304,0.059082,0.031250,1.003906,0.792683,1.829268,-0.609756,-4.787500,17.512501,19.350000,30.903,0.56843243,-0.00983620,-0.02888763,-0.82216381
'00:16:44.314,0.060547,0.028809,1.001465,0.121951,1.036585,-0.487805,-4.800000,17.518751,19.375000,30.933,0.56844091,-0.00987932,-0.02889060,-0.82215733
'00:16:44.324,0.056641,0.032227,1.007812,0.487805,1.463415,-0.548781,-4.800000,17.518751,19.375000,30.948,0.56844577,-0.00983625,-0.02890031,-0.82215414
'00:16:44.334,0.061523,0.024414,1.002441,0.487805,1.524390,-0.609756,-4.825000,17.537500,19.337500,30.918,0.56844672,-0.00984684,-0.02888224,-0.82215399
'00:16:44.344,0.059570,0.025391,1.007324,0.182927,1.036585,-0.548781,-4.825000,17.537500,19.337500,30.933,0.56845048,-0.00989185,-0.02886284,-0.82215153
'00:16:44.354,0.055664,0.031738,1.005859,0.548781,1.463415,-0.609756,-5.093750,17.918751,19.643751,30.948,0.56843938,-0.00983159,-0.02885813,-0.82216010
'00:16:44.364,0.061035,0.032227,1.001465,0.487805,1.524390,-0.609756,-5.093750,17.918751,19.643751,30.918,0.56842827,-0.00979932,-0.02887114,-0.82216770
'00:16:44.374,0.060547,0.031738,1.000000,0.182927,1.158537,-0.548781,-5.081250,17.968750,19.618750,30.933,0.56842262,-0.00980990,-0.02887846,-0.82217122
'00:16:44.384,0.059082,0.031250,1.004395,0.182927,1.219512,-0.548781,-5.081250,17.968750,19.618750,30.903,0.56841729,-0.00980897,-0.02887262,-0.82217513
'00:16:44.394,0.063477,0.028320,1.004395,0.548781,1.646341,-0.609756,-4.831250,17.493750,19.356251,30.903,0.56841637,-0.00980243,-0.02888076,-0.82217556
'00:16:44.404,0.066406,0.028809,1.000977,0.243902,1.219512,-0.487805,-4.831250,17.493750,19.356251,30.918,0.56842258,-0.00985683,-0.02890332,-0.82216982
'00:16:44.414,0.066406,0.028809,1.000977,0.243902,1.219512,-0.487805,-4.837500,17.518751,19.387501,30.918,0.56842867,-0.00991041,-0.02892545,-0.82216419
'00:16:44.424,0.063965,0.028809,1.005371,0.060976,1.097561,-0.609756,-4.837500,17.518751,19.387501,30.903,0.56842554,-0.00996630,-0.02892902,-0.82216555
'00:16:44.434,0.062988,0.025391,1.008789,0.365854,1.402439,-0.670732,-4.831250,17.531250,19.343750,30.918,0.56842067,-0.00999178,-0.02891581,-0.82216907
'00:16:44.444,0.060547,0.024414,1.004883,0.548781,1.402439,-0.609756,-4.831250,17.531250,19.343750,30.918,0.56842059,-0.00999939,-0.02890236,-0.82216951
'00:16:44.454,0.055176,0.029297,1.003906,0.304878,1.280488,-0.609756,-5.062500,17.850000,19.575001,30.933,0.56840991,-0.00997052,-0.02887460,-0.82217822
'00:16:44.464,0.052246,0.034668,1.003418,0.426829,1.463415,-0.548781,-5.062500,17.850000,19.575001,30.933,0.56840321,-0.00988611,-0.02886597,-0.82218417
'00:16:44.474,0.053711,0.034668,0.999512,0.426829,1.402439,-0.548781,-5.300000,18.193750,19.831251,30.963,0.56838783,-0.00980892,-0.02885791,-0.82219601
'00:16:44.484,0.057129,0.032227,1.001953,0.243902,1.280488,-0.548781,-5.300000,18.193750,19.831251,30.888,0.56837268,-0.00977829,-0.02884161,-0.82220742
'00:16:44.494,0.058594,0.030273,1.004883,0.243902,1.280488,-0.548781,-4.781250,17.543751,19.343750,30.888,0.56837973,-0.00978292,-0.02884391,-0.82220241
'00:16:44.504,0.063477,0.027832,1.006348,0.304878,1.341463,-0.548781,-4.781250,17.543751,19.343750,30.918,0.56838725,-0.00981623,-0.02885188,-0.82219653
'00:16:44.514,0.065918,0.021973,1.008301,0.304878,1.280488,-0.548781,-4.762500,17.475000,19.362501,30.918,0.56839519,-0.00988937,-0.02883789,-0.82219066
'00:16:44.524,0.065918,0.026855,1.006836,0.426829,1.341463,-0.548781,-4.762500,17.475000,19.362501,30.948,0.56840226,-0.00993241,-0.02885790,-0.82218455
'00:16:44.534,0.063477,0.030762,1.002441,0.426829,1.402439,-0.609756,-4.825000,17.525000,19.381250,30.933,0.56840100,-0.00993935,-0.02888527,-0.82218438
'00:16:44.544,0.062500,0.033691,1.000488,0.365854,1.402439,-0.670732,-4.825000,17.525000,19.381250,30.978,0.56839465,-0.00993249,-0.02892154,-0.82218758
'00:16:44.554,0.058594,0.031738,0.999512,0.243902,1.219512,-0.548781,-4.987500,17.768751,19.512501,30.903,0.56839108,-0.00992548,-0.02892464,-0.82219002
'00:16:44.564,0.055664,0.030273,1.001953,0.243902,1.219512,-0.548781,-4.912500,17.731251,19.462500,30.873,0.56839240,-0.00991132,-0.02891213,-0.82218972
'00:16:44.574,0.055664,0.029785,1.005371,0.304878,1.280488,-0.548781,-4.912500,17.731251,19.462500,30.933,0.56839409,-0.00989126,-0.02889712,-0.82218932
'00:16:44.584,0.056152,0.027832,1.008301,0.243902,1.280488,-0.548781,-4.937500,17.712500,19.500000,30.978,0.56839389,-0.00988262,-0.02886530,-0.82219068
'00:16:44.594,0.058594,0.028320,1.009766,0.304878,1.219512,-0.548781,-4.937500,17.712500,19.500000,30.963,0.56839350,-0.00988679,-0.02885303,-0.82219133
'00:16:44.604,0.059570,0.029297,1.006836,0.487805,1.402439,-0.548781,-4.825000,17.575001,19.362501,30.888,0.56839857,-0.00987549,-0.02886107,-0.82218768
'00:16:44.614,0.061523,0.030762,1.001465,0.487805,1.402439,-0.609756,-4.825000,17.575001,19.362501,30.903,0.56839882,-0.00987036,-0.02888699,-0.82218665
'00:16:44.624,0.061523,0.031738,0.999023,0.304878,1.402439,-0.548781,-4.775000,17.487501,19.287500,30.963,0.56840474,-0.00987282,-0.02890793,-0.82218180
'00:16:44.634,0.062012,0.029297,1.001465,0.243902,1.280488,-0.548781,-4.775000,17.487501,19.287500,30.918,0.56841075,-0.00989877,-0.02891717,-0.82217701
'00:16:44.644,0.061035,0.028320,1.003906,0.304878,1.341463,-0.609756,-4.918750,17.668751,19.431250,30.933,0.56840653,-0.00990866,-0.02891018,-0.82218005
'00:16:44.654,0.061035,0.027832,1.006836,0.304878,1.280488,-0.609756,-4.918750,17.668751,19.431250,30.903,0.56840229,-0.00992403,-0.02890244,-0.82218307
'00:16:44.664,0.059570,0.028809,1.007812,0.304878,1.219512,-0.609756,-5.050000,17.937500,19.656250,30.948,0.56839424,-0.00992805,-0.02889332,-0.82218891
'00:16:44.674,0.058105,0.029785,1.007324,0.426829,1.341463,-0.548781,-5.050000,17.937500,19.656250,30.903,0.56839083,-0.00990574,-0.02888706,-0.82219175
'00:16:44.684,0.057129,0.029785,1.003418,0.426829,1.341463,-0.609756,-5.012500,17.793751,19.556250,30.903,0.56838268,-0.00987897,-0.02887834,-0.82219802
'00:16:44.694,0.058594,0.031738,0.999512,0.365854,1.341463,-0.609756,-5.012500,17.793751,19.556250,30.918,0.56837408,-0.00985692,-0.02888362,-0.82220404
'00:16:44.704,0.059570,0.033691,1.000488,0.182927,1.219512,-0.548781,-4.831250,17.581251,19.325001,30.933,0.56837736,-0.00985791,-0.02890564,-0.82220099
'00:16:44.714,0.061035,0.029785,0.999023,0.304878,1.341463,-0.548781,-4.831250,17.581251,19.325001,30.933,0.56838176,-0.00986789,-0.02891410,-0.82219752
'00:16:44.724,0.060547,0.031250,1.003418,0.000000,0.914634,-0.548781,-4.781250,17.550001,19.425001,30.903,0.56838685,-0.00991691,-0.02892937,-0.82219288
'00:16:44.734,0.061523,0.027344,1.008789,-0.731707,0.243902,-0.487805,-4.781250,17.550001,19.425001,30.933,0.56839467,-0.01006928,-0.02890441,-0.82218650
'00:16:44.744,0.066406,0.022949,1.000977,0.426829,1.463415,-0.609756,-4.800000,17.468750,19.281250,30.933,0.56839554,-0.01011696,-0.02889626,-0.82218560
'00:16:44.754,0.061035,0.028320,1.007324,1.768293,2.804878,-0.670732,-4.800000,17.468750,19.281250,30.963,0.56839573,-0.00994945,-0.02892510,-0.82218650
'00:16:44.764,0.052734,0.036621,1.012207,-0.426829,0.548781,-0.548781,-5.000000,17.756250,19.537500,30.933,0.56838778,-0.00996880,-0.02891172,-0.82219223
'00:16:44.774,0.060059,0.028809,0.999512,0.000000,0.975610,-0.548781,-5.000000,17.756250,19.537500,30.948,0.56838269,-0.01000952,-0.02889738,-0.82219576
'00:16:44.785,0.059082,0.030762,1.000488,1.036585,2.134146,-0.609756,-5.231250,18.156250,19.781250,30.903,0.56836834,-0.00988344,-0.02889895,-0.82220715
'00:16:44.794,0.053223,0.038086,1.008301,0.121951,1.097561,-0.548781,-5.231250,18.156250,19.781250,30.888,0.56835645,-0.00983456,-0.02890117,-0.82221588
'00:16:44.804,0.062012,0.028320,1.001465,-0.426829,0.609756,-0.548781,-4.825000,17.543751,19.387501,30.933,0.56835807,-0.00994437,-0.02888755,-0.82221391
'00:16:44.814,0.063965,0.025391,1.003418,0.548781,1.463415,-0.548781,-4.731250,17.475000,19.287500,30.918,0.56836837,-0.00996945,-0.02889764,-0.82220614
'00:16:44.824,0.062988,0.025879,1.004395,1.463415,2.439024,-0.609756,-4.731250,17.475000,19.287500,30.933,0.56837742,-0.00987121,-0.02892338,-0.82220016
'00:16:44.836,0.062500,0.024902,1.004883,-0.304878,0.548781,-0.426829,-4.787500,17.500000,19.318750,30.888,0.56839266,-0.01002069,-0.02890026,-0.82218863
'00:16:44.844,0.051270,0.035645,1.009277,0.853659,1.951220,-0.670732,-4.787500,17.500000,19.318750,30.903,0.56839076,-0.00990691,-0.02890845,-0.82219103
'00:16:44.856,0.064941,0.025391,0.996582,0.731707,1.829268,-0.670732,-5.043750,17.887501,19.475000,30.963,0.56837872,-0.00988655,-0.02890463,-0.82219974
'00:16:44.864,0.063477,0.028320,1.000000,-0.182927,0.731707,-0.487805,-5.043750,17.887501,19.475000,30.933,0.56837799,-0.00995693,-0.02890062,-0.82219953
'00:16:44.874,0.053223,0.035645,1.010254,0.182927,1.219512,-0.548781,-5.012500,17.818750,19.525000,30.933,0.56837322,-0.00990512,-0.02889595,-0.82220362
'00:16:44.884,0.061523,0.027344,1.003906,0.792683,1.768293,-0.670732,-5.012500,17.818750,19.525000,30.963,0.56836323,-0.00986321,-0.02889599,-0.82221103
'00:16:44.894,0.064941,0.023926,1.000977,0.182927,1.097561,-0.548781,-4.862500,17.612501,19.412500,30.888,0.56836623,-0.00993922,-0.02888723,-0.82220835
'00:16:44.904,0.058594,0.030273,1.008789,0.121951,1.097561,-0.548781,-4.862500,17.612501,19.412500,30.963,0.56836807,-0.00995586,-0.02888244,-0.82220705
'00:16:44.914,0.059570,0.031250,1.004395,0.548781,1.646341,-0.609756,-4.793750,17.543751,19.325001,30.948,0.56837049,-0.00991709,-0.02889613,-0.82220536
'00:16:44.924,0.063477,0.026367,0.999512,0.365854,1.341463,-0.670732,-4.793750,17.543751,19.325001,30.933,0.56836847,-0.00995148,-0.02890099,-0.82220617
'00:16:44.934,0.060059,0.030273,1.003906,0.060976,1.036585,-0.548781,-4.775000,17.437500,19.306250,30.918,0.56837232,-0.00998707,-0.02890509,-0.82220293
'00:16:44.944,0.059082,0.031738,1.004395,0.426829,1.463415,-0.609756,-4.775000,17.437500,19.306250,30.903,0.56837284,-0.00996187,-0.02891853,-0.82220240
'00:16:44.954,0.060059,0.029785,1.001953,0.304878,1.280488,-0.548781,-4.856250,17.537500,19.412500,30.933,0.56837382,-0.00996671,-0.02892148,-0.82220157
'00:16:44.964,0.057617,0.029785,1.005859,0.121951,1.158537,-0.548781,-4.856250,17.537500,19.412500,30.948,0.56837442,-0.00997487,-0.02890628,-0.82220158
'00:16:44.974,0.059082,0.029297,1.003418,0.182927,1.219512,-0.548781,-5.162500,17.987501,19.681250,30.948,0.56836409,-0.00997506,-0.02888371,-0.82220952
'00:16:44.984,0.061523,0.027344,1.002441,0.487805,1.585366,-0.548781,-5.162500,17.987501,19.681250,30.948,0.56835535,-0.00995490,-0.02886410,-0.82221649
'00:16:44.994,0.057617,0.031250,1.004395,0.243902,1.280488,-0.548781,-4.981250,17.812500,19.487501,30.933,0.56835386,-0.00993989,-0.02885838,-0.82221791
'00:16:45.004,0.061035,0.029297,1.001465,0.548781,1.585366,-0.609756,-4.981250,17.812500,19.487501,30.888,0.56834934,-0.00991493,-0.02886286,-0.82222117
'00:16:45.014,0.061523,0.028320,1.003418,0.060976,1.097561,-0.487805,-4.850000,17.568750,19.293751,30.933,0.56835622,-0.00995993,-0.02885672,-0.82221609
'00:16:45.024,0.058105,0.031738,1.006836,0.365854,1.341463,-0.548781,-4.850000,17.568750,19.293751,30.933,0.56835895,-0.00993861,-0.02886518,-0.82221416
'00:16:45.035,0.061523,0.028320,1.002930,0.243902,1.219512,-0.548781,-4.768750,17.537500,19.362501,30.978,0.56836722,-0.00997347,-0.02887233,-0.82220777
'00:16:45.044,0.059082,0.029297,1.004883,0.426829,1.463415,-0.609756,-4.768750,17.537500,19.362501,30.933,0.56837059,-0.00996140,-0.02887476,-0.82220551
'00:16:45.054,0.060547,0.031250,1.001465,0.304878,1.402439,-0.487805,-4.825000,17.487501,19.331251,30.993,0.56837731,-0.00995577,-0.02888418,-0.82220059
'00:16:45.064,0.059570,0.031738,1.002441,0.243902,1.219512,-0.548781,-4.825000,17.487501,19.331251,30.903,0.56837907,-0.00995861,-0.02889678,-0.82219891
'00:16:45.074,0.061035,0.029297,1.003418,0.304878,1.402439,-0.548781,-4.950000,17.675001,19.518751,30.903,0.56837684,-0.00995827,-0.02889026,-0.82220068
'00:16:45.085,0.061523,0.026367,1.007324,0.243902,1.280488,-0.548781,-5.181250,18.056250,19.693750,30.978,0.56836673,-0.00997633,-0.02885833,-0.82220857
'00:16:45.094,0.058594,0.027344,1.008789,0.365854,1.280488,-0.548781,-5.181250,18.056250,19.693750,30.933,0.56835849,-0.00996773,-0.02883490,-0.82221519
'00:16:45.104,0.058105,0.029297,1.006348,0.426829,1.402439,-0.609756,-4.806250,17.493750,19.325001,30.873,0.56835872,-0.00995010,-0.02883301,-0.82221531
'00:16:45.116,0.058594,0.028320,1.005859,0.426829,1.280488,-0.609756,-4.806250,17.493750,19.325001,30.918,0.56835889,-0.00994776,-0.02883390,-0.82221519
'00:16:45.124,0.057617,0.032227,1.001953,0.426829,1.402439,-0.548781,-4.812500,17.550001,19.350000,30.933,0.56836272,-0.00992366,-0.02884624,-0.82221240
'00:16:45.134,0.060059,0.031738,0.999512,0.365854,1.402439,-0.548781,-4.812500,17.550001,19.350000,30.948,0.56836745,-0.00991295,-0.02886478,-0.82220861
'00:16:45.144,0.060059,0.031738,0.999512,0.365854,1.402439,-0.548781,-4.781250,17.506250,19.293751,30.948,0.56837353,-0.00990352,-0.02888457,-0.82220383
'00:16:45.155,0.062012,0.030273,1.000000,0.182927,1.219512,-0.548781,-4.781250,17.506250,19.293751,30.918,0.56837975,-0.00993582,-0.02890042,-0.82219858
'00:16:45.164,0.062012,0.030273,1.000000,0.182927,1.219512,-0.548781,-5.031250,17.868750,19.556250,30.918,0.56837605,-0.00995320,-0.02890286,-0.82220084
'00:16:45.174,0.062500,0.027832,1.008789,0.243902,1.280488,-0.609756,-5.031250,17.868750,19.556250,30.933,0.56836830,-0.00997479,-0.02889173,-0.82220633
'00:16:45.184,0.061523,0.024902,1.011719,0.426829,1.341463,-0.548781,-5.125000,17.975000,19.625000,30.963,0.56836183,-0.00998408,-0.02886540,-0.82221161
'00:16:45.195,0.060059,0.025879,1.008301,0.426829,1.341463,-0.548781,-5.125000,17.975000,19.625000,30.963,0.56835457,-0.00998237,-0.02883809,-0.82221761
'00:16:45.204,0.055176,0.031738,1.003418,0.426829,1.402439,-0.609756,-4.900000,17.706251,19.431250,30.963,0.56835264,-0.00994139,-0.02883746,-0.82221946
'00:16:45.214,0.055176,0.036621,0.998535,0.426829,1.463415,-0.609756,-4.900000,17.706251,19.431250,30.933,0.56834961,-0.00987371,-0.02886340,-0.82222147
'00:16:45.224,0.058105,0.033691,0.996582,0.243902,1.341463,-0.487805,-4.812500,17.512501,19.331251,30.918,0.56835735,-0.00985565,-0.02887996,-0.82221575
'00:16:45.235,0.060547,0.030273,0.999512,0.182927,1.219512,-0.487805,-4.812500,17.512501,19.331251,30.918,0.56836620,-0.00987827,-0.02888735,-0.82220910
'00:16:45.244,0.062012,0.027344,1.004883,0.182927,1.219512,-0.609756,-4.862500,17.593750,19.400000,30.888,0.56836440,-0.00991108,-0.02887963,-0.82221022
'00:16:45.254,0.063477,0.024414,1.010254,0.243902,1.280488,-0.609756,-4.862500,17.593750,19.400000,30.963,0.56836313,-0.00995769,-0.02885958,-0.82221124
'00:16:45.264,0.063477,0.025879,1.012695,0.243902,1.280488,-0.609756,-4.793750,17.481251,19.281250,30.948,0.56836415,-0.00999984,-0.02884995,-0.82221036
'00:16:45.274,0.062012,0.026855,1.009277,0.426829,1.341463,-0.609756,-4.793750,17.481251,19.281250,30.933,0.56836525,-0.01001699,-0.02885169,-0.82220933
'00:16:45.284,0.057617,0.030273,1.001953,0.487805,1.463415,-0.548781,-5.243750,18.162500,19.762501,30.918,0.56835408,-0.00997080,-0.02883825,-0.82221808
'00:16:45.294,0.057617,0.034180,0.995605,0.426829,1.402439,-0.548781,-5.243750,18.162500,19.762501,30.918,0.56834198,-0.00991896,-0.02884783,-0.82222674
'00:16:45.304,0.055664,0.034180,0.994629,0.243902,1.341463,-0.487805,-4.912500,17.743750,19.462500,30.933,0.56834767,-0.00988270,-0.02885604,-0.82222296
'00:16:45.314,0.059570,0.031738,0.999023,0.121951,1.219512,-0.609756,-4.912500,17.743750,19.462500,30.903,0.56834468,-0.00989203,-0.02886100,-0.82222474
'00:16:45.324,0.061035,0.030273,1.007324,0.121951,1.158537,-0.548781,-4.800000,17.518751,19.356251,30.903,0.56834912,-0.00992129,-0.02886653,-0.82222112
'00:16:45.334,0.062500,0.026367,1.011719,0.243902,1.280488,-0.609756,-4.800000,17.518751,19.356251,30.948,0.56835031,-0.00995746,-0.02885648,-0.82222021
'00:16:45.344,0.063477,0.026855,1.012207,0.365854,1.280488,-0.609756,-4.787500,17.537500,19.350000,30.933,0.56835276,-0.00999137,-0.02886302,-0.82221788
'00:16:45.355,0.062500,0.027832,1.005859,0.487805,1.402439,-0.609756,-4.800000,17.493750,19.325001,30.933,0.56835360,-0.01000180,-0.02887551,-0.82221673
'00:16:45.364,0.061523,0.028320,1.002441,0.487805,1.463415,-0.548781,-4.800000,17.493750,19.325001,30.888,0.56835824,-0.01000053,-0.02888308,-0.82221328
'00:16:45.374,0.059082,0.031250,0.997559,0.365854,1.402439,-0.609756,-5.068750,17.956251,19.643751,30.918,0.56834939,-0.00997657,-0.02888447,-0.82221963
'00:16:45.384,0.055176,0.035156,0.997559,0.365854,1.341463,-0.548781,-5.068750,17.956251,19.643751,30.978,0.56834408,-0.00992066,-0.02889581,-0.82222358
'00:16:45.396,0.057617,0.032227,1.000977,0.304878,1.341463,-0.548781,-5.193750,18.125000,19.700001,30.933,0.56833299,-0.00988208,-0.02888749,-0.82223201
'00:16:45.404,0.058105,0.031250,1.005859,0.243902,1.280488,-0.548781,-5.193750,18.125000,19.700001,30.933,0.56832570,-0.00986711,-0.02887669,-0.82223760
'00:16:45.414,0.059570,0.027832,1.009277,0.243902,1.341463,-0.609756,-4.831250,17.531250,19.375000,30.948,0.56832504,-0.00987683,-0.02885937,-0.82223855
'00:16:45.424,0.061035,0.024902,1.012207,0.426829,1.402439,-0.548781,-4.831250,17.531250,19.375000,30.933,0.56832965,-0.00989194,-0.02884038,-0.82223585
'00:16:45.436,0.062012,0.024414,1.004883,0.426829,1.402439,-0.548781,-4.800000,17.531250,19.312500,30.918,0.56833809,-0.00992264,-0.02882556,-0.82223017
'00:16:45.444,0.061523,0.027344,1.001953,0.487805,1.402439,-0.548781,-4.800000,17.531250,19.312500,30.873,0.56834323,-0.00992959,-0.02883198,-0.82222630
'00:16:45.454,0.060547,0.033203,0.998047,0.426829,1.402439,-0.548781,-4.793750,17.550001,19.350000,30.918,0.56834904,-0.00991420,-0.02886751,-0.82222123
'00:16:45.464,0.057617,0.037598,0.992188,0.365854,1.341463,-0.548781,-4.793750,17.550001,19.350000,30.933,0.56835365,-0.00987343,-0.02891739,-0.82221678
'00:16:45.476,0.059570,0.035156,0.999512,0.121951,1.280488,-0.548781,-4.837500,17.500000,19.362501,30.978,0.56835423,-0.00986418,-0.02894186,-0.82221563
'00:16:45.484,0.061523,0.026367,1.007324,0.243902,1.219512,-0.487805,-4.837500,17.500000,19.362501,30.933,0.56835955,-0.00989192,-0.02893086,-0.82221200
'00:16:45.494,0.062500,0.024414,1.011230,0.365854,1.341463,-0.548781,-5.187500,18.025000,19.712500,30.933,0.56834990,-0.00990985,-0.02889731,-0.82221963
'00:16:45.504,0.062988,0.022949,1.011230,0.426829,1.280488,-0.609756,-5.187500,18.025000,19.712500,30.918,0.56833611,-0.00993686,-0.02886559,-0.82222995
'00:16:45.516,0.060547,0.028320,1.008301,0.487805,1.341463,-0.609756,-4.806250,17.493750,19.325001,30.933,0.56833650,-0.00993823,-0.02887551,-0.82222932
'00:16:45.524,0.058105,0.031738,1.004395,0.487805,1.402439,-0.548781,-4.806250,17.493750,19.325001,30.948,0.56833983,-0.00991478,-0.02888873,-0.82222684
'00:16:45.534,0.057617,0.034180,0.997070,0.426829,1.463415,-0.548781,-4.812500,17.531250,19.343750,30.918,0.56834389,-0.00987364,-0.02891307,-0.82222367
'00:16:45.544,0.057129,0.032715,0.993652,0.365854,1.402439,-0.548781,-4.812500,17.531250,19.343750,30.903,0.56834807,-0.00984421,-0.02892685,-0.82222065
'00:16:45.555,0.057129,0.031738,0.997559,0.182927,1.219512,-0.548781,-4.787500,17.506250,19.356251,30.918,0.56835350,-0.00984142,-0.02893092,-0.82221679
'00:16:45.564,0.059082,0.028809,1.004883,0.182927,1.280488,-0.548781,-4.787500,17.506250,19.356251,30.948,0.56835861,-0.00985421,-0.02892060,-0.82221346
'00:16:45.574,0.061523,0.027344,1.006348,0.243902,1.280488,-0.609756,-4.787500,17.512501,19.331251,30.888,0.56836043,-0.00988400,-0.02891448,-0.82221207
'00:16:45.584,0.060547,0.028320,1.009766,0.243902,1.280488,-0.548781,-4.787500,17.512501,19.331251,30.948,0.56836643,-0.00990352,-0.02890877,-0.82220788
'00:16:45.598,0.061523,0.028320,1.011230,0.304878,1.402439,-0.609756,-5.056250,17.868750,19.556250,30.948,0.56835384,-0.00990552,-0.02888558,-0.82221738
'00:16:45.604,0.063477,0.026855,1.005859,0.365854,1.341463,-0.548781,-5.068750,17.825001,19.562500,30.948,0.56835003,-0.00991692,-0.02887989,-0.82222007
'00:16:45.614,0.062012,0.029785,1.001465,0.487805,1.341463,-0.548781,-5.068750,17.825001,19.562500,30.903,0.56834321,-0.00991157,-0.02889167,-0.82222444
'00:16:45.624,0.059570,0.029785,0.999023,0.365854,1.341463,-0.548781,-4.781250,17.506250,19.375000,30.903,0.56834926,-0.00991193,-0.02890112,-0.82221992
'00:16:45.637,0.057129,0.032227,0.999512,0.304878,1.280488,-0.609756,-4.781250,17.506250,19.375000,30.933,0.56835057,-0.00989111,-0.02891703,-0.82221870
'00:16:45.644,0.055664,0.033203,1.000977,0.243902,1.341463,-0.609756,-4.793750,17.568750,19.418751,30.903,0.56835155,-0.00987059,-0.02892005,-0.82221817
'00:16:45.654,0.056641,0.030273,1.004395,0.182927,1.280488,-0.548781,-4.793750,17.568750,19.418751,30.948,0.56835777,-0.00986568,-0.02890861,-0.82221433
'00:16:45.664,0.059570,0.028320,1.008789,0.182927,1.219512,-0.548781,-4.818750,17.550001,19.381250,30.918,0.56836216,-0.00988644,-0.02889664,-0.82221147
'00:16:45.676,0.060059,0.027344,1.009766,0.182927,1.158537,-0.548781,-4.818750,17.550001,19.381250,30.933,0.56836742,-0.00992378,-0.02888127,-0.82220792
'00:16:45.684,0.062012,0.026855,1.008789,-0.121951,0.792683,-0.548781,-5.043750,17.818750,19.525000,30.963,0.56836225,-0.00998373,-0.02886358,-0.82221139
'00:16:45.694,0.063965,0.028320,1.003418,-0.182927,0.731707,-0.548781,-5.043750,17.818750,19.525000,30.948,0.56835511,-0.01007134,-0.02885790,-0.82221546
'00:16:45.704,0.063477,0.029297,0.997070,0.487805,1.463415,-0.548781,-5.150000,18.050001,19.712500,30.918,0.56834763,-0.01006449,-0.02886725,-0.82222038
'00:16:45.716,0.062012,0.032227,0.997559,1.036585,2.134146,-0.670732,-5.150000,18.050001,19.712500,30.933,0.56833010,-0.00994255,-0.02889839,-0.82223289
'00:16:45.724,0.059570,0.032227,1.003418,0.792683,1.829268,-0.548781,-4.818750,17.562500,19.362501,30.903,0.56833483,-0.00988785,-0.02891941,-0.82222954
'00:16:45.734,0.058594,0.028320,1.005859,0.000000,0.975610,-0.548781,-4.818750,17.562500,19.362501,30.903,0.56833884,-0.00993021,-0.02890399,-0.82222680
'00:16:45.744,0.058594,0.027832,1.006348,-0.304878,0.670732,-0.548781,-4.800000,17.556250,19.418751,30.963,0.56834279,-0.01001195,-0.02888014,-0.82222392
'00:16:45.754,0.060059,0.027344,1.006348,0.243902,1.219512,-0.548781,-4.800000,17.556250,19.418751,30.948,0.56834852,-0.01003599,-0.02887160,-0.82221996
'00:16:45.765,0.059570,0.029297,1.006348,0.853659,1.890244,-0.670732,-4.787500,17.475000,19.350000,30.903,0.56834632,-0.00996354,-0.02888317,-0.82222196
'00:16:45.774,0.058105,0.030273,1.004395,0.914634,1.890244,-0.609756,-4.787500,17.475000,19.350000,30.933,0.56834846,-0.00989219,-0.02889705,-0.82222086
'00:16:45.784,0.059082,0.031738,1.002930,0.304878,1.280488,-0.548781,-5.056250,17.850000,19.562500,30.918,0.56834244,-0.00987785,-0.02889922,-0.82222511
'00:16:45.794,0.061523,0.029297,1.000977,0.060976,0.975610,-0.548781,-5.056250,17.850000,19.562500,30.933,0.56833592,-0.00992086,-0.02889548,-0.82222923
'00:16:45.804,0.062500,0.028809,1.000488,0.243902,1.280488,-0.548781,-5.125000,17.968750,19.587500,30.903,0.56832844,-0.00993723,-0.02888860,-0.82223444
'00:16:45.814,0.062012,0.029785,1.001465,0.487805,1.524390,-0.609756,-5.125000,17.968750,19.587500,30.963,0.56831725,-0.00991708,-0.02889044,-0.82224236
'00:16:45.824,0.061035,0.028809,1.003418,0.487805,1.524390,-0.609756,-4.787500,17.462500,19.331251,30.933,0.56831845,-0.00990806,-0.02889661,-0.82224142
'00:16:45.836,0.059570,0.029297,1.007324,0.426829,1.463415,-0.548781,-4.825000,17.525000,19.243750,30.948,0.56832398,-0.00989132,-0.02889549,-0.82223784
'00:16:45.844,0.059570,0.029297,1.004883,0.304878,1.219512,-0.487805,-4.825000,17.525000,19.243750,30.948,0.56833059,-0.00989971,-0.02889816,-0.82223308
'00:16:45.854,0.058594,0.030273,1.003906,0.487805,1.463415,-0.548781,-4.825000,17.525000,19.243750,30.993,0.56833502,-0.00987432,-0.02890463,-0.82223009
'00:16:45.864,0.059082,0.029785,1.002441,0.243902,1.280488,-0.548781,-4.775000,17.443750,19.312500,30.933,0.56834014,-0.00988155,-0.02890408,-0.82222648
'00:16:45.875,0.058594,0.028809,1.003906,0.365854,1.341463,-0.548781,-5.068750,17.812500,19.500000,30.963,0.56833287,-0.00986561,-0.02888564,-0.82223235
'00:16:45.884,0.059570,0.029297,1.002441,0.426829,1.402439,-0.548781,-5.068750,17.812500,19.500000,30.933,0.56832706,-0.00984956,-0.02887838,-0.82223681
'00:16:45.894,0.059082,0.029785,1.003906,0.304878,1.280488,-0.548781,-5.062500,17.943750,19.675001,30.918,0.56832296,-0.00984450,-0.02887121,-0.82223996
'00:16:45.905,0.058594,0.031738,1.004395,0.365854,1.402439,-0.548781,-5.062500,17.943750,19.675001,30.933,0.56831845,-0.00981474,-0.02887137,-0.82224343
'00:16:45.914,0.058594,0.031738,1.004395,0.365854,1.402439,-0.548781,-4.937500,17.712500,19.468750,30.933,0.56831831,-0.00979402,-0.02887559,-0.82224363
'00:16:45.924,0.061035,0.030273,1.004883,0.304878,1.341463,-0.548781,-4.937500,17.712500,19.468750,30.918,0.56831821,-0.00979772,-0.02887981,-0.82224350
'00:16:45.934,0.060547,0.027832,1.005859,0.304878,1.280488,-0.548781,-4.850000,17.550001,19.318750,30.918,0.56832127,-0.00981505,-0.02887419,-0.82224137
'00:16:45.944,0.061035,0.028320,1.004395,0.426829,1.341463,-0.609756,-4.850000,17.550001,19.318750,30.948,0.56832007,-0.00982264,-0.02887960,-0.82224193
'00:16:45.955,0.060547,0.029297,1.002441,0.426829,1.341463,-0.609756,-4.793750,17.525000,19.362501,30.933,0.56832194,-0.00982781,-0.02889437,-0.82224005
'00:16:45.964,0.058594,0.029785,1.003418,0.365854,1.341463,-0.548781,-4.793750,17.525000,19.362501,30.888,0.56832732,-0.00982309,-0.02889757,-0.82223628
'00:16:45.974,0.060059,0.029785,1.002930,0.365854,1.341463,-0.548781,-4.818750,17.556250,19.400000,30.948,0.56833205,-0.00982514,-0.02890564,-0.82223270
'00:16:45.984,0.058594,0.031738,1.001465,0.182927,1.280488,-0.609756,-4.818750,17.556250,19.400000,30.963,0.56833169,-0.00982483,-0.02890956,-0.82223281
'00:16:45.995,0.058105,0.030273,1.004883,0.304878,1.280488,-0.609756,-5.137500,17.956251,19.706251,30.948,0.56831695,-0.00980680,-0.02889379,-0.82224377
'00:16:46.006,0.061035,0.029297,1.004395,0.304878,1.341463,-0.548781,-5.137500,17.956251,19.706251,30.903,0.56830745,-0.00980630,-0.02888151,-0.82225078
'00:16:46.014,0.058594,0.028809,1.005371,0.243902,1.280488,-0.548781,-5.106250,17.912500,19.625000,30.963,0.56830165,-0.00980340,-0.02886297,-0.82225547
'00:16:46.024,0.059570,0.026855,1.006348,0.365854,1.341463,-0.609756,-5.106250,17.912500,19.625000,30.933,0.56829073,-0.00980190,-0.02883842,-0.82226390
'00:16:46.034,0.059082,0.027832,1.004883,0.365854,1.402439,-0.609756,-4.806250,17.525000,19.381250,30.918,0.56829218,-0.00980212,-0.02882925,-0.82226321
'00:16:46.044,0.060059,0.029785,1.003418,0.365854,1.341463,-0.548781,-4.806250,17.525000,19.381250,30.993,0.56829740,-0.00980490,-0.02883868,-0.82225924
'00:16:46.054,0.060059,0.030273,1.002930,0.243902,1.280488,-0.548781,-4.793750,17.568750,19.356251,30.963,0.56830423,-0.00981750,-0.02884727,-0.82225407
'00:16:46.064,0.061035,0.032227,1.001465,0.304878,1.341463,-0.548781,-4.793750,17.568750,19.356251,30.933,0.56831073,-0.00982047,-0.02887247,-0.82224866
'00:16:46.074,0.061035,0.032715,1.001953,0.243902,1.280488,-0.548781,-4.800000,17.462500,19.212500,30.933,0.56831449,-0.00982645,-0.02889565,-0.82224517
'00:16:46.084,0.060059,0.028809,1.004883,0.182927,1.219512,-0.548781,-4.800000,17.462500,19.212500,30.918,0.56831889,-0.00984902,-0.02889007,-0.82224206
'00:16:46.094,0.062500,0.026367,1.007324,0.365854,1.341463,-0.609756,-5.031250,17.881250,19.600000,30.963,0.56831219,-0.00986820,-0.02887784,-0.82224688
'00:16:46.104,0.060059,0.027832,1.008301,0.304878,1.280488,-0.548781,-5.031250,17.881250,19.600000,30.918,0.56830946,-0.00987562,-0.02886288,-0.82224921
'00:16:46.114,0.061035,0.028320,1.003906,0.365854,1.341463,-0.548781,-5.118750,17.987501,19.606251,30.888,0.56830340,-0.00987626,-0.02885371,-0.82225372
'00:16:46.124,0.059082,0.030273,1.004883,0.426829,1.402439,-0.548781,-4.837500,17.531250,19.418751,30.933,0.56830636,-0.00986103,-0.02885993,-0.82225163
'00:16:46.134,0.059082,0.031250,0.999512,0.426829,1.402439,-0.548781,-4.837500,17.531250,19.418751,30.903,0.56830908,-0.00984327,-0.02887380,-0.82224948
'00:16:46.144,0.055664,0.032715,0.998535,0.304878,1.280488,-0.548781,-4.825000,17.462500,19.318750,30.903,0.56831082,-0.00981523,-0.02887975,-0.82224840
'00:16:46.154,0.058105,0.032715,1.000977,0.243902,1.341463,-0.548781,-4.825000,17.462500,19.318750,30.933,0.56831263,-0.00979952,-0.02888676,-0.82224709
'00:16:46.164,0.060547,0.028809,1.005859,0.000000,1.097561,-0.548781,-4.862500,17.556250,19.375000,30.933,0.56831382,-0.00984073,-0.02887279,-0.82224626
'00:16:46.174,0.062012,0.027344,1.011230,-0.121951,0.853659,-0.548781,-4.862500,17.556250,19.375000,30.948,0.56831453,-0.00991736,-0.02885760,-0.82224539
'00:16:46.184,0.063477,0.024902,1.011230,-0.060976,0.792683,-0.548781,-4.968750,17.737501,19.487501,30.963,0.56831200,-0.01000769,-0.02883794,-0.82224673
'00:16:46.194,0.064453,0.023926,1.005371,0.548781,1.524390,-0.548781,-4.968750,17.737501,19.487501,30.993,0.56831184,-0.01002445,-0.02882640,-0.82224704
'00:16:46.204,0.062500,0.027832,1.002930,1.463415,2.560976,-0.670732,-5.087500,17.906250,19.618750,30.933,0.56830104,-0.00989163,-0.02883945,-0.82225566
'00:16:46.214,0.054199,0.036621,1.005371,-0.304878,0.548781,-0.487805,-5.087500,17.906250,19.618750,30.933,0.56829536,-0.00991322,-0.02884165,-0.82225925
'00:16:46.224,0.060547,0.029297,0.994629,0.670732,1.707317,-0.609756,-4.900000,17.675001,19.412500,30.933,0.56829409,-0.00987572,-0.02885331,-0.82226017
'00:16:46.234,0.050293,0.038574,1.008301,-0.121951,0.853659,-0.487805,-4.900000,17.675001,19.412500,30.948,0.56829717,-0.00984326,-0.02885751,-0.82225828
'00:16:46.244,0.060547,0.026855,1.001465,0.487805,1.585366,-0.609756,-4.800000,17.556250,19.343750,30.888,0.56830051,-0.00983704,-0.02885043,-0.82225629
'00:16:46.254,0.056152,0.031738,1.015137,-0.121951,0.792683,-0.487805,-4.800000,17.556250,19.343750,30.933,0.56830935,-0.00987190,-0.02884427,-0.82224998
'00:16:46.264,0.064941,0.021973,1.006348,0.731707,1.768293,-0.548781,-4.812500,17.562500,19.318750,30.933,0.56831785,-0.00988102,-0.02883247,-0.82224441
'00:16:46.274,0.060547,0.030762,1.009766,-0.121951,0.792683,-0.487805,-4.812500,17.562500,19.318750,30.948,0.56832596,-0.00994363,-0.02883919,-0.82223782
'00:16:46.284,0.058105,0.034668,1.004395,0.853659,1.890244,-0.670732,-4.818750,17.525000,19.381250,30.963,0.56832200,-0.00984913,-0.02887479,-0.82224045
'00:16:46.294,0.065430,0.028320,0.994141,0.304878,1.341463,-0.548781,-4.818750,17.525000,19.381250,30.978,0.56832600,-0.00989079,-0.02889409,-0.82223650
'00:16:46.304,0.057129,0.033691,1.000000,-0.060976,0.914634,-0.548781,-5.043750,17.868750,19.618750,30.933,0.56831948,-0.00990416,-0.02889420,-0.82224084
'00:16:46.314,0.059082,0.029297,1.000977,0.609756,1.707317,-0.670732,-5.043750,17.868750,19.618750,30.933,0.56830769,-0.00985470,-0.02888568,-0.82224989
'00:16:46.324,0.060059,0.026367,1.005859,0.060976,1.036585,-0.548781,-4.975000,17.775000,19.468750,30.963,0.56830628,-0.00989961,-0.02886000,-0.82225122
'00:16:46.334,0.055664,0.032227,1.014160,0.426829,1.402439,-0.609756,-4.975000,17.775000,19.468750,30.918,0.56830068,-0.00985105,-0.02885553,-0.82225583
'00:16:46.344,0.061035,0.028320,1.008301,0.487805,1.463415,-0.609756,-4.831250,17.506250,19.325001,30.933,0.56830013,-0.00984616,-0.02885842,-0.82225617
'00:16:46.354,0.059570,0.029785,1.007324,0.182927,1.097561,-0.548781,-4.831250,17.506250,19.325001,30.873,0.56830252,-0.00986924,-0.02886052,-0.82225417
'00:16:46.364,0.060059,0.028320,1.001953,0.548781,1.524390,-0.609756,-4.793750,17.462500,19.318750,30.963,0.56830371,-0.00985443,-0.02886524,-0.82225335
'00:16:46.374,0.062012,0.029785,0.995605,0.304878,1.280488,-0.548781,-4.793750,17.462500,19.318750,30.918,0.56830802,-0.00987600,-0.02888295,-0.82224950
'00:16:46.384,0.059082,0.032227,0.998535,0.243902,1.280488,-0.609756,-4.825000,17.531250,19.356251,30.963,0.56830674,-0.00987255,-0.02889648,-0.82224995
'00:16:46.394,0.060059,0.029297,1.001953,0.365854,1.341463,-0.548781,-5.100000,17.937500,19.562500,30.948,0.56830070,-0.00986488,-0.02888954,-0.82225446
'00:16:46.404,0.059570,0.028809,1.005371,0.182927,1.219512,-0.487805,-5.100000,17.937500,19.562500,30.918,0.56829875,-0.00987381,-0.02886976,-0.82225640
'00:16:46.416,0.057617,0.030762,1.010254,0.304878,1.280488,-0.548781,-5.200000,18.000000,19.668751,30.978,0.56828441,-0.00984347,-0.02884779,-0.82226744
'00:16:46.424,0.061035,0.027344,1.007324,0.365854,1.402439,-0.609756,-5.200000,18.000000,19.668751,30.978,0.56827224,-0.00983970,-0.02882839,-0.82227657
'00:16:46.434,0.061035,0.029785,1.005371,0.304878,1.341463,-0.548781,-4.812500,17.443750,19.312500,30.933,0.56827530,-0.00984826,-0.02883414,-0.82227416
'00:16:46.444,0.061035,0.028809,1.003906,0.243902,1.341463,-0.548781,-4.812500,17.443750,19.312500,30.933,0.56827845,-0.00986385,-0.02883046,-0.82227192
'00:16:46.454,0.062012,0.028320,1.001465,0.426829,1.402439,-0.548781,-4.850000,17.512501,19.331251,30.963,0.56828089,-0.00987226,-0.02883754,-0.82226989
'00:16:46.464,0.059082,0.027344,1.002441,0.304878,1.280488,-0.548781,-4.850000,17.512501,19.331251,30.933,0.56828320,-0.00988276,-0.02882454,-0.82226862
'00:16:46.474,0.057129,0.031738,1.005859,0.365854,1.280488,-0.548781,-4.881250,17.581251,19.356251,30.963,0.56828409,-0.00986045,-0.02883128,-0.82226803
'00:16:46.484,0.057617,0.032227,1.007324,0.426829,1.463415,-0.609756,-4.881250,17.581251,19.356251,30.948,0.56828104,-0.00982270,-0.02883736,-0.82227038
'00:16:46.494,0.060059,0.028809,1.004883,0.304878,1.280488,-0.548781,-4.968750,17.762501,19.487501,30.903,0.56828024,-0.00982972,-0.02883213,-0.82227104
'00:16:46.504,0.057617,0.028809,1.004395,0.304878,1.341463,-0.548781,-4.968750,17.762501,19.487501,30.933,0.56827965,-0.00981899,-0.02881478,-0.82227218
'00:16:46.514,0.058594,0.029785,1.002441,0.426829,1.402439,-0.548781,-5.093750,17.906250,19.587500,30.903,0.56827367,-0.00979497,-0.02880728,-0.82227686
'00:16:46.524,0.061523,0.030762,1.001953,0.365854,1.341463,-0.548781,-5.093750,17.906250,19.587500,30.918,0.56826728,-0.00979100,-0.02881533,-0.82228104
'00:16:46.534,0.062988,0.029297,1.002441,0.243902,1.219512,-0.609756,-4.881250,17.637501,19.412500,30.933,0.56826515,-0.00982388,-0.02882806,-0.82228168
'00:16:46.544,0.061523,0.029297,1.005371,0.365854,1.280488,-0.548781,-4.881250,17.637501,19.412500,30.933,0.56826766,-0.00983733,-0.02883945,-0.82227938
'00:16:46.554,0.061035,0.026367,1.007324,0.365854,1.341463,-0.609756,-4.775000,17.568750,19.312500,30.903,0.56827272,-0.00985973,-0.02883531,-0.82227576
'00:16:46.564,0.059570,0.027832,1.005371,0.365854,1.341463,-0.548781,-4.775000,17.568750,19.312500,30.963,0.56828186,-0.00986857,-0.02883453,-0.82226936
'00:16:46.574,0.059082,0.031250,1.001953,0.365854,1.280488,-0.548781,-4.806250,17.487501,19.318750,30.933,0.56828591,-0.00986312,-0.02885119,-0.82226605
'00:16:46.584,0.058105,0.032715,0.999512,0.365854,1.402439,-0.548781,-4.806250,17.487501,19.318750,30.948,0.56828992,-0.00983818,-0.02886709,-0.82226301
'00:16:46.594,0.056641,0.033691,0.997559,0.304878,1.341463,-0.548781,-4.825000,17.493750,19.356251,30.933,0.56829223,-0.00980823,-0.02888069,-0.82226130
'00:16:46.604,0.059570,0.031250,1.004395,0.121951,1.219512,-0.548781,-4.825000,17.493750,19.356251,30.963,0.56829459,-0.00982129,-0.02888168,-0.82225947
'00:16:46.614,0.061523,0.026855,1.006836,0.182927,1.158537,-0.548781,-5.143750,18.100000,19.743750,30.933,0.56828873,-0.00985292,-0.02886141,-0.82226386
'00:16:46.624,0.061523,0.026855,1.006836,0.182927,1.158537,-0.548781,-5.143750,18.100000,19.743750,30.933,0.56828287,-0.00988414,-0.02884142,-0.82226824
'00:16:46.634,0.062012,0.027832,1.007812,0.182927,1.158537,-0.548781,-4.931250,17.781250,19.556250,30.993,0.56828439,-0.00992155,-0.02883729,-0.82226688
'00:16:46.644,0.062988,0.027344,1.007812,0.243902,1.341463,-0.548781,-4.931250,17.781250,19.556250,30.963,0.56828643,-0.00994946,-0.02882945,-0.82226541
'00:16:46.654,0.062012,0.028809,1.003906,0.487805,1.585366,-0.609756,-4.806250,17.468750,19.293751,30.918,0.56828690,-0.00993981,-0.02883599,-0.82226497
'00:16:46.664,0.059570,0.029785,1.001465,0.609756,1.646341,-0.609756,-4.825000,17.518751,19.312500,30.933,0.56828731,-0.00990268,-0.02884495,-0.82226482
'00:16:46.674,0.059570,0.030273,0.997070,0.182927,1.158537,-0.548781,-4.825000,17.518751,19.312500,30.903,0.56829041,-0.00992136,-0.02885189,-0.82226221
'00:16:46.684,0.055664,0.034180,1.002441,0.487805,1.402439,-0.548781,-4.850000,17.537500,19.381250,30.963,0.56829207,-0.00986761,-0.02887167,-0.82226102
'00:16:46.694,0.059570,0.029785,1.002441,0.243902,1.219512,-0.487805,-4.850000,17.537500,19.381250,30.903,0.56829831,-0.00987923,-0.02887290,-0.82225652
'00:16:46.704,0.057617,0.029785,1.010254,0.304878,1.341463,-0.548781,-5.375000,18.337500,19.868750,30.933,0.56828239,-0.00984880,-0.02884132,-0.82226900
'00:16:46.714,0.061523,0.024414,1.007812,0.365854,1.402439,-0.548781,-5.375000,18.337500,19.868750,30.963,0.56826783,-0.00985275,-0.02879813,-0.82228053
'00:16:46.724,0.057617,0.030762,1.008301,0.426829,1.402439,-0.548781,-5.256250,18.081251,19.781250,30.933,0.56825431,-0.00981180,-0.02878210,-0.82229092
'00:16:46.734,0.060547,0.027832,1.003906,0.426829,1.524390,-0.609756,-5.256250,18.081251,19.781250,30.948,0.56823739,-0.00979048,-0.02875708,-0.82230374
'00:16:46.744,0.061523,0.030273,0.999512,0.304878,1.280488,-0.548781,-4.850000,17.531250,19.356251,30.933,0.56823974,-0.00980544,-0.02877330,-0.82230137
'00:16:46.754,0.058594,0.032227,1.000977,0.304878,1.219512,-0.548781,-4.850000,17.531250,19.356251,30.963,0.56824158,-0.00980023,-0.02879144,-0.82229953
'00:16:46.764,0.058594,0.031738,1.001465,0.365854,1.341463,-0.670732,-4.775000,17.525000,19.337500,30.948,0.56824029,-0.00978926,-0.02881060,-0.82229988
'00:16:46.774,0.061035,0.029785,1.003418,0.304878,1.280488,-0.548781,-4.775000,17.525000,19.337500,30.948,0.56824786,-0.00980704,-0.02882552,-0.82229392
'00:16:46.784,0.061523,0.028320,1.006836,0.304878,1.219512,-0.548781,-4.731250,17.487501,19.331251,30.963,0.56825771,-0.00983884,-0.02883793,-0.82228629
'00:16:46.794,0.059570,0.029297,1.010254,0.304878,1.402439,-0.609756,-4.731250,17.487501,19.331251,30.933,0.56826347,-0.00984144,-0.02883770,-0.82228229
'00:16:46.804,0.061035,0.027832,1.004395,0.426829,1.402439,-0.609756,-4.768750,17.550001,19.381250,30.948,0.56826812,-0.00985174,-0.02884425,-0.82227872
'00:16:46.814,0.060547,0.030273,1.001953,0.304878,1.341463,-0.609756,-4.768750,17.550001,19.381250,30.978,0.56827195,-0.00986045,-0.02885794,-0.82227549
'00:16:46.825,0.059570,0.030762,1.002441,0.243902,1.280488,-0.548781,-4.981250,17.756250,19.481251,30.918,0.56826940,-0.00985922,-0.02885683,-0.82227731
'00:16:46.834,0.058105,0.031250,1.002441,0.426829,1.402439,-0.548781,-4.981250,17.756250,19.481251,30.993,0.56826768,-0.00983324,-0.02885972,-0.82227870
'00:16:46.845,0.059570,0.032227,1.002441,0.426829,1.341463,-0.548781,-4.793750,17.493750,19.281250,30.948,0.56827348,-0.00981917,-0.02888849,-0.82227385
'00:16:46.854,0.059570,0.028320,1.005371,0.243902,1.219512,-0.548781,-4.793750,17.493750,19.281250,30.933,0.56827855,-0.00983713,-0.02888424,-0.82227029
'00:16:46.864,0.060547,0.028809,1.008789,0.304878,1.280488,-0.548781,-4.837500,17.562500,19.362501,30.918,0.56828246,-0.00985060,-0.02888413,-0.82226742
'00:16:46.875,0.059082,0.029785,1.003906,0.426829,1.402439,-0.609756,-4.837500,17.562500,19.362501,30.903,0.56828217,-0.00983679,-0.02888898,-0.82226762
'00:16:46.884,0.061035,0.028809,1.002441,0.243902,1.280488,-0.548781,-4.781250,17.425001,19.306250,30.918,0.56828636,-0.00985664,-0.02888992,-0.82226446
'00:16:46.894,0.061035,0.031250,1.003418,0.365854,1.280488,-0.609756,-4.781250,17.425001,19.306250,30.933,0.56828618,-0.00986229,-0.02891319,-0.82226369
'00:16:46.904,0.062500,0.028809,1.004883,0.304878,1.341463,-0.548781,-4.800000,17.531250,19.325001,30.933,0.56829203,-0.00988432,-0.02892084,-0.82225911
'00:16:46.914,0.062012,0.027832,1.003418,0.426829,1.341463,-0.548781,-5.218750,18.150000,19.793751,30.933,0.56828248,-0.00988592,-0.02891241,-0.82226600
'00:16:46.924,0.061035,0.029297,1.003906,0.365854,1.341463,-0.548781,-5.218750,18.150000,19.793751,30.993,0.56827264,-0.00987964,-0.02890397,-0.82227317
'00:16:46.934,0.059082,0.029297,1.003906,0.304878,1.341463,-0.548781,-4.962500,17.731251,19.462500,30.888,0.56827150,-0.00987419,-0.02889373,-0.82227438
'00:16:46.944,0.058594,0.028809,1.004883,0.304878,1.341463,-0.548781,-4.962500,17.731251,19.462500,30.933,0.56827052,-0.00986785,-0.02887869,-0.82227566
'00:16:46.954,0.057617,0.029297,1.004883,0.426829,1.402439,-0.609756,-4.768750,17.531250,19.325001,30.993,0.56827467,-0.00985235,-0.02887906,-0.82227297
'00:16:46.965,0.057129,0.031738,1.003418,0.365854,1.341463,-0.609756,-4.768750,17.531250,19.325001,30.933,0.56827845,-0.00983034,-0.02889187,-0.82227017
'00:16:46.974,0.058105,0.030762,1.002441,0.243902,1.280488,-0.548781,-4.818750,17.537500,19.350000,30.918,0.56828228,-0.00982808,-0.02889227,-0.82226753
'00:16:46.984,0.060059,0.030273,1.005371,0.243902,1.341463,-0.548781,-4.818750,17.537500,19.350000,30.948,0.56828673,-0.00983339,-0.02889329,-0.82226436
'00:16:46.994,0.062500,0.028320,1.004395,0.304878,1.402439,-0.548781,-4.806250,17.500000,19.331251,30.933,0.56829172,-0.00985277,-0.02889446,-0.82226064
'00:16:47.004,0.060547,0.028809,1.005371,0.365854,1.341463,-0.548781,-4.806250,17.500000,19.331251,30.933,0.56829655,-0.00986030,-0.02889781,-0.82225709
'00:16:47.014,0.060547,0.027344,1.005371,0.304878,1.280488,-0.548781,-4.887500,17.687500,19.443750,30.933,0.56829978,-0.00987866,-0.02888942,-0.82225494
'00:16:47.024,0.060547,0.027344,1.004883,0.426829,1.341463,-0.609756,-4.887500,17.687500,19.443750,30.948,0.56829886,-0.00988629,-0.02888709,-0.82225556
'00:16:47.034,0.060547,0.026855,1.004883,0.365854,1.341463,-0.609756,-5.125000,17.981251,19.631250,30.993,0.56828806,-0.00988898,-0.02886660,-0.82226371
'00:16:47.045,0.059570,0.029297,1.003418,0.426829,1.341463,-0.548781,-5.125000,17.981251,19.631250,30.857,0.56828058,-0.00987307,-0.02886060,-0.82226928
'00:16:47.054,0.058594,0.030762,1.001953,0.365854,1.402439,-0.548781,-4.887500,17.637501,19.412500,30.888,0.56828234,-0.00985717,-0.02886291,-0.82226817
'00:16:47.064,0.058594,0.032715,0.999512,0.304878,1.341463,-0.609756,-4.887500,17.637501,19.412500,30.993,0.56827930,-0.00983976,-0.02887620,-0.82227002
'00:16:47.074,0.059082,0.030762,1.003418,0.243902,1.280488,-0.548781,-4.831250,17.537500,19.287500,30.933,0.56828293,-0.00984146,-0.02887943,-0.82226738
'00:16:47.085,0.060059,0.029297,1.003418,0.243902,1.341463,-0.548781,-4.831250,17.537500,19.287500,30.978,0.56828736,-0.00985073,-0.02887461,-0.82226437
'00:16:47.094,0.061035,0.027344,1.006348,0.365854,1.341463,-0.609756,-4.862500,17.525000,19.306250,30.963,0.56828519,-0.00986188,-0.02886857,-0.82226595
'00:16:47.104,0.061035,0.028320,1.007324,0.243902,1.219512,-0.548781,-4.862500,17.525000,19.306250,30.978,0.56828654,-0.00988503,-0.02886430,-0.82226489
'00:16:47.114,0.061035,0.030273,1.006348,0.121951,1.097561,-0.548781,-4.956250,17.743750,19.462500,30.933,0.56828513,-0.00991300,-0.02886636,-0.82226546
'00:16:47.125,0.060547,0.029785,1.003906,-0.182927,0.792683,-0.548781,-4.956250,17.743750,19.462500,30.948,0.56828248,-0.00998368,-0.02885714,-0.82226675
'00:16:47.135,0.062500,0.029785,1.000000,0.060976,1.036585,-0.487805,-5.137500,17.918751,19.675001,30.978,0.56827618,-0.01002128,-0.02885312,-0.82227079
'00:16:47.144,0.062500,0.027344,0.998535,0.731707,1.768293,-0.548781,-5.137500,17.918751,19.675001,30.948,0.56826916,-0.00998615,-0.02884853,-0.82227623
'00:16:47.154,0.059082,0.030273,1.001465,1.280488,2.317073,-0.670732,-4.906250,17.643751,19.400000,30.933,0.56826432,-0.00985929,-0.02886954,-0.82228037
'00:16:47.165,0.055176,0.034180,1.006348,-0.243902,0.731707,-0.487805,-4.800000,17.481251,19.312500,30.903,0.56827133,-0.00989263,-0.02886920,-0.82227514
'00:16:47.174,0.061523,0.028320,1.002930,0.121951,1.097561,-0.548781,-4.800000,17.481251,19.312500,30.873,0.56827506,-0.00993271,-0.02886957,-0.82227206
'00:16:47.184,0.060059,0.030273,1.007812,1.036585,2.073171,-0.670732,-4.812500,17.518751,19.293751,30.888,0.56827342,-0.00984391,-0.02889067,-0.82227352
'00:16:47.194,0.058105,0.030273,1.005859,-0.243902,0.670732,-0.487805,-4.812500,17.518751,19.293751,30.933,0.56828044,-0.00991047,-0.02888237,-0.82226816
'00:16:47.205,0.062012,0.025879,1.000488,0.792683,1.829268,-0.548781,-4.800000,17.562500,19.287500,30.993,0.56829032,-0.00987999,-0.02888566,-0.82226158
'00:16:47.214,0.059570,0.029785,1.006348,0.000000,0.914634,-0.487805,-4.800000,17.562500,19.287500,30.933,0.56829908,-0.00992292,-0.02888729,-0.82225496
'00:16:47.224,0.059570,0.028320,1.000977,0.853659,1.829268,-0.609756,-5.006250,17.737501,19.550001,30.903,0.56829213,-0.00985928,-0.02888649,-0.82226056
'00:16:47.234,0.062988,0.028320,0.996582,0.243902,1.219512,-0.548781,-5.006250,17.737501,19.550001,30.903,0.56828748,-0.00989042,-0.02888716,-0.82226337
'00:16:47.246,0.055664,0.035156,1.003906,0.060976,1.097561,-0.548781,-5.112500,17.968750,19.643751,30.918,0.56827737,-0.00986351,-0.02888493,-0.82227076
'00:16:47.254,0.057617,0.033203,1.007812,0.487805,1.585366,-0.548781,-5.112500,17.968750,19.643751,30.933,0.56827230,-0.00981506,-0.02888469,-0.82227485
'00:16:47.264,0.063477,0.025879,1.006348,0.365854,1.463415,-0.548781,-4.837500,17.556250,19.312500,30.933,0.56827731,-0.00984040,-0.02887562,-0.82227141
'00:16:47.274,0.062988,0.025391,1.007812,0.182927,1.097561,-0.487805,-4.837500,17.556250,19.312500,30.933,0.56828569,-0.00989968,-0.02886642,-0.82226522
'00:16:47.287,0.058594,0.029297,1.005371,0.426829,1.463415,-0.609756,-4.787500,17.556250,19.343750,30.963,0.56829009,-0.00987915,-0.02886662,-0.82226243
'00:16:47.294,0.060059,0.028809,1.000000,0.487805,1.524390,-0.609756,-4.787500,17.556250,19.343750,30.933,0.56829261,-0.00987097,-0.02887119,-0.82226062
'00:16:47.304,0.061035,0.029785,1.001953,0.243902,1.219512,-0.548781,-4.818750,17.575001,19.381250,30.978,0.56829748,-0.00989304,-0.02888169,-0.82225662
'00:16:47.314,0.057617,0.033203,1.002930,0.243902,1.219512,-0.548781,-4.818750,17.575001,19.381250,30.903,0.56830167,-0.00988201,-0.02889778,-0.82225329
'00:16:47.326,0.058105,0.032715,1.003418,0.243902,1.402439,-0.609756,-5.100000,18.018751,19.556250,30.948,0.56829076,-0.00984698,-0.02889085,-0.82226150
'00:16:47.334,0.061035,0.027832,1.003906,0.243902,1.341463,-0.548781,-5.100000,18.018751,19.556250,30.963,0.56828769,-0.00985524,-0.02887591,-0.82226405
'00:16:47.344,0.060059,0.027344,1.006836,0.182927,1.158537,-0.548781,-5.118750,18.018751,19.693750,30.963,0.56828171,-0.00987688,-0.02885285,-0.82226873
'00:16:47.354,0.060059,0.027832,1.006836,0.426829,1.402439,-0.548781,-5.118750,18.018751,19.693750,30.888,0.56827648,-0.00986683,-0.02883825,-0.82227298
'00:16:47.367,0.059082,0.030273,1.004395,0.487805,1.402439,-0.548781,-4.793750,17.518751,19.312500,30.933,0.56828474,-0.00984649,-0.02885715,-0.82226685
'00:16:47.374,0.059082,0.030273,1.004395,0.487805,1.402439,-0.548781,-4.793750,17.518751,19.312500,30.933,0.56828917,-0.00983571,-0.02886712,-0.82226356
'00:16:47.384,0.060547,0.030762,1.003418,0.243902,1.280488,-0.548781,-4.818750,17.568750,19.375000,30.918,0.56829397,-0.00984699,-0.02887767,-0.82225974
'00:16:47.394,0.060059,0.030762,1.003418,0.365854,1.341463,-0.548781,-4.818750,17.568750,19.375000,30.933,0.56829900,-0.00984496,-0.02889185,-0.82225579
'00:16:47.405,0.060059,0.030273,1.003418,0.304878,1.280488,-0.548781,-4.800000,17.531250,19.250000,30.948,0.56830542,-0.00985327,-0.02890356,-0.82225084
'00:16:47.414,0.060059,0.030273,1.003418,0.304878,1.280488,-0.548781,-4.800000,17.531250,19.250000,30.948,0.56831062,-0.00985992,-0.02891295,-0.82224684
'00:16:47.425,0.060547,0.028809,1.005371,0.365854,1.341463,-0.609756,-5.131250,17.981251,19.675001,30.948,0.56829762,-0.00985463,-0.02890097,-0.82225631
'00:16:47.434,0.060547,0.029785,1.004883,0.365854,1.280488,-0.548781,-5.050000,17.868750,19.618750,30.963,0.56829336,-0.00985396,-0.02890223,-0.82225922
'00:16:47.447,0.058594,0.029785,1.002930,0.304878,1.341463,-0.548781,-5.050000,17.868750,19.618750,30.918,0.56828741,-0.00983790,-0.02888575,-0.82226410
'00:16:47.454,0.058594,0.029785,1.002930,0.304878,1.341463,-0.548781,-4.837500,17.600000,19.393751,30.918,0.56829065,-0.00983530,-0.02888431,-0.82226194
'00:16:47.464,0.058105,0.030762,1.003418,0.121951,1.097561,-0.548781,-4.837500,17.600000,19.393751,30.903,0.56829430,-0.00985150,-0.02888470,-0.82225921
'00:16:47.474,0.059570,0.028809,1.003906,0.000000,1.036585,-0.487805,-4.775000,17.475000,19.318750,30.918,0.56830411,-0.00989568,-0.02887570,-0.82225222
'00:16:47.484,0.061035,0.028809,1.003906,0.182927,1.158537,-0.548781,-4.775000,17.475000,19.318750,30.903,0.56830984,-0.00992933,-0.02887954,-0.82224772
'00:16:47.494,0.060547,0.030762,1.002930,0.548781,1.463415,-0.548781,-4.812500,17.593750,19.356251,30.933,0.56831621,-0.00991167,-0.02890376,-0.82224267
'00:16:47.504,0.060547,0.032227,1.004883,0.487805,1.463415,-0.609756,-4.812500,17.593750,19.356251,30.918,0.56831783,-0.00989091,-0.02893076,-0.82224085
'00:16:47.514,0.060547,0.031250,1.005371,0.182927,1.219512,-0.548781,-4.850000,17.637501,19.412500,30.963,0.56832134,-0.00990535,-0.02893979,-0.82223794
'00:16:47.526,0.062500,0.027832,1.001953,0.182927,1.097561,-0.548781,-4.850000,17.637501,19.412500,30.918,0.56832584,-0.00996274,-0.02894512,-0.82223395
'00:16:47.534,0.060547,0.028320,1.001465,0.670732,1.707317,-0.609756,-5.093750,17.937500,19.668751,30.978,0.56831835,-0.00992796,-0.02893922,-0.82223975
'00:16:47.544,0.058594,0.029297,1.004883,0.731707,1.768293,-0.609756,-5.093750,17.937500,19.668751,30.948,0.56830916,-0.00986250,-0.02893002,-0.82224721
'00:16:47.554,0.059082,0.030762,1.004883,0.426829,1.402439,-0.548781,-5.037500,17.831251,19.587500,30.978,0.56830461,-0.00983813,-0.02892922,-0.82225068
'00:16:47.566,0.060547,0.029785,1.003906,0.304878,1.219512,-0.548781,-5.037500,17.831251,19.587500,30.963,0.56829874,-0.00984674,-0.02892934,-0.82225463
'00:16:47.574,0.060059,0.029297,1.002930,0.609756,1.585366,-0.548781,-4.800000,17.587500,19.362501,30.918,0.56830502,-0.00982718,-0.02893938,-0.82225017
'00:16:47.584,0.057617,0.032227,1.005371,0.304878,1.280488,-0.548781,-4.800000,17.587500,19.362501,30.978,0.56831134,-0.00981432,-0.02895124,-0.82224554
'00:16:47.594,0.059570,0.028809,1.002441,0.243902,1.280488,-0.548781,-4.768750,17.493750,19.343750,30.918,0.56831826,-0.00983022,-0.02894806,-0.82224068
'00:16:47.606,0.059570,0.028809,1.003906,0.487805,1.524390,-0.609756,-4.768750,17.493750,19.343750,30.918,0.56832226,-0.00981295,-0.02895009,-0.82223805
'00:16:47.614,0.059570,0.028809,1.004395,0.243902,1.219512,-0.548781,-4.806250,17.537500,19.362501,30.903,0.56832632,-0.00982747,-0.02894780,-0.82223515
'00:16:47.624,0.060547,0.030762,1.001953,0.426829,1.402439,-0.609756,-4.806250,17.537500,19.362501,30.873,0.56832714,-0.00982130,-0.02896490,-0.82223406
'00:16:47.634,0.058594,0.031738,1.004883,0.365854,1.280488,-0.548781,-5.131250,17.956251,19.631250,30.918,0.56831848,-0.00979927,-0.02896467,-0.82224031
'00:16:47.645,0.061035,0.028809,1.002441,0.365854,1.341463,-0.548781,-5.131250,17.956251,19.631250,30.948,0.56830979,-0.00979812,-0.02895456,-0.82224669
'00:16:47.654,0.060059,0.030762,1.003906,0.365854,1.341463,-0.548781,-5.000000,17.812500,19.531250,30.903,0.56830763,-0.00979029,-0.02895834,-0.82224814
'00:16:47.665,0.059570,0.029297,1.003418,0.365854,1.402439,-0.548781,-4.850000,17.587500,19.362501,30.948,0.56831175,-0.00978549,-0.02895584,-0.82224543
'00:16:47.675,0.059570,0.029785,1.003906,0.304878,1.341463,-0.609756,-4.850000,17.587500,19.362501,30.903,0.56831083,-0.00978642,-0.02895488,-0.82224610
'00:16:47.688,0.060059,0.029297,1.002930,0.304878,1.341463,-0.548781,-4.793750,17.518751,19.325001,30.933,0.56831858,-0.00979724,-0.02895662,-0.82224055
'00:16:47.695,0.059570,0.029297,1.004395,0.243902,1.280488,-0.548781,-4.793750,17.518751,19.325001,30.903,0.56832261,-0.00980599,-0.02895483,-0.82223772
'00:16:47.704,0.059570,0.028809,1.004395,0.426829,1.341463,-0.548781,-4.781250,17.543751,19.400000,30.918,0.56832917,-0.00980798,-0.02896036,-0.82223297
'00:16:47.714,0.057617,0.029785,1.005371,0.304878,1.341463,-0.548781,-4.781250,17.543751,19.400000,30.993,0.56833620,-0.00980119,-0.02895522,-0.82222837
'00:16:47.726,0.059082,0.030273,1.003906,0.365854,1.402439,-0.548781,-4.856250,17.606251,19.356251,30.963,0.56834040,-0.00978755,-0.02895654,-0.82222559
'00:16:47.734,0.060059,0.029297,1.004883,0.365854,1.402439,-0.548781,-4.856250,17.606251,19.356251,30.948,0.56834335,-0.00978581,-0.02895570,-0.82222360
'00:16:47.744,0.058105,0.029785,1.003418,0.365854,1.341463,-0.548781,-5.018750,17.875000,19.500000,30.933,0.56834144,-0.00977009,-0.02894725,-0.82222540
'00:16:47.754,0.059570,0.029785,1.004883,0.304878,1.341463,-0.548781,-5.018750,17.875000,19.500000,30.888,0.56833951,-0.00976534,-0.02893962,-0.82222706
'00:16:47.767,0.058594,0.029785,1.002441,0.304878,1.341463,-0.609756,-4.812500,17.575001,19.393751,30.948,0.56834115,-0.00976310,-0.02893778,-0.82222602
'00:16:47.774,0.059082,0.029297,1.003906,0.304878,1.341463,-0.609756,-4.812500,17.575001,19.393751,30.888,0.56834210,-0.00976496,-0.02893579,-0.82222541
'00:16:47.784,0.058105,0.029297,1.004883,0.304878,1.341463,-0.548781,-4.850000,17.531250,19.375000,30.933,0.56834429,-0.00975913,-0.02892480,-0.82222435
'00:16:47.794,0.060059,0.028809,1.004883,0.304878,1.341463,-0.548781,-4.850000,17.531250,19.375000,30.888,0.56834654,-0.00976615,-0.02891880,-0.82222292
'00:16:47.804,0.061035,0.028809,1.005859,0.365854,1.341463,-0.609756,-4.831250,17.512501,19.362501,30.918,0.56834535,-0.00977594,-0.02892172,-0.82222353
'00:16:47.814,0.060547,0.029297,1.004395,0.426829,1.341463,-0.548781,-4.831250,17.512501,19.362501,30.978,0.56834845,-0.00977842,-0.02893036,-0.82222105
'00:16:47.824,0.059570,0.029785,1.004883,0.365854,1.341463,-0.548781,-4.781250,17.550001,19.393751,30.963,0.56835568,-0.00978013,-0.02893804,-0.82221576
'00:16:47.834,0.060059,0.029785,1.002930,0.304878,1.280488,-0.609756,-4.781250,17.550001,19.393751,30.933,0.56835824,-0.00979215,-0.02894695,-0.82221353
'00:16:47.844,0.060547,0.029785,1.003418,0.304878,1.341463,-0.548781,-5.043750,17.818750,19.493750,30.993,0.56835320,-0.00979040,-0.02894029,-0.82221727
'00:16:47.854,0.058105,0.029297,1.003906,0.304878,1.341463,-0.548781,-5.043750,17.818750,19.493750,30.933,0.56834836,-0.00977716,-0.02892156,-0.82222144
'00:16:47.864,0.058594,0.029297,1.004395,0.243902,1.341463,-0.548781,-4.956250,17.706251,19.431250,30.933,0.56834706,-0.00977318,-0.02890448,-0.82222298
'00:16:47.874,0.061035,0.029297,1.004883,0.304878,1.341463,-0.548781,-4.956250,17.706251,19.431250,30.903,0.56834579,-0.00977954,-0.02890120,-0.82222390
'00:16:47.886,0.060547,0.028809,1.003906,0.365854,1.341463,-0.548781,-4.800000,17.437500,19.275000,30.918,0.56835052,-0.00978932,-0.02890464,-0.82222039
'00:16:47.894,0.060547,0.029297,1.004395,0.365854,1.341463,-0.609756,-4.800000,17.437500,19.275000,30.948,0.56835007,-0.00979396,-0.02890897,-0.82222050
'00:16:47.904,0.059082,0.029785,1.003906,0.304878,1.341463,-0.548781,-4.800000,17.550001,19.350000,30.933,0.56835613,-0.00979470,-0.02890972,-0.82221627
'00:16:47.914,0.059570,0.029785,1.003906,0.304878,1.280488,-0.548781,-4.800000,17.550001,19.350000,31.008,0.56836200,-0.00980248,-0.02891536,-0.82221193
'00:16:47.924,0.059570,0.029785,1.003418,0.304878,1.341463,-0.548781,-4.768750,17.468750,19.325001,30.918,0.56836833,-0.00980660,-0.02891860,-0.82220739
'00:16:47.934,0.059570,0.030273,1.003418,0.365854,1.341463,-0.548781,-4.987500,17.812500,19.550001,30.888,0.56836667,-0.00979777,-0.02891967,-0.82220860
'00:16:47.944,0.061035,0.028320,1.002930,0.304878,1.280488,-0.548781,-4.987500,17.812500,19.550001,30.918,0.56836519,-0.00981218,-0.02891424,-0.82220964
'00:16:47.954,0.059570,0.028809,1.004883,0.365854,1.341463,-0.548781,-5.068750,17.875000,19.606251,30.918,0.56835963,-0.00980488,-0.02890189,-0.82221401
'00:16:47.966,0.059570,0.029785,1.003906,0.365854,1.402439,-0.548781,-5.068750,17.875000,19.606251,30.948,0.56835295,-0.00978678,-0.02889069,-0.82221924
'00:16:47.974,0.059570,0.029785,1.004395,0.365854,1.280488,-0.548781,-4.850000,17.562500,19.393751,30.903,0.56835503,-0.00978841,-0.02889584,-0.82221760
'00:16:47.984,0.060547,0.028809,1.003906,0.304878,1.402439,-0.548781,-4.850000,17.562500,19.393751,30.918,0.56835804,-0.00979402,-0.02889019,-0.82221565
'00:16:47.994,0.060059,0.030273,1.004395,0.304878,1.341463,-0.548781,-4.787500,17.525000,19.350000,30.933,0.56836425,-0.00979859,-0.02889797,-0.82221103
'00:16:48.004,0.059570,0.029785,1.004395,0.304878,1.341463,-0.609756,-4.787500,17.525000,19.350000,30.978,0.56836617,-0.00980211,-0.02890098,-0.82220955
'00:16:48.014,0.059570,0.029297,1.004883,0.304878,1.341463,-0.548781,-4.806250,17.593750,19.375000,30.948,0.56837277,-0.00980740,-0.02890103,-0.82220493
'00:16:48.024,0.059082,0.029297,1.004883,0.365854,1.402439,-0.609756,-4.806250,17.593750,19.375000,30.933,0.56837519,-0.00980234,-0.02890056,-0.82220333
'00:16:48.034,0.060059,0.030762,1.003418,0.304878,1.341463,-0.548781,-4.925000,17.668751,19.431250,30.933,0.56837475,-0.00979881,-0.02890377,-0.82220357
'00:16:48.046,0.059570,0.029785,1.003906,0.304878,1.341463,-0.548781,-4.925000,17.668751,19.431250,30.933,0.56837449,-0.00979587,-0.02889849,-0.82220397
'00:16:48.055,0.060059,0.028320,1.004883,0.304878,1.341463,-0.609756,-5.318750,18.237501,19.818750,30.948,0.56835766,-0.00978828,-0.02887401,-0.82221655
'00:16:48.064,0.060547,0.029785,1.004883,0.304878,1.341463,-0.548781,-5.318750,18.237501,19.818750,30.948,0.56834459,-0.00977838,-0.02885872,-0.82222623
'00:16:48.074,0.059570,0.029785,1.003418,0.304878,1.341463,-0.548781,-4.831250,17.481251,19.356251,30.948,0.56834692,-0.00977940,-0.02885829,-0.82222463
'00:16:48.084,0.059570,0.029785,1.003906,0.304878,1.341463,-0.548781,-4.831250,17.481251,19.356251,30.963,0.56834924,-0.00978030,-0.02885766,-0.82222304
'00:16:48.094,0.061523,0.029785,1.004395,0.304878,1.341463,-0.609756,-4.862500,17.525000,19.350000,30.963,0.56834601,-0.00979035,-0.02886305,-0.82222496
'00:16:48.104,0.061523,0.029785,1.004395,0.304878,1.341463,-0.609756,-4.862500,17.525000,19.350000,30.963,0.56834277,-0.00980026,-0.02886834,-0.82222690
'00:16:48.114,0.058594,0.028320,1.003906,0.304878,1.341463,-0.548781,-4.812500,17.550001,19.350000,30.948,0.56834837,-0.00980328,-0.02885858,-0.82222333
'00:16:48.124,0.060059,0.028809,1.004395,0.243902,1.280488,-0.548781,-4.812500,17.550001,19.350000,30.933,0.56835360,-0.00981973,-0.02885587,-0.82221961
'00:16:48.134,0.060059,0.029785,1.004883,0.365854,1.341463,-0.548781,-4.775000,17.568750,19.293751,30.963,0.56836216,-0.00982398,-0.02886774,-0.82221323
'00:16:48.144,0.059570,0.029785,1.003906,0.426829,1.463415,-0.548781,-4.775000,17.568750,19.293751,30.903,0.56837103,-0.00981386,-0.02887621,-0.82220692
'00:16:48.154,0.059082,0.028809,1.003418,0.243902,1.158537,-0.548781,-5.000000,17.800001,19.487501,30.918,0.56836831,-0.00982608,-0.02886713,-0.82220898
'00:16:48.164,0.059082,0.030273,1.003418,0.365854,1.341463,-0.548781,-5.000000,17.800001,19.487501,30.933,0.56836584,-0.00981332,-0.02886605,-0.82221087
'00:16:48.174,0.059082,0.030273,1.004883,0.365854,1.402439,-0.548781,-4.931250,17.687500,19.412500,30.948,0.56836592,-0.00979839,-0.02886413,-0.82221107
'00:16:48.184,0.060059,0.030273,1.003418,0.304878,1.341463,-0.548781,-4.931250,17.687500,19.412500,30.963,0.56836577,-0.00979675,-0.02886523,-0.82221115
'00:16:48.194,0.059570,0.029297,1.003906,0.182927,1.280488,-0.548781,-4.800000,17.550001,19.287500,30.903,0.56837195,-0.00981233,-0.02886020,-0.82220687
'00:16:48.204,0.060059,0.029785,1.004883,0.182927,1.158537,-0.548781,-4.812500,17.512501,19.306250,30.918,0.56837582,-0.00983575,-0.02886357,-0.82220380
'00:16:48.214,0.060059,0.028809,1.003418,0.243902,1.219512,-0.609756,-4.812500,17.512501,19.306250,30.948,0.56837565,-0.00985541,-0.02886329,-0.82220369
'00:16:48.224,0.060059,0.028320,1.003906,0.487805,1.463415,-0.548781,-4.831250,17.525000,19.337500,30.948,0.56837961,-0.00984626,-0.02886412,-0.82220103
'00:16:48.234,0.059570,0.029297,1.005371,0.670732,1.585366,-0.548781,-4.831250,17.525000,19.337500,30.933,0.56838386,-0.00981259,-0.02887508,-0.82219811
'00:16:48.244,0.057617,0.030762,1.005859,0.243902,1.219512,-0.609756,-5.187500,18.100000,19.668751,30.933,0.56837029,-0.00979816,-0.02886023,-0.82220818
'00:16:48.254,0.060547,0.028809,1.003418,0.304878,1.341463,-0.548781,-5.187500,18.100000,19.668751,30.933,0.56836186,-0.00979613,-0.02884520,-0.82221456
'00:16:48.264,0.058105,0.029785,1.003906,0.487805,1.585366,-0.609756,-5.131250,17.962500,19.668751,30.978,0.56835026,-0.00975173,-0.02882825,-0.82222370
'00:16:48.274,0.060059,0.028809,1.003418,0.243902,1.158537,-0.487805,-5.131250,17.962500,19.668751,30.918,0.56834643,-0.00976552,-0.02881745,-0.82222657
'00:16:48.284,0.059082,0.029785,1.004883,0.426829,1.524390,-0.609756,-4.837500,17.537500,19.306250,30.933,0.56834619,-0.00974474,-0.02881599,-0.82222703
'00:16:48.294,0.059082,0.028809,1.003418,0.182927,1.158537,-0.548781,-4.837500,17.537500,19.306250,30.933,0.56834943,-0.00976689,-0.02881023,-0.82222473
'00:16:48.304,0.059082,0.029785,1.003906,0.426829,1.463415,-0.609756,-4.900000,17.637501,19.381250,30.903,0.56834676,-0.00974846,-0.02880966,-0.82222681
'00:16:48.314,0.059570,0.028809,1.003418,0.243902,1.219512,-0.548781,-4.900000,17.637501,19.381250,30.918,0.56834792,-0.00976363,-0.02880464,-0.82222600
'00:16:48.324,0.061035,0.028809,1.004883,0.426829,1.402439,-0.487805,-4.931250,17.693750,19.387501,30.933,0.56835317,-0.00976312,-0.02880765,-0.82222228
'00:16:48.334,0.060059,0.028809,1.003418,0.243902,1.280488,-0.548781,-4.931250,17.693750,19.387501,30.978,0.56835358,-0.00977525,-0.02880043,-0.82222210
'00:16:48.344,0.060059,0.029297,1.003906,0.365854,1.402439,-0.609756,-5.087500,17.950001,19.562500,30.903,0.56834467,-0.00976500,-0.02879253,-0.82222866
'00:16:48.354,0.059570,0.029297,1.002930,0.243902,1.280488,-0.548781,-5.087500,17.950001,19.562500,30.963,0.56833977,-0.00976743,-0.02878059,-0.82223243
'00:16:48.364,0.060547,0.029785,1.003418,0.365854,1.402439,-0.548781,-5.043750,17.887501,19.550001,30.918,0.56833672,-0.00976007,-0.02877957,-0.82223467
'00:16:48.374,0.060059,0.029297,1.004395,0.304878,1.280488,-0.548781,-5.043750,17.887501,19.550001,30.888,0.56833346,-0.00976361,-0.02877531,-0.82223703
'00:16:48.384,0.059082,0.029785,1.004883,0.426829,1.402439,-0.609756,-4.806250,17.493750,19.218750,30.933,0.56833454,-0.00975279,-0.02878223,-0.82223617
'00:16:48.394,0.060547,0.028809,1.003906,0.304878,1.341463,-0.548781,-4.806250,17.493750,19.218750,30.918,0.56833988,-0.00976478,-0.02878377,-0.82223228
'00:16:48.404,0.059570,0.029297,1.003906,0.426829,1.341463,-0.548781,-4.743750,17.475000,19.275000,30.903,0.56834893,-0.00976706,-0.02879734,-0.82222552
'00:16:48.414,0.060059,0.029297,1.003906,0.243902,1.341463,-0.548781,-4.743750,17.475000,19.275000,30.888,0.56835774,-0.00978104,-0.02879942,-0.82221919
'00:16:48.424,0.060059,0.029297,1.002930,0.304878,1.280488,-0.548781,-4.787500,17.525000,19.287500,30.933,0.56836445,-0.00979430,-0.02880691,-0.82221414
'00:16:48.434,0.059570,0.029297,1.003906,0.304878,1.341463,-0.548781,-4.787500,17.525000,19.287500,30.948,0.56837128,-0.00980004,-0.02880894,-0.82220927
'00:16:48.444,0.059082,0.028320,1.003906,0.304878,1.280488,-0.548781,-4.931250,17.693750,19.406250,30.903,0.56837168,-0.00980504,-0.02879922,-0.82220928
'00:16:48.454,0.060059,0.029297,1.004395,0.304878,1.341463,-0.548781,-4.931250,17.693750,19.406250,30.903,0.56837201,-0.00980705,-0.02879565,-0.82220915
'00:16:48.464,0.061035,0.028809,1.004883,0.304878,1.341463,-0.548781,-4.981250,17.743750,19.506250,30.903,0.56836978,-0.00981413,-0.02879008,-0.82221081
'00:16:48.474,0.060059,0.029297,1.004883,0.304878,1.341463,-0.548781,-4.937500,17.687500,19.393751,30.933,0.56836959,-0.00981543,-0.02878586,-0.82221107
'00:16:48.484,0.060059,0.028320,1.004883,0.365854,1.341463,-0.548781,-4.937500,17.687500,19.393751,30.948,0.56836967,-0.00981748,-0.02878062,-0.82221117
'00:16:48.494,0.059082,0.029785,1.003418,0.304878,1.341463,-0.548781,-4.868750,17.531250,19.356251,30.918,0.56837059,-0.00981366,-0.02877772,-0.82221068
'00:16:48.504,0.059082,0.029297,1.003906,0.365854,1.402439,-0.609756,-4.868750,17.531250,19.356251,30.948,0.56836747,-0.00980418,-0.02877332,-0.82221311
'00:16:48.514,0.059082,0.029785,1.003906,0.304878,1.402439,-0.548781,-4.818750,17.462500,19.306250,30.933,0.56837064,-0.00979807,-0.02876972,-0.82221111
'00:16:48.524,0.059082,0.029785,1.004883,0.304878,1.341463,-0.609756,-4.818750,17.462500,19.306250,30.933,0.56836931,-0.00979607,-0.02876886,-0.82221209
'00:16:48.534,0.060059,0.029785,1.003418,0.365854,1.341463,-0.548781,-4.937500,17.668751,19.418751,30.903,0.56836859,-0.00979288,-0.02877219,-0.82221251
'00:16:48.544,0.059570,0.029785,1.003906,0.365854,1.341463,-0.548781,-4.937500,17.668751,19.418751,30.963,0.56836789,-0.00978695,-0.02877341,-0.82221302
'00:16:48.554,0.059570,0.029785,1.002930,0.304878,1.341463,-0.548781,-5.131250,17.950001,19.637501,30.963,0.56835982,-0.00977743,-0.02876227,-0.82221910
'00:16:48.565,0.060059,0.029785,1.002930,0.365854,1.341463,-0.609756,-5.131250,17.950001,19.637501,30.918,0.56834624,-0.00976658,-0.02875716,-0.82222879
'00:16:48.574,0.061035,0.029297,1.004395,0.365854,1.341463,-0.609756,-4.987500,17.806250,19.537500,30.933,0.56834128,-0.00976966,-0.02876031,-0.82223208
'00:16:48.584,0.060059,0.030762,1.002930,0.365854,1.341463,-0.548781,-4.987500,17.806250,19.537500,30.963,0.56833985,-0.00976249,-0.02876877,-0.82223286
'00:16:48.594,0.060059,0.029297,1.003418,0.304878,1.341463,-0.609756,-4.818750,17.556250,19.375000,30.903,0.56834068,-0.00977026,-0.02877179,-0.82223209
'00:16:48.604,0.060059,0.030273,1.004395,0.365854,1.280488,-0.609756,-4.818750,17.556250,19.375000,30.903,0.56834118,-0.00977520,-0.02878729,-0.82223113
'00:16:48.614,0.060059,0.029785,1.004395,0.365854,1.341463,-0.609756,-4.843750,17.543751,19.343750,30.948,0.56834000,-0.00977579,-0.02879454,-0.82223169
'00:16:48.624,0.060059,0.029297,1.004395,0.365854,1.280488,-0.548781,-4.843750,17.543751,19.343750,30.933,0.56834313,-0.00978279,-0.02880189,-0.82222919
'00:16:48.634,0.059082,0.029785,1.003906,0.304878,1.402439,-0.609756,-4.775000,17.543751,19.281250,30.948,0.56834711,-0.00978065,-0.02880345,-0.82222641
'00:16:48.644,0.059082,0.029297,1.004395,0.365854,1.341463,-0.548781,-4.775000,17.543751,19.281250,30.963,0.56835546,-0.00978185,-0.02880936,-0.82222041
'00:16:48.654,0.060547,0.028809,1.003906,0.365854,1.341463,-0.548781,-5.012500,17.831251,19.537500,30.933,0.56835317,-0.00978326,-0.02880622,-0.82222209
'00:16:48.664,0.060059,0.029785,1.004883,0.304878,1.341463,-0.548781,-5.012500,17.831251,19.537500,30.948,0.56835066,-0.00978105,-0.02880198,-0.82222400
'00:16:48.674,0.059570,0.029297,1.004395,0.365854,1.341463,-0.609756,-5.018750,17.818750,19.600000,30.963,0.56834299,-0.00977465,-0.02879689,-0.82222956
'00:16:48.684,0.060547,0.029785,1.004395,0.365854,1.402439,-0.548781,-5.018750,17.818750,19.600000,30.933,0.56833976,-0.00976762,-0.02879532,-0.82223193
'00:16:48.694,0.060059,0.030273,1.003906,0.304878,1.280488,-0.609756,-4.787500,17.475000,19.318750,30.978,0.56834066,-0.00977634,-0.02880691,-0.82223079
'00:16:48.704,0.060547,0.029785,1.004395,0.304878,1.341463,-0.609756,-4.787500,17.475000,19.318750,30.903,0.56834176,-0.00978506,-0.02881418,-0.82222967
'00:16:48.714,0.059570,0.029297,1.002930,0.365854,1.341463,-0.548781,-4.800000,17.537500,19.287500,30.918,0.56834813,-0.00978759,-0.02882026,-0.82222503
'00:16:48.724,0.059570,0.029297,1.003418,0.304878,1.341463,-0.548781,-4.800000,17.537500,19.287500,30.918,0.56835442,-0.00979296,-0.02882165,-0.82222057
'00:16:48.734,0.059082,0.030273,1.002930,0.304878,1.341463,-0.548781,-4.775000,17.525000,19.256250,30.933,0.56836207,-0.00979306,-0.02882857,-0.82221504
'00:16:48.744,0.058594,0.029297,1.004883,0.365854,1.280488,-0.548781,-5.018750,17.806250,19.525000,30.948,0.56835856,-0.00978513,-0.02882195,-0.82221779
'00:16:48.754,0.059570,0.029297,1.003906,0.304878,1.341463,-0.609756,-5.018750,17.806250,19.525000,30.918,0.56835078,-0.00978137,-0.02881224,-0.82222355
