# FW/GUI: v9.6.1-multi17-dual (PyQt5)
# StartTime: 2026-04-03 16:18:06
# Slot: 13
# DeviceID: 13
# Label: EMG13
# IP: 192.168.137.206
# TCP: 3333
# DeviceFW: EMG_FW_v9.6_MULTI17_DUALCH_RUNTIMECFG_CHEN
# IMU1_RefTime = format(imu_ms) = relative since power-on Time (IMU acquisition time)
IMU1_RefTime,ax_g,ay_g,az_g,gx_dps,gy_dps,gz_dps,mx_uT,my_uT,mz_uT,temp_C,qw,qx,qy,qz
'00:10:00.114,0.058105,0.029297,1.001953,0.304878,1.341463,-0.548781,-4.406250,17.912500,19.806250,29.121,0.57812074,-0.00963512,-0.02889517,-0.81538251
'00:10:00.124,0.060059,0.029297,1.002441,0.426829,1.341463,-0.548781,-4.406250,17.912500,19.806250,29.091,0.57812995,-0.00964157,-0.02891146,-0.81537533
'00:10:00.134,0.059570,0.029297,1.003418,0.365854,1.402439,-0.609756,-4.537500,17.987501,19.868750,29.136,0.57812710,-0.00963621,-0.02890883,-0.81537751
'00:10:00.144,0.061035,0.029785,1.002441,0.426829,1.402439,-0.609756,-4.537500,17.987501,19.868750,29.091,0.57812416,-0.00963433,-0.02891971,-0.81537923
'00:10:00.154,0.059570,0.029297,1.002930,0.304878,1.341463,-0.548781,-4.456250,17.937500,19.837500,29.091,0.57813014,-0.00964119,-0.02892122,-0.81537486
'00:10:00.164,0.059570,0.028809,1.003906,0.243902,1.219512,-0.548781,-4.456250,17.937500,19.837500,29.091,0.57813584,-0.00966147,-0.02892125,-0.81537057
'00:10:00.174,0.059570,0.029297,1.003418,0.243902,1.219512,-0.548781,-4.643750,18.175001,19.987501,29.136,0.57813303,-0.00967122,-0.02891460,-0.81537268
'00:10:00.184,0.059570,0.028809,1.003418,0.304878,1.341463,-0.548781,-4.643750,18.175001,19.987501,29.121,0.57813069,-0.00967107,-0.02890344,-0.81537474
'00:10:00.194,0.060059,0.028809,1.002441,0.426829,1.463415,-0.609756,-4.843750,18.512501,20.231251,29.106,0.57811741,-0.00965185,-0.02888933,-0.81538489
'00:10:00.204,0.059570,0.029785,1.004395,0.487805,1.463415,-0.609756,-4.843750,18.512501,20.231251,29.106,0.57810410,-0.00962290,-0.02888263,-0.81539490
'00:10:00.214,0.059570,0.029297,1.002441,0.487805,1.402439,-0.609756,-4.443750,17.937500,19.837500,29.136,0.57810709,-0.00961727,-0.02889604,-0.81539237
'00:10:00.224,0.058105,0.028809,1.002441,0.365854,1.341463,-0.548781,-4.443750,17.937500,19.837500,29.106,0.57811430,-0.00961603,-0.02889477,-0.81538732
'00:10:00.234,0.059082,0.029297,1.002930,0.304878,1.280488,-0.609756,-4.412500,17.906250,19.843750,29.106,0.57811829,-0.00962710,-0.02890069,-0.81538415
'00:10:00.245,0.057617,0.029785,1.003418,0.243902,1.219512,-0.609756,-4.412500,17.906250,19.843750,29.091,0.57812237,-0.00963566,-0.02890200,-0.81538111
'00:10:00.254,0.060059,0.028809,1.003418,0.243902,1.280488,-0.548781,-4.481250,17.987501,19.893751,29.136,0.57812689,-0.00965199,-0.02890065,-0.81537776
'00:10:00.264,0.060059,0.028320,1.002441,0.365854,1.341463,-0.548781,-4.481250,17.987501,19.893751,29.091,0.57813222,-0.00966162,-0.02890230,-0.81537381
'00:10:00.274,0.060547,0.029297,1.003418,0.365854,1.402439,-0.609756,-4.631250,18.137501,19.975000,29.106,0.57812573,-0.00965782,-0.02889952,-0.81537855
'00:10:00.285,0.059570,0.029785,1.002930,0.426829,1.402439,-0.548781,-4.631250,18.137501,19.975000,29.106,0.57812338,-0.00964244,-0.02890026,-0.81538038
'00:10:00.294,0.059570,0.029785,1.002441,0.365854,1.341463,-0.609756,-4.825000,18.593750,20.287500,29.121,0.57811347,-0.00963221,-0.02889524,-0.81538770
'00:10:00.304,0.060059,0.030273,1.002930,0.304878,1.280488,-0.548781,-4.825000,18.593750,20.287500,29.091,0.57810655,-0.00962923,-0.02889296,-0.81539272
'00:10:00.314,0.058594,0.029297,1.004395,0.304878,1.280488,-0.548781,-4.481250,17.912500,19.881250,29.106,0.57811006,-0.00963295,-0.02889084,-0.81539026
'00:10:00.324,0.058594,0.029297,1.002441,0.365854,1.402439,-0.609756,-4.481250,17.912500,19.881250,29.091,0.57810957,-0.00962513,-0.02888777,-0.81539081
'00:10:00.334,0.060547,0.029785,1.003418,0.365854,1.402439,-0.548781,-4.406250,17.950001,19.806250,29.091,0.57811965,-0.00963151,-0.02890207,-0.81538308
'00:10:00.344,0.059082,0.029785,1.003418,0.365854,1.402439,-0.609756,-4.406250,17.950001,19.806250,29.136,0.57812540,-0.00962929,-0.02891021,-0.81537874
'00:10:00.354,0.058105,0.029297,1.002930,0.365854,1.402439,-0.609756,-4.412500,17.950001,19.743750,29.152,0.57813110,-0.00962309,-0.02891124,-0.81537474
'00:10:00.365,0.058105,0.029785,1.002930,0.365854,1.341463,-0.609756,-4.443750,17.925001,19.850000,29.121,0.57813354,-0.00961663,-0.02891520,-0.81537294
'00:10:00.374,0.059082,0.028809,1.002441,0.304878,1.280488,-0.548781,-4.443750,17.925001,19.850000,29.121,0.57813941,-0.00962697,-0.02891585,-0.81536864
'00:10:00.384,0.059082,0.029297,1.002930,0.243902,1.219512,-0.548781,-4.793750,18.400000,20.093750,29.121,0.57813107,-0.00962881,-0.02890107,-0.81537506
'00:10:00.395,0.059570,0.028320,1.003906,0.365854,1.280488,-0.609756,-4.793750,18.400000,20.093750,29.136,0.57811768,-0.00962619,-0.02888697,-0.81538508
'00:10:00.405,0.060059,0.028320,1.003418,0.365854,1.402439,-0.548781,-4.550000,18.050001,19.912500,29.091,0.57811980,-0.00962819,-0.02888143,-0.81538375
'00:10:00.414,0.059082,0.028809,1.003418,0.365854,1.402439,-0.548781,-4.550000,18.050001,19.912500,29.152,0.57812165,-0.00962323,-0.02887551,-0.81538270
'00:10:00.424,0.059082,0.028809,1.002930,0.426829,1.402439,-0.609756,-4.475000,17.912500,19.818750,29.121,0.57812201,-0.00961739,-0.02887663,-0.81538248
'00:10:00.434,0.060059,0.029785,1.003418,0.304878,1.341463,-0.609756,-4.475000,17.912500,19.818750,29.136,0.57812186,-0.00962352,-0.02888156,-0.81538234
'00:10:00.445,0.059570,0.029297,1.003418,0.304878,1.280488,-0.609756,-4.425000,17.950001,19.868750,29.121,0.57812619,-0.00963830,-0.02889014,-0.81537879
'00:10:00.454,0.058594,0.028809,1.003906,0.365854,1.280488,-0.548781,-4.425000,17.950001,19.868750,29.121,0.57813378,-0.00964427,-0.02889454,-0.81537319
'00:10:00.464,0.059082,0.028809,1.002930,0.304878,1.280488,-0.609756,-4.437500,17.950001,19.850000,29.136,0.57813693,-0.00965582,-0.02889646,-0.81537074
'00:10:00.474,0.060547,0.028809,1.002441,0.365854,1.341463,-0.548781,-4.437500,17.950001,19.850000,29.136,0.57814452,-0.00966832,-0.02890568,-0.81536489
'00:10:00.484,0.059082,0.030273,1.002930,0.365854,1.341463,-0.548781,-4.768750,18.393751,20.206251,29.076,0.57813738,-0.00965240,-0.02890042,-0.81537032
'00:10:00.494,0.059570,0.028809,1.003906,0.304878,1.341463,-0.548781,-4.768750,18.393751,20.206251,29.106,0.57813056,-0.00964825,-0.02888421,-0.81537578
'00:10:00.504,0.059082,0.029785,1.003418,0.304878,1.280488,-0.609756,-4.775000,18.475000,20.187500,29.106,0.57812053,-0.00964250,-0.02887662,-0.81538323
'00:10:00.514,0.059082,0.029297,1.002930,0.304878,1.280488,-0.548781,-4.775000,18.475000,20.187500,29.091,0.57811498,-0.00963909,-0.02886658,-0.81538756
'00:10:00.524,0.060059,0.028809,1.003906,0.304878,1.280488,-0.609756,-4.456250,17.950001,19.837500,29.136,0.57811696,-0.00965490,-0.02887116,-0.81538581
'00:10:00.534,0.060547,0.029297,1.001953,0.365854,1.341463,-0.609756,-4.456250,17.950001,19.837500,29.091,0.57811895,-0.00966421,-0.02888251,-0.81538389
'00:10:00.544,0.060547,0.028809,1.003418,0.365854,1.402439,-0.609756,-4.475000,17.968750,19.825001,29.091,0.57812033,-0.00966969,-0.02888608,-0.81538272
'00:10:00.554,0.059570,0.029785,1.003906,0.426829,1.402439,-0.548781,-4.475000,17.968750,19.825001,29.106,0.57812590,-0.00966253,-0.02889538,-0.81537852
'00:10:00.565,0.057617,0.028809,1.003418,0.426829,1.341463,-0.548781,-4.462500,17.962500,19.743750,29.152,0.57813336,-0.00965247,-0.02889528,-0.81537336
'00:10:00.574,0.059570,0.029297,1.002930,0.243902,1.341463,-0.548781,-4.462500,17.962500,19.743750,29.106,0.57813913,-0.00966085,-0.02889330,-0.81536924
'00:10:00.584,0.060547,0.029297,1.003906,0.243902,1.219512,-0.609756,-4.793750,18.456251,20.175001,29.121,0.57812729,-0.00967084,-0.02888532,-0.81537779
'00:10:00.594,0.060547,0.029785,1.000977,0.365854,1.341463,-0.609756,-4.793750,18.456251,20.175001,29.121,0.57811577,-0.00966459,-0.02888395,-0.81538608
'00:10:00.604,0.060059,0.029297,1.002930,0.365854,1.402439,-0.609756,-4.812500,18.400000,20.168751,29.121,0.57810217,-0.00965114,-0.02887146,-0.81539633
'00:10:00.614,0.060547,0.028320,1.003906,0.365854,1.402439,-0.548781,-4.425000,17.906250,19.781250,29.121,0.57811039,-0.00966126,-0.02887490,-0.81539026
'00:10:00.624,0.060059,0.029785,1.003418,0.365854,1.341463,-0.609756,-4.425000,17.906250,19.781250,29.091,0.57811378,-0.00966668,-0.02888809,-0.81538732
'00:10:00.634,0.058105,0.029297,1.004395,0.304878,1.341463,-0.609756,-4.437500,17.987501,19.881250,29.076,0.57811778,-0.00966630,-0.02888612,-0.81538456
'00:10:00.646,0.059570,0.028809,1.003906,0.304878,1.280488,-0.609756,-4.437500,17.987501,19.881250,29.091,0.57812242,-0.00968357,-0.02889144,-0.81538088
'00:10:00.654,0.059082,0.028809,1.001953,0.365854,1.280488,-0.609756,-4.450000,17.962500,19.806250,29.152,0.57812462,-0.00968944,-0.02889631,-0.81537908
'00:10:00.664,0.059570,0.029297,1.003418,0.365854,1.341463,-0.548781,-4.450000,17.962500,19.806250,29.152,0.57813171,-0.00969293,-0.02890338,-0.81537376
'00:10:00.674,0.059082,0.029297,1.002930,0.426829,1.402439,-0.609756,-4.587500,18.187500,19.956251,29.106,0.57812942,-0.00968077,-0.02890374,-0.81537551
'00:10:00.684,0.059570,0.029297,1.003418,0.426829,1.341463,-0.609756,-4.587500,18.187500,19.956251,29.091,0.57812699,-0.00967576,-0.02890895,-0.81537711
'00:10:00.694,0.058594,0.028809,1.003418,0.243902,1.280488,-0.609756,-4.637500,18.268751,20.025000,29.121,0.57812248,-0.00967906,-0.02889527,-0.81538076
'00:10:00.704,0.060059,0.030273,1.003906,0.243902,1.341463,-0.670732,-4.637500,18.268751,20.025000,29.152,0.57811345,-0.00967998,-0.02889281,-0.81538723
'00:10:00.714,0.059570,0.028320,1.002930,0.304878,1.280488,-0.609756,-4.612500,18.162500,19.987501,29.091,0.57810866,-0.00968784,-0.02888471,-0.81539082
'00:10:00.726,0.059082,0.028809,1.003418,0.304878,1.341463,-0.609756,-4.612500,18.162500,19.987501,29.106,0.57810302,-0.00968616,-0.02887223,-0.81539528
'00:10:00.734,0.059082,0.029297,1.003906,0.365854,1.341463,-0.548781,-4.462500,17.993750,19.906250,29.167,0.57810833,-0.00968669,-0.02887611,-0.81539138
'00:10:00.744,0.059082,0.029297,1.003906,0.365854,1.341463,-0.548781,-4.462500,17.993750,19.906250,29.167,0.57811494,-0.00968731,-0.02888087,-0.81538651
'00:10:00.754,0.061035,0.029297,1.003418,0.426829,1.402439,-0.609756,-4.418750,17.950001,19.775000,29.136,0.57811995,-0.00969334,-0.02889774,-0.81538230
'00:10:00.766,0.060547,0.029785,1.001953,0.304878,1.280488,-0.548781,-4.418750,17.950001,19.775000,29.167,0.57813047,-0.00971303,-0.02891628,-0.81537394
'00:10:00.774,0.060547,0.029785,1.001953,0.304878,1.280488,-0.548781,-4.437500,17.968750,19.875000,29.167,0.57813635,-0.00972533,-0.02892731,-0.81536924
'00:10:00.784,0.059082,0.029297,1.002441,0.304878,1.280488,-0.609756,-4.437500,17.968750,19.875000,29.106,0.57813948,-0.00973392,-0.02893192,-0.81536675
'00:10:00.794,0.060059,0.029297,1.002930,0.365854,1.341463,-0.609756,-4.800000,18.500000,20.187500,29.121,0.57812833,-0.00972565,-0.02892464,-0.81537501
'00:10:00.806,0.059570,0.028809,1.003418,0.426829,1.463415,-0.548781,-4.800000,18.500000,20.187500,29.091,0.57812081,-0.00970102,-0.02890802,-0.81538123
'00:10:00.814,0.059570,0.028809,1.003418,0.426829,1.463415,-0.548781,-4.831250,18.481251,20.268751,29.091,0.57811364,-0.00968342,-0.02889483,-0.81538699
'00:10:00.824,0.059570,0.029785,1.002930,0.426829,1.402439,-0.548781,-4.831250,18.481251,20.268751,29.106,0.57810440,-0.00966226,-0.02888739,-0.81539405
'00:10:00.834,0.059082,0.029785,1.003418,0.304878,1.280488,-0.548781,-4.418750,17.900000,19.787500,29.136,0.57811224,-0.00967003,-0.02889547,-0.81538812
'00:10:00.846,0.060059,0.029297,1.002930,0.182927,1.158537,-0.548781,-4.443750,17.925001,19.775000,29.136,0.57811977,-0.00970452,-0.02890181,-0.81538215
'00:10:00.855,0.060059,0.029297,1.002930,0.182927,1.158537,-0.548781,-4.443750,17.925001,19.775000,29.136,0.57812532,-0.00972988,-0.02890640,-0.81537774
'00:10:00.864,0.061035,0.028809,1.002441,0.304878,1.280488,-0.548781,-4.443750,17.925001,19.775000,29.106,0.57813123,-0.00974838,-0.02891431,-0.81537305
'00:10:00.874,0.060059,0.028809,1.003906,0.365854,1.341463,-0.548781,-4.393750,17.931250,19.843750,29.121,0.57814135,-0.00975891,-0.02892359,-0.81536542
'00:10:00.885,0.059570,0.028320,1.003418,0.426829,1.402439,-0.609756,-4.656250,18.287500,20.031250,29.136,0.57813574,-0.00974857,-0.02891571,-0.81536980
'00:10:00.894,0.059082,0.028320,1.003418,0.426829,1.402439,-0.609756,-4.656250,18.287500,20.031250,29.167,0.57813121,-0.00973782,-0.02890766,-0.81537342
'00:10:00.904,0.059082,0.030273,1.003418,0.304878,1.402439,-0.609756,-4.787500,18.418751,20.225000,29.091,0.57811898,-0.00971862,-0.02889385,-0.81538282
'00:10:00.914,0.059082,0.030273,1.002930,0.426829,1.341463,-0.609756,-4.787500,18.418751,20.225000,29.121,0.57810680,-0.00969807,-0.02889227,-0.81539176
'00:10:00.926,0.059570,0.029785,1.002441,0.365854,1.341463,-0.609756,-4.425000,17.968750,19.843750,29.106,0.57811211,-0.00970195,-0.02890729,-0.81538741
'00:10:00.934,0.059570,0.029297,1.002441,0.426829,1.341463,-0.609756,-4.425000,17.968750,19.843750,29.136,0.57811574,-0.00970362,-0.02891828,-0.81538443
'00:10:00.944,0.058105,0.029785,1.003418,0.304878,1.341463,-0.609756,-4.425000,17.975000,19.837500,29.121,0.57812028,-0.00970130,-0.02891978,-0.81538119
'00:10:00.954,0.060059,0.029785,1.002930,0.304878,1.341463,-0.609756,-4.425000,17.975000,19.837500,29.121,0.57812469,-0.00971019,-0.02892937,-0.81537761
'00:10:00.964,0.059570,0.029297,1.002930,0.365854,1.280488,-0.609756,-4.437500,17.925001,19.787500,29.136,0.57812733,-0.00971785,-0.02893938,-0.81537529
'00:10:00.974,0.059570,0.028809,1.002930,0.365854,1.341463,-0.609756,-4.437500,17.925001,19.787500,29.167,0.57813018,-0.00972304,-0.02894328,-0.81537307
'00:10:00.984,0.060059,0.028809,1.002930,0.365854,1.402439,-0.548781,-4.506250,18.056250,19.906250,29.106,0.57813505,-0.00972433,-0.02894316,-0.81536960
'00:10:00.994,0.059570,0.028809,1.002930,0.426829,1.402439,-0.548781,-4.506250,18.056250,19.906250,29.121,0.57813998,-0.00971976,-0.02894540,-0.81536608
'00:10:01.006,0.059570,0.028809,1.002930,0.426829,1.402439,-0.609756,-4.575000,18.231251,19.981251,29.106,0.57813920,-0.00971188,-0.02894613,-0.81536671
'00:10:01.014,0.058594,0.029785,1.002930,0.365854,1.402439,-0.609756,-4.575000,18.231251,19.981251,29.106,0.57813851,-0.00970162,-0.02894450,-0.81536737
'00:10:01.024,0.060059,0.030762,1.003906,0.365854,1.402439,-0.609756,-4.512500,18.106251,19.962500,29.167,0.57813907,-0.00969522,-0.02895578,-0.81536665
'00:10:01.034,0.060059,0.029297,1.003418,0.365854,1.341463,-0.548781,-4.512500,18.106251,19.962500,29.106,0.57814412,-0.00969951,-0.02896165,-0.81536281
'00:10:01.046,0.058105,0.029297,1.002930,0.365854,1.280488,-0.548781,-4.412500,17.950001,19.775000,29.091,0.57815528,-0.00970124,-0.02896883,-0.81535462
'00:10:01.054,0.059082,0.028809,1.002930,0.304878,1.280488,-0.548781,-4.412500,17.950001,19.775000,29.091,0.57816269,-0.00971084,-0.02897092,-0.81534918
'00:10:01.064,0.058105,0.029785,1.003418,0.365854,1.341463,-0.609756,-4.406250,17.993750,19.918751,29.136,0.57816840,-0.00970673,-0.02897740,-0.81534495
'00:10:01.074,0.060059,0.028809,1.003906,0.304878,1.280488,-0.548781,-4.406250,17.993750,19.918751,29.136,0.57817834,-0.00972530,-0.02898450,-0.81533743
'00:10:01.086,0.060059,0.028809,1.002930,0.365854,1.341463,-0.548781,-4.418750,17.875000,19.762501,29.106,0.57818700,-0.00973520,-0.02899087,-0.81533094
'00:10:01.094,0.059570,0.029297,1.002441,0.304878,1.402439,-0.548781,-4.418750,17.875000,19.762501,29.121,0.57819275,-0.00973690,-0.02898991,-0.81532688
'00:10:01.104,0.059082,0.029785,1.003418,0.365854,1.402439,-0.609756,-4.593750,18.212500,19.987501,29.121,0.57818985,-0.00972471,-0.02898680,-0.81532919
'00:10:01.114,0.059570,0.028809,1.003906,0.365854,1.402439,-0.609756,-4.593750,18.212500,19.987501,29.136,0.57818720,-0.00971933,-0.02897993,-0.81533138
'00:10:01.126,0.060547,0.028809,1.003418,0.243902,1.280488,-0.548781,-4.725000,18.356251,20.150000,29.091,0.57818101,-0.00973069,-0.02896506,-0.81533616
'00:10:01.134,0.058594,0.029297,1.003906,0.243902,1.219512,-0.548781,-4.437500,17.956251,19.825001,29.136,0.57818662,-0.00974069,-0.02896487,-0.81533207
'00:10:01.144,0.060059,0.028809,1.002441,0.243902,1.280488,-0.609756,-4.437500,17.956251,19.825001,29.121,0.57818943,-0.00975914,-0.02896528,-0.81532984
'00:10:01.154,0.059570,0.029297,1.003906,0.365854,1.402439,-0.548781,-4.481250,17.950001,19.837500,29.106,0.57819362,-0.00975471,-0.02896473,-0.81532694
'00:10:01.166,0.059082,0.029785,1.002930,0.426829,1.463415,-0.609756,-4.481250,17.950001,19.837500,29.136,0.57819358,-0.00973491,-0.02896715,-0.81532712
'00:10:01.174,0.060059,0.029785,1.002930,0.487805,1.463415,-0.609756,-4.412500,17.987501,19.850000,29.106,0.57819806,-0.00972783,-0.02898041,-0.81532356
'00:10:01.184,0.059570,0.030273,1.003906,0.426829,1.402439,-0.609756,-4.412500,17.987501,19.850000,29.076,0.57820335,-0.00972147,-0.02899596,-0.81531933
'00:10:01.194,0.060059,0.028809,1.003906,0.304878,1.280488,-0.609756,-4.556250,18.137501,19.975000,29.136,0.57820124,-0.00973191,-0.02899392,-0.81532077
'00:10:01.206,0.060059,0.029785,1.003418,0.304878,1.280488,-0.609756,-4.556250,18.137501,19.975000,29.136,0.57819845,-0.00973958,-0.02899848,-0.81532250
'00:10:01.215,0.059570,0.028809,1.002930,0.304878,1.280488,-0.548781,-4.662500,18.306250,20.025000,29.167,0.57819705,-0.00974276,-0.02899110,-0.81532372
'00:10:01.224,0.060059,0.029785,1.001953,0.304878,1.341463,-0.609756,-4.662500,18.306250,20.025000,29.136,0.57819168,-0.00974094,-0.02898822,-0.81532765
'00:10:01.235,0.059570,0.028320,1.002930,0.365854,1.402439,-0.609756,-4.418750,17.912500,19.787500,29.152,0.57819587,-0.00974454,-0.02898613,-0.81532471
'00:10:01.248,0.060059,0.029785,1.003418,0.365854,1.341463,-0.609756,-4.418750,17.912500,19.787500,29.106,0.57820016,-0.00974993,-0.02900106,-0.81532107
'00:10:01.254,0.059082,0.029297,1.003906,0.304878,1.341463,-0.548781,-4.443750,17.943750,19.812500,29.152,0.57820407,-0.00975143,-0.02900015,-0.81531831
'00:10:01.264,0.060547,0.029297,1.003418,0.304878,1.280488,-0.609756,-4.443750,17.943750,19.812500,29.121,0.57820601,-0.00976646,-0.02900788,-0.81531648
'00:10:01.274,0.059570,0.029785,1.002441,0.243902,1.280488,-0.609756,-4.443750,18.062500,19.893751,29.121,0.57821005,-0.00977871,-0.02901284,-0.81531330
'00:10:01.285,0.060547,0.028809,1.002930,0.365854,1.341463,-0.548781,-4.443750,18.062500,19.893751,29.106,0.57821967,-0.00979098,-0.02902215,-0.81530600
'00:10:01.294,0.060059,0.028809,1.002930,0.426829,1.402439,-0.609756,-4.450000,17.981251,19.856251,29.121,0.57822193,-0.00979015,-0.02902700,-0.81530423
'00:10:01.304,0.060059,0.028809,1.003418,0.365854,1.402439,-0.609756,-4.450000,17.981251,19.856251,29.091,0.57822439,-0.00979218,-0.02902776,-0.81530244
'00:10:01.314,0.058594,0.028809,1.003418,0.365854,1.341463,-0.609756,-4.700000,18.350000,20.112501,29.091,0.57821656,-0.00978017,-0.02901401,-0.81530862
'00:10:01.324,0.059570,0.028320,1.002930,0.365854,1.341463,-0.609756,-4.700000,18.350000,20.112501,29.152,0.57820888,-0.00977590,-0.02900186,-0.81531455
'00:10:01.334,0.059082,0.029785,1.002930,0.365854,1.280488,-0.548781,-4.487500,18.018751,19.931250,29.121,0.57821320,-0.00977591,-0.02900881,-0.81531124
'00:10:01.344,0.059570,0.029297,1.003418,0.365854,1.341463,-0.548781,-4.487500,18.018751,19.931250,29.121,0.57821773,-0.00977624,-0.02901150,-0.81530793
'00:10:01.354,0.059570,0.029785,1.003418,0.365854,1.341463,-0.609756,-4.375000,17.900000,19.743750,29.091,0.57822388,-0.00977954,-0.02902377,-0.81530309
'00:10:01.364,0.060059,0.029297,1.003418,0.365854,1.341463,-0.609756,-4.375000,17.900000,19.743750,29.091,0.57823006,-0.00978755,-0.02903495,-0.81529821
'00:10:01.374,0.059570,0.030273,1.003418,0.304878,1.341463,-0.609756,-4.381250,17.831251,19.781250,29.091,0.57823382,-0.00979045,-0.02904316,-0.81529521
'00:10:01.384,0.060059,0.028809,1.001953,0.304878,1.280488,-0.609756,-4.381250,17.831251,19.781250,29.121,0.57823769,-0.00980681,-0.02904833,-0.81529210
'00:10:01.394,0.060059,0.028809,1.001465,0.365854,1.341463,-0.548781,-4.443750,17.925001,19.806250,29.121,0.57824359,-0.00981296,-0.02905183,-0.81528771
'00:10:01.406,0.060547,0.028809,1.002441,0.487805,1.402439,-0.609756,-4.643750,18.281250,20.150000,29.152,0.57823683,-0.00980195,-0.02905442,-0.81529254
'00:10:01.414,0.059082,0.029785,1.004395,0.365854,1.402439,-0.548781,-4.643750,18.281250,20.150000,29.106,0.57823563,-0.00978971,-0.02904830,-0.81529376
'00:10:01.424,0.058594,0.029785,1.003906,0.365854,1.341463,-0.609756,-4.468750,18.000000,19.956251,29.106,0.57823638,-0.00978286,-0.02904992,-0.81529325
'00:10:01.434,0.059082,0.029297,1.003418,0.304878,1.280488,-0.609756,-4.468750,18.000000,19.956251,29.061,0.57823702,-0.00978843,-0.02904962,-0.81529274
'00:10:01.444,0.059082,0.028809,1.002930,0.304878,1.341463,-0.609756,-4.456250,17.906250,19.825001,29.106,0.57823726,-0.00979094,-0.02904282,-0.81529278
'00:10:01.454,0.059570,0.028809,1.004395,0.304878,1.341463,-0.548781,-4.456250,17.906250,19.825001,29.106,0.57824184,-0.00979603,-0.02903746,-0.81528967
'00:10:01.464,0.059570,0.029785,1.003418,0.365854,1.341463,-0.609756,-4.481250,17.962500,19.868750,29.136,0.57824120,-0.00979324,-0.02904180,-0.81529000
'00:10:01.474,0.060059,0.028809,1.002930,0.365854,1.280488,-0.609756,-4.481250,17.962500,19.868750,29.106,0.57824060,-0.00980171,-0.02904567,-0.81529018
'00:10:01.484,0.060059,0.028809,1.002930,0.365854,1.280488,-0.609756,-4.443750,17.912500,19.868750,29.106,0.57824149,-0.00981182,-0.02905129,-0.81528923
'00:10:01.494,0.060059,0.029297,1.003418,0.365854,1.341463,-0.548781,-4.443750,17.912500,19.868750,29.091,0.57824674,-0.00981544,-0.02905631,-0.81528528
'00:10:01.504,0.060059,0.029297,1.003418,0.426829,1.402439,-0.609756,-4.875000,18.587500,20.275000,29.121,0.57823170,-0.00979483,-0.02904374,-0.81529665
'00:10:01.514,0.059082,0.029297,1.003906,0.365854,1.341463,-0.609756,-4.875000,18.587500,20.275000,29.121,0.57821659,-0.00977654,-0.02902616,-0.81530821
'00:10:01.526,0.059082,0.028809,1.003418,0.304878,1.341463,-0.609756,-4.618750,18.181250,20.087500,29.121,0.57820951,-0.00977262,-0.02900978,-0.81531386
'00:10:01.534,0.059082,0.029297,1.002930,0.304878,1.341463,-0.609756,-4.618750,18.181250,20.087500,29.121,0.57820475,-0.00976859,-0.02900150,-0.81531758
'00:10:01.544,0.058594,0.028320,1.002930,0.304878,1.280488,-0.548781,-4.437500,17.987501,19.868750,29.121,0.57821245,-0.00977770,-0.02899705,-0.81531217
'00:10:01.554,0.060059,0.028320,1.003418,0.304878,1.280488,-0.609756,-4.437500,17.987501,19.868750,29.121,0.57821572,-0.00979469,-0.02899845,-0.81530959
'00:10:01.566,0.058105,0.030273,1.002930,0.304878,1.280488,-0.609756,-4.450000,17.925001,19.837500,29.136,0.57821663,-0.00978984,-0.02900161,-0.81530889
'00:10:01.574,0.059570,0.028809,1.002441,0.304878,1.280488,-0.609756,-4.450000,17.925001,19.837500,29.136,0.57821744,-0.00979826,-0.02900179,-0.81530821
'00:10:01.584,0.060059,0.030273,1.003418,0.304878,1.341463,-0.609756,-4.431250,17.968750,19.887501,29.121,0.57822032,-0.00980271,-0.02901138,-0.81530577
'00:10:01.594,0.059570,0.029297,1.002930,0.365854,1.280488,-0.609756,-4.431250,17.968750,19.887501,29.182,0.57822330,-0.00980970,-0.02902072,-0.81530325
'00:10:01.605,0.059570,0.029297,1.003418,0.304878,1.280488,-0.609756,-4.412500,17.950001,19.837500,29.167,0.57822770,-0.00982142,-0.02902713,-0.81529975
'00:10:01.614,0.059570,0.028809,1.002441,0.426829,1.280488,-0.609756,-4.412500,17.950001,19.837500,29.121,0.57823145,-0.00982730,-0.02903785,-0.81529664
'00:10:01.624,0.060547,0.028809,1.002441,0.426829,1.341463,-0.609756,-4.700000,18.393751,20.087500,29.106,0.57822455,-0.00982320,-0.02903742,-0.81530160
'00:10:01.634,0.059082,0.028809,1.003418,0.304878,1.341463,-0.548781,-4.700000,18.393751,20.087500,29.076,0.57822196,-0.00981715,-0.02902208,-0.81530406
'00:10:01.644,0.060547,0.029297,1.003418,0.365854,1.341463,-0.548781,-4.443750,17.993750,19.906250,29.106,0.57822892,-0.00982470,-0.02903137,-0.81529870
'00:10:01.654,0.059082,0.029297,1.003418,0.426829,1.341463,-0.548781,-4.443750,17.993750,19.906250,29.076,0.57823596,-0.00982073,-0.02903885,-0.81529349
'00:10:01.664,0.058105,0.029297,1.002441,0.304878,1.280488,-0.609756,-4.418750,17.931250,19.843750,29.091,0.57823905,-0.00982237,-0.02903779,-0.81529132
'00:10:01.674,0.060059,0.029297,1.003906,0.304878,1.341463,-0.609756,-4.412500,17.918751,19.825001,29.136,0.57824245,-0.00983064,-0.02904129,-0.81528868
'00:10:01.684,0.059570,0.029297,1.002930,0.365854,1.341463,-0.548781,-4.412500,17.918751,19.825001,29.136,0.57825021,-0.00983328,-0.02904741,-0.81528292
'00:10:01.694,0.059570,0.030273,1.002441,0.365854,1.402439,-0.548781,-4.550000,18.168751,19.950001,29.136,0.57825325,-0.00982246,-0.02905058,-0.81528078
'00:10:01.704,0.060059,0.029297,1.001465,0.365854,1.402439,-0.609756,-4.550000,18.168751,19.950001,29.106,0.57825215,-0.00981858,-0.02905051,-0.81528162
'00:10:01.714,0.059570,0.028809,1.001953,0.365854,1.402439,-0.609756,-4.806250,18.450001,20.156250,29.121,0.57823917,-0.00980254,-0.02903188,-0.81529168
'00:10:01.724,0.058105,0.028320,1.002930,0.365854,1.341463,-0.548781,-4.806250,18.450001,20.156250,29.167,0.57823063,-0.00978494,-0.02900770,-0.81529881
'00:10:01.734,0.059570,0.029785,1.003418,0.365854,1.341463,-0.609756,-4.631250,18.250000,20.050001,29.106,0.57822532,-0.00977726,-0.02900690,-0.81530269
'00:10:01.744,0.059570,0.029297,1.002441,0.365854,1.402439,-0.548781,-4.631250,18.250000,20.050001,29.136,0.57822464,-0.00976774,-0.02900062,-0.81530352
'00:10:01.754,0.059082,0.028809,1.001953,0.426829,1.402439,-0.609756,-4.412500,17.918751,19.918751,29.121,0.57822826,-0.00976367,-0.02900422,-0.81530087
'00:10:01.764,0.060059,0.030762,1.002930,0.426829,1.402439,-0.609756,-4.412500,17.918751,19.918751,29.106,0.57823139,-0.00975685,-0.02902279,-0.81529807
'00:10:01.774,0.058594,0.029297,1.004395,0.304878,1.402439,-0.548781,-4.412500,17.987501,19.837500,29.106,0.57824099,-0.00975453,-0.02901891,-0.81529143
'00:10:01.784,0.059570,0.028809,1.003418,0.243902,1.219512,-0.548781,-4.412500,17.987501,19.837500,29.091,0.57825011,-0.00977606,-0.02902148,-0.81528461
'00:10:01.794,0.059570,0.029785,1.003418,0.304878,1.280488,-0.548781,-4.443750,17.962500,19.837500,29.106,0.57825639,-0.00978345,-0.02902784,-0.81527984
'00:10:01.804,0.059570,0.029785,1.003418,0.304878,1.402439,-0.548781,-4.443750,17.962500,19.837500,29.121,0.57826294,-0.00978202,-0.02902790,-0.81527521
'00:10:01.814,0.060059,0.028809,1.003906,0.426829,1.341463,-0.548781,-4.643750,18.250000,20.031250,29.106,0.57826131,-0.00977712,-0.02902621,-0.81527648
'00:10:01.824,0.060059,0.028809,1.002930,0.365854,1.280488,-0.609756,-4.643750,18.250000,20.031250,29.152,0.57825516,-0.00977976,-0.02902375,-0.81528090
'00:10:01.834,0.060059,0.029297,1.002441,0.304878,1.280488,-0.548781,-4.762500,18.412500,20.200001,29.136,0.57824806,-0.00977908,-0.02901416,-0.81528628
'00:10:01.844,0.060059,0.029297,1.002441,0.365854,1.280488,-0.609756,-4.762500,18.412500,20.200001,29.121,0.57823673,-0.00977522,-0.02900913,-0.81529455
'00:10:01.854,0.058594,0.029297,1.002930,0.365854,1.280488,-0.548781,-4.506250,18.106251,19.918751,29.121,0.57824174,-0.00977432,-0.02901157,-0.81529092
'00:10:01.864,0.060059,0.029297,1.002441,0.365854,1.341463,-0.548781,-4.506250,18.106251,19.918751,29.152,0.57824680,-0.00977744,-0.02901700,-0.81528710
'00:10:01.874,0.060547,0.029297,1.003418,0.304878,1.280488,-0.609756,-4.437500,17.900000,19.775000,29.121,0.57824816,-0.00979163,-0.02902387,-0.81528572
'00:10:01.884,0.060059,0.028809,1.003418,0.243902,1.280488,-0.609756,-4.437500,17.900000,19.775000,29.076,0.57824955,-0.00980792,-0.02902144,-0.81528463
'00:10:01.894,0.061035,0.028809,1.002930,0.304878,1.280488,-0.609756,-4.418750,17.893751,19.843750,29.136,0.57825179,-0.00982785,-0.02902871,-0.81528254
'00:10:01.904,0.059570,0.028809,1.003418,0.365854,1.402439,-0.548781,-4.418750,17.893751,19.843750,29.121,0.57825875,-0.00982745,-0.02902778,-0.81527764
'00:10:01.914,0.061035,0.028809,1.001953,0.426829,1.463415,-0.609756,-4.556250,18.075001,19.956251,29.121,0.57825543,-0.00982193,-0.02902765,-0.81528006
'00:10:01.924,0.059082,0.028809,1.003418,0.426829,1.402439,-0.609756,-4.556250,18.075001,19.956251,29.091,0.57825208,-0.00980953,-0.02902213,-0.81528279
'00:10:01.934,0.059082,0.028809,1.002930,0.365854,1.402439,-0.609756,-4.712500,18.406250,20.162500,29.136,0.57824445,-0.00979575,-0.02900760,-0.81528888
'00:10:01.944,0.058594,0.029785,1.002441,0.243902,1.219512,-0.609756,-4.456250,18.043751,19.875000,29.121,0.57824700,-0.00980515,-0.02901014,-0.81528687
'00:10:01.954,0.059082,0.028809,1.003418,0.243902,1.280488,-0.548781,-4.456250,18.043751,19.875000,29.106,0.57825419,-0.00981680,-0.02900539,-0.81528179
'00:10:01.964,0.059570,0.028320,1.003906,0.304878,1.341463,-0.609756,-4.443750,17.943750,19.781250,29.152,0.57825639,-0.00982462,-0.02899994,-0.81528034
'00:10:01.974,0.059082,0.029297,1.002930,0.365854,1.402439,-0.609756,-4.443750,17.943750,19.781250,29.121,0.57825858,-0.00981834,-0.02899990,-0.81527886
'00:10:01.984,0.060059,0.029297,1.000977,0.426829,1.402439,-0.548781,-4.400000,17.950001,19.837500,29.152,0.57826807,-0.00981823,-0.02901240,-0.81527168
'00:10:01.994,0.059082,0.029785,1.004395,0.365854,1.341463,-0.609756,-4.400000,17.950001,19.837500,29.152,0.57827295,-0.00981702,-0.02902091,-0.81526794
'00:10:02.004,0.060059,0.029785,1.003906,0.365854,1.280488,-0.548781,-4.675000,18.262501,20.018751,29.106,0.57826903,-0.00981324,-0.02902148,-0.81527074
'00:10:02.014,0.059570,0.029785,1.001953,0.304878,1.341463,-0.609756,-4.675000,18.262501,20.018751,29.091,0.57826090,-0.00980582,-0.02901355,-0.81527688
'00:10:02.024,0.061035,0.029297,1.001953,0.365854,1.341463,-0.609756,-4.762500,18.456251,20.162500,29.121,0.57825069,-0.00980315,-0.02901052,-0.81528426
'00:10:02.034,0.060059,0.028809,1.003418,0.426829,1.402439,-0.609756,-4.762500,18.456251,20.162500,29.121,0.57824088,-0.00978940,-0.02900163,-0.81529170
'00:10:02.044,0.058594,0.029297,1.002441,0.487805,1.463415,-0.609756,-4.650000,18.250000,20.081251,29.121,0.57823469,-0.00976246,-0.02899556,-0.81529663
'00:10:02.054,0.059082,0.029785,1.003906,0.365854,1.402439,-0.609756,-4.650000,18.250000,20.081251,29.136,0.57822821,-0.00974690,-0.02898824,-0.81530167
'00:10:02.064,0.059570,0.028809,1.003418,0.304878,1.280488,-0.609756,-4.437500,17.968750,19.875000,29.121,0.57823098,-0.00975935,-0.02899020,-0.81529949
'00:10:02.074,0.060059,0.028809,1.002930,0.243902,1.280488,-0.609756,-4.437500,17.968750,19.875000,29.121,0.57823364,-0.00977753,-0.02898996,-0.81529739
'00:10:02.084,0.061035,0.029785,1.003418,0.304878,1.280488,-0.548781,-4.456250,17.906250,19.812500,29.167,0.57823795,-0.00979170,-0.02900063,-0.81529378
'00:10:02.094,0.060059,0.029297,1.002930,0.365854,1.341463,-0.548781,-4.456250,17.906250,19.812500,29.121,0.57824257,-0.00979480,-0.02900577,-0.81529029
'00:10:02.104,0.059082,0.029297,1.003906,0.426829,1.402439,-0.609756,-4.443750,17.950001,19.925001,29.121,0.57824444,-0.00978619,-0.02900943,-0.81528894
'00:10:02.114,0.060547,0.028809,1.002930,0.365854,1.402439,-0.609756,-4.443750,17.950001,19.925001,29.091,0.57824629,-0.00979134,-0.02901222,-0.81528746
'00:10:02.124,0.059082,0.029297,1.002930,0.365854,1.280488,-0.548781,-4.550000,18.081251,19.918751,29.121,0.57824764,-0.00978985,-0.02901256,-0.81528651
'00:10:02.134,0.059570,0.028809,1.003418,0.304878,1.280488,-0.548781,-4.550000,18.081251,19.918751,29.121,0.57824902,-0.00979610,-0.02900752,-0.81528564
'00:10:02.144,0.059570,0.028809,1.003906,0.304878,1.280488,-0.548781,-4.818750,18.468750,20.193750,29.091,0.57823959,-0.00979155,-0.02899003,-0.81529300
'00:10:02.154,0.058594,0.028320,1.003418,0.426829,1.402439,-0.609756,-4.818750,18.468750,20.193750,29.152,0.57822643,-0.00976882,-0.02896900,-0.81530336
'00:10:02.164,0.058594,0.029785,1.002441,0.365854,1.402439,-0.609756,-4.400000,17.918751,19.887501,29.152,0.57823088,-0.00976161,-0.02897341,-0.81530013
'00:10:02.174,0.060547,0.029785,1.002930,0.426829,1.402439,-0.548781,-4.400000,17.918751,19.887501,29.152,0.57823960,-0.00976260,-0.02898979,-0.81529335
'00:10:02.184,0.059570,0.028809,1.004395,0.365854,1.402439,-0.609756,-4.456250,17.993750,19.856251,29.121,0.57824199,-0.00976187,-0.02898858,-0.81529171
'00:10:02.194,0.059570,0.029785,1.003418,0.304878,1.280488,-0.609756,-4.412500,17.875000,19.762501,29.106,0.57824464,-0.00977009,-0.02899632,-0.81528946
'00:10:02.204,0.060059,0.029297,1.003906,0.304878,1.219512,-0.548781,-4.412500,17.875000,19.762501,29.136,0.57825152,-0.00978732,-0.02900586,-0.81528403
'00:10:02.214,0.060059,0.028809,1.002930,0.304878,1.341463,-0.548781,-4.687500,18.350000,20.093750,29.136,0.57824881,-0.00978754,-0.02899505,-0.81528634
'00:10:02.224,0.060059,0.028809,1.001953,0.426829,1.402439,-0.548781,-4.687500,18.350000,20.093750,29.197,0.57824637,-0.00977751,-0.02899041,-0.81528835
'00:10:02.234,0.059082,0.029297,1.002441,0.487805,1.463415,-0.609756,-4.806250,18.543751,20.225000,29.182,0.57823551,-0.00974832,-0.02898098,-0.81529674
'00:10:02.244,0.059082,0.029297,1.002441,0.487805,1.463415,-0.609756,-4.806250,18.543751,20.225000,29.182,0.57822475,-0.00971963,-0.02897179,-0.81530504
'00:10:02.254,0.058594,0.030273,1.002930,0.426829,1.402439,-0.548781,-4.487500,17.962500,19.775000,29.136,0.57822886,-0.00970291,-0.02897745,-0.81530212
'00:10:02.264,0.059082,0.030273,1.001953,0.365854,1.280488,-0.609756,-4.487500,17.962500,19.775000,29.106,0.57822826,-0.00970097,-0.02898727,-0.81530222
'00:10:02.274,0.059570,0.030273,1.001953,0.304878,1.280488,-0.548781,-4.456250,17.918751,19.856251,29.152,0.57823278,-0.00970665,-0.02899585,-0.81529864
'00:10:02.284,0.059570,0.028320,1.003418,0.304878,1.280488,-0.609756,-4.456250,17.918751,19.856251,29.136,0.57823337,-0.00971982,-0.02899234,-0.81529819
'00:10:02.294,0.060059,0.029297,1.003418,0.365854,1.341463,-0.548781,-4.431250,17.956251,19.800001,29.076,0.57824106,-0.00972619,-0.02900069,-0.81529236
'00:10:02.304,0.059082,0.028809,1.003418,0.426829,1.402439,-0.548781,-4.431250,17.956251,19.800001,29.136,0.57824906,-0.00972150,-0.02900333,-0.81528665
'00:10:02.314,0.060547,0.028320,1.003418,0.365854,1.402439,-0.609756,-4.468750,17.925001,19.837500,29.106,0.57824921,-0.00972737,-0.02900097,-0.81528656
'00:10:02.324,0.059082,0.029297,1.003418,0.365854,1.402439,-0.548781,-4.468750,17.925001,19.837500,29.076,0.57825354,-0.00972099,-0.02899831,-0.81528366
'00:10:02.334,0.059570,0.028320,1.003906,0.365854,1.402439,-0.609756,-4.625000,18.150000,19.943750,29.121,0.57824745,-0.00971460,-0.02898458,-0.81528854
'00:10:02.344,0.058594,0.029297,1.004395,0.365854,1.341463,-0.548781,-4.625000,18.150000,19.943750,29.152,0.57824543,-0.00970331,-0.02897560,-0.81529043
'00:10:02.354,0.059082,0.028809,1.001953,0.365854,1.341463,-0.548781,-4.531250,18.081251,19.906250,29.061,0.57824861,-0.00970228,-0.02897271,-0.81528829
'00:10:02.364,0.058105,0.029785,1.002441,0.304878,1.341463,-0.609756,-4.531250,18.081251,19.906250,29.121,0.57824723,-0.00969456,-0.02896706,-0.81528956
'00:10:02.374,0.059082,0.030273,1.002441,0.426829,1.402439,-0.548781,-4.462500,17.931250,19.800001,29.136,0.57825225,-0.00968225,-0.02897617,-0.81528582
'00:10:02.384,0.059570,0.029297,1.003418,0.426829,1.402439,-0.548781,-4.462500,17.931250,19.800001,29.106,0.57825746,-0.00967669,-0.02898104,-0.81528202
'00:10:02.394,0.059082,0.028809,1.002930,0.426829,1.402439,-0.609756,-4.412500,17.931250,19.800001,29.152,0.57826197,-0.00967360,-0.02898523,-0.81527871
'00:10:02.404,0.060059,0.029297,1.003906,0.426829,1.341463,-0.609756,-4.412500,17.931250,19.800001,29.106,0.57826616,-0.00967818,-0.02899881,-0.81527520
'00:10:02.414,0.060059,0.029297,1.004395,0.365854,1.280488,-0.609756,-4.437500,17.931250,19.768751,29.121,0.57826847,-0.00968824,-0.02900876,-0.81527309
'00:10:02.424,0.059570,0.028809,1.002441,0.304878,1.219512,-0.609756,-4.437500,17.931250,19.768751,29.152,0.57827064,-0.00970521,-0.02901325,-0.81527119
'00:10:02.434,0.060547,0.029785,1.003418,0.182927,1.158537,-0.548781,-4.718750,18.318750,19.993750,29.091,0.57826485,-0.00972190,-0.02900743,-0.81527530
'00:10:02.444,0.060547,0.029297,1.001953,0.182927,1.097561,-0.609756,-4.718750,18.318750,19.993750,29.091,0.57825466,-0.00974482,-0.02900267,-0.81528242
'00:10:02.454,0.060059,0.029297,1.002930,0.243902,1.219512,-0.548781,-4.918750,18.562500,20.262501,29.121,0.57824021,-0.00974497,-0.02898373,-0.81529334
'00:10:02.464,0.059570,0.029785,1.001465,0.243902,1.219512,-0.609756,-4.412500,17.925001,19.837500,29.136,0.57824347,-0.00976214,-0.02899208,-0.81529053
'00:10:02.474,0.060059,0.029297,1.003906,0.243902,1.158537,-0.609756,-4.412500,17.925001,19.837500,29.091,0.57824662,-0.00978762,-0.02900144,-0.81528766
'00:10:02.484,0.059570,0.029785,1.002441,0.182927,1.158537,-0.548781,-4.450000,17.856251,19.843750,29.121,0.57824970,-0.00980814,-0.02900311,-0.81528516
'00:10:02.494,0.059082,0.029297,1.002930,0.243902,1.158537,-0.609756,-4.450000,17.856251,19.843750,29.076,0.57824859,-0.00982423,-0.02900405,-0.81528573
'00:10:02.504,0.060059,0.028320,1.004395,0.304878,1.219512,-0.609756,-4.456250,17.956251,19.906250,29.091,0.57824933,-0.00984299,-0.02900551,-0.81528492
'00:10:02.514,0.060547,0.029297,1.002441,0.304878,1.402439,-0.548781,-4.456250,17.956251,19.906250,29.167,0.57825458,-0.00984777,-0.02900610,-0.81528112
'00:10:02.524,0.060059,0.028809,1.001953,0.487805,1.463415,-0.609756,-4.650000,18.231251,20.025000,29.121,0.57824811,-0.00982980,-0.02900284,-0.81528605
'00:10:02.534,0.060059,0.028809,1.004395,0.548781,1.646341,-0.670732,-4.650000,18.231251,20.025000,29.152,0.57823789,-0.00979538,-0.02899386,-0.81529403
'00:10:02.545,0.059082,0.029297,1.003418,0.609756,1.646341,-0.609756,-4.743750,18.337500,20.187500,29.152,0.57822640,-0.00974272,-0.02898248,-0.81530321
'00:10:02.554,0.058594,0.029785,1.002930,0.487805,1.524390,-0.548781,-4.743750,18.337500,20.187500,29.091,0.57822057,-0.00970974,-0.02897207,-0.81530811
'00:10:02.564,0.058594,0.028809,1.003906,0.304878,1.280488,-0.548781,-4.481250,17.931250,19.887501,29.136,0.57822391,-0.00971408,-0.02896583,-0.81530591
'00:10:02.574,0.059082,0.028320,1.004883,0.182927,1.158537,-0.548781,-4.481250,17.931250,19.887501,29.106,0.57822693,-0.00973774,-0.02895592,-0.81530384
'00:10:02.584,0.058594,0.028320,1.003418,0.182927,1.158537,-0.548781,-4.462500,17.962500,19.850000,29.121,0.57823207,-0.00976009,-0.02894703,-0.81530024
'00:10:02.594,0.060059,0.029297,1.001953,0.304878,1.280488,-0.548781,-4.462500,17.962500,19.850000,29.121,0.57823729,-0.00977186,-0.02895296,-0.81529619
'00:10:02.604,0.059570,0.028809,1.003418,0.487805,1.402439,-0.609756,-4.437500,17.912500,19.837500,29.152,0.57823943,-0.00976523,-0.02896114,-0.81529446
'00:10:02.614,0.059570,0.029785,1.003906,0.426829,1.463415,-0.609756,-4.437500,17.912500,19.837500,29.121,0.57824146,-0.00975328,-0.02896725,-0.81529295
'00:10:02.624,0.059082,0.029297,1.003906,0.365854,1.341463,-0.609756,-4.668750,18.225000,20.031250,29.106,0.57823337,-0.00974264,-0.02895882,-0.81529911
'00:10:02.634,0.059570,0.029297,1.002930,0.243902,1.280488,-0.548781,-4.668750,18.225000,20.031250,29.106,0.57822940,-0.00974578,-0.02894729,-0.81530230
'00:10:02.644,0.058594,0.028809,1.002441,0.182927,1.158537,-0.548781,-4.656250,18.243750,20.056250,29.136,0.57822638,-0.00975832,-0.02893256,-0.81530481
'00:10:02.654,0.059082,0.028320,1.003418,0.182927,1.158537,-0.548781,-4.656250,18.243750,20.056250,29.136,0.57822347,-0.00977521,-0.02891684,-0.81530723
'00:10:02.664,0.061035,0.028320,1.001953,0.487805,1.463415,-0.548781,-4.425000,17.912500,19.850000,29.091,0.57823105,-0.00977595,-0.02892722,-0.81530148
'00:10:02.674,0.059082,0.028809,1.002930,0.731707,1.829268,-0.670732,-4.425000,17.912500,19.850000,29.091,0.57823105,-0.00972471,-0.02893089,-0.81530196
'00:10:02.684,0.059082,0.029785,1.004395,0.731707,1.707317,-0.609756,-4.412500,17.912500,19.818750,29.167,0.57823598,-0.00967945,-0.02894685,-0.81529844
'00:10:02.694,0.059082,0.029785,1.003906,0.365854,1.341463,-0.609756,-4.412500,17.912500,19.818750,29.091,0.57823971,-0.00967941,-0.02895525,-0.81529549
'00:10:02.704,0.058594,0.029297,1.004395,0.182927,1.097561,-0.548781,-4.450000,17.993750,19.843750,29.136,0.57824615,-0.00970392,-0.02895648,-0.81529059
'00:10:02.714,0.059570,0.030273,1.004395,0.000000,0.975610,-0.548781,-4.450000,17.993750,19.843750,29.121,0.57825181,-0.00974741,-0.02896038,-0.81528592
'00:10:02.724,0.059082,0.029785,1.002441,0.060976,1.036585,-0.548781,-4.375000,17.906250,19.812500,29.121,0.57826117,-0.00978605,-0.02896551,-0.81527864
'00:10:02.734,0.059082,0.028809,1.000977,0.304878,1.280488,-0.609756,-4.656250,18.268751,20.100000,29.106,0.57825435,-0.00978635,-0.02895585,-0.81528381
'00:10:02.744,0.058594,0.028809,1.002930,0.670732,1.646341,-0.609756,-4.656250,18.268751,20.100000,29.121,0.57824884,-0.00973907,-0.02895119,-0.81528845
'00:10:02.754,0.059082,0.029785,1.003906,0.853659,1.768293,-0.609756,-4.531250,18.118750,19.937500,29.136,0.57824964,-0.00967857,-0.02896743,-0.81528803
'00:10:02.764,0.059570,0.029297,1.003906,0.792683,1.768293,-0.548781,-4.531250,18.118750,19.937500,29.152,0.57825488,-0.00962697,-0.02897828,-0.81528454
'00:10:02.774,0.058594,0.030762,1.004395,0.609756,1.585366,-0.609756,-4.393750,17.956251,19.812500,29.121,0.57826154,-0.00959283,-0.02899719,-0.81527954
'00:10:02.784,0.057129,0.030273,1.003906,0.121951,1.158537,-0.548781,-4.393750,17.956251,19.812500,29.152,0.57827123,-0.00960804,-0.02899401,-0.81527260
'00:10:02.794,0.058105,0.029785,1.002930,0.060976,1.036585,-0.609756,-4.400000,17.931250,19.875000,29.121,0.57827496,-0.00964180,-0.02899301,-0.81526959
'00:10:02.804,0.059082,0.029785,1.002930,0.121951,1.036585,-0.487805,-4.400000,17.931250,19.875000,29.121,0.57828729,-0.00967784,-0.02900017,-0.81526016
'00:10:02.814,0.060059,0.028809,1.001465,0.121951,1.158537,-0.548781,-4.412500,17.912500,19.818750,29.091,0.57829457,-0.00971314,-0.02899861,-0.81525464
'00:10:02.824,0.060059,0.029297,1.001953,0.304878,1.280488,-0.609756,-4.412500,17.912500,19.818750,29.136,0.57829778,-0.00972770,-0.02900653,-0.81525191
'00:10:02.834,0.061035,0.029297,1.002441,0.365854,1.341463,-0.548781,-4.793750,18.487501,20.218750,29.121,0.57829033,-0.00972485,-0.02900159,-0.81525740
'00:10:02.844,0.059570,0.028809,1.003418,0.365854,1.402439,-0.609756,-4.793750,18.487501,20.218750,29.136,0.57827889,-0.00971125,-0.02898479,-0.81526628
'00:10:02.854,0.060059,0.029297,1.003418,0.426829,1.402439,-0.609756,-4.581250,18.187500,20.031250,29.106,0.57827603,-0.00970415,-0.02898726,-0.81526830
'00:10:02.864,0.058105,0.029297,1.003418,0.365854,1.341463,-0.609756,-4.581250,18.187500,20.031250,29.152,0.57827306,-0.00969360,-0.02898057,-0.81527077
'00:10:02.874,0.058594,0.029297,1.004395,0.243902,1.219512,-0.548781,-4.418750,17.906250,19.843750,29.152,0.57827995,-0.00970685,-0.02897993,-0.81526575
'00:10:02.884,0.061035,0.027344,1.002930,0.304878,1.219512,-0.548781,-4.418750,17.906250,19.843750,29.121,0.57828714,-0.00973906,-0.02898274,-0.81526017
'00:10:02.894,0.060059,0.027832,1.002441,0.731707,1.768293,-0.670732,-4.400000,17.950001,19.925001,29.182,0.57828920,-0.00970451,-0.02898952,-0.81525887
'00:10:02.904,0.059082,0.029297,1.003906,0.853659,1.890244,-0.670732,-4.400000,17.950001,19.925001,29.182,0.57829146,-0.00964369,-0.02900274,-0.81525752
'00:10:02.914,0.056641,0.031250,1.005859,0.487805,1.463415,-0.609756,-4.412500,17.956251,19.918751,29.121,0.57829574,-0.00960947,-0.02901109,-0.81525460
'00:10:02.924,0.060059,0.028320,1.001953,0.243902,1.158537,-0.609756,-4.412500,17.956251,19.918751,29.136,0.57829952,-0.00964230,-0.02901583,-0.81525136
'00:10:02.934,0.060547,0.030273,1.002930,0.426829,1.341463,-0.609756,-4.431250,17.962500,19.850000,29.106,0.57830249,-0.00964546,-0.02903595,-0.81524849
'00:10:02.944,0.060547,0.028809,1.001953,0.426829,1.402439,-0.609756,-4.431250,17.962500,19.850000,29.167,0.57830588,-0.00965046,-0.02904454,-0.81524573
'00:10:02.955,0.060547,0.029785,1.002441,0.304878,1.219512,-0.609756,-4.712500,18.306250,20.150000,29.076,0.57829442,-0.00965876,-0.02904396,-0.81525378
'00:10:02.964,0.060059,0.029297,1.003906,0.304878,1.219512,-0.548781,-4.712500,18.306250,20.150000,29.091,0.57828907,-0.00966466,-0.02903868,-0.81525769
'00:10:02.974,0.060059,0.029297,1.003906,0.304878,1.219512,-0.548781,-4.437500,17.993750,19.875000,29.091,0.57829631,-0.00968356,-0.02904792,-0.81525200
'00:10:02.984,0.060547,0.028809,1.002441,0.426829,1.402439,-0.548781,-4.475000,18.025000,19.912500,29.136,0.57830202,-0.00968617,-0.02905379,-0.81524771
'00:10:02.994,0.059570,0.029297,1.003906,0.487805,1.463415,-0.609756,-4.475000,18.025000,19.912500,29.106,0.57830352,-0.00967330,-0.02905911,-0.81524661
'00:10:03.004,0.058594,0.029785,1.003418,0.182927,1.158537,-0.548781,-4.418750,17.943750,19.825001,29.121,0.57831079,-0.00969267,-0.02905994,-0.81524120
'00:10:03.015,0.059570,0.028320,1.003906,0.182927,1.097561,-0.548781,-4.418750,17.943750,19.825001,29.152,0.57831885,-0.00973103,-0.02905893,-0.81523505
'00:10:03.024,0.059082,0.029297,1.003906,0.304878,1.219512,-0.548781,-4.412500,17.950001,19.787500,29.106,0.57832622,-0.00974274,-0.02906428,-0.81522949
'00:10:03.034,0.059082,0.029785,1.003906,0.609756,1.585366,-0.609756,-4.412500,17.950001,19.787500,29.106,0.57833111,-0.00971198,-0.02907619,-0.81522597
'00:10:03.044,0.057129,0.030762,1.004883,0.609756,1.646341,-0.670732,-5.031250,18.750000,20.368750,29.167,0.57830518,-0.00963734,-0.02905218,-0.81524610
'00:10:03.054,0.060547,0.027832,1.001465,0.121951,1.097561,-0.548781,-5.031250,18.750000,20.368750,29.121,0.57828692,-0.00965868,-0.02902015,-0.81525994
'00:10:03.064,0.061035,0.028809,1.001953,0.487805,1.463415,-0.548781,-4.631250,18.187500,20.000000,29.106,0.57828539,-0.00964964,-0.02902124,-0.81526110
'00:10:03.074,0.058105,0.029785,1.003906,0.365854,1.402439,-0.609756,-4.631250,18.187500,20.000000,29.136,0.57827919,-0.00963030,-0.02900984,-0.81526613
'00:10:03.084,0.061523,0.028809,1.002441,0.243902,1.219512,-0.548781,-4.418750,17.975000,19.837500,29.167,0.57828760,-0.00966435,-0.02902020,-0.81525940
'00:10:03.094,0.059082,0.030273,1.003418,0.426829,1.463415,-0.609756,-4.418750,17.975000,19.837500,29.167,0.57829216,-0.00965105,-0.02902926,-0.81525600
'00:10:03.104,0.060059,0.028809,1.003906,0.243902,1.158537,-0.548781,-4.443750,18.000000,19.881250,29.152,0.57829900,-0.00967929,-0.02903422,-0.81525063
'00:10:03.114,0.061035,0.029297,1.001465,0.426829,1.402439,-0.609756,-4.443750,18.000000,19.881250,29.121,0.57830202,-0.00968439,-0.02904757,-0.81524795
'00:10:03.124,0.057129,0.031250,1.005859,0.365854,1.402439,-0.609756,-4.418750,17.912500,19.806250,29.106,0.57830489,-0.00966151,-0.02905024,-0.81524609
'00:10:03.134,0.060059,0.027832,1.001465,0.426829,1.341463,-0.548781,-4.418750,17.912500,19.806250,29.106,0.57831259,-0.00967216,-0.02905408,-0.81524037
'00:10:03.144,0.059082,0.030273,1.002441,0.243902,1.158537,-0.548781,-4.656250,18.300001,20.093750,29.152,0.57831003,-0.00967991,-0.02905324,-0.81524212
'00:10:03.154,0.059082,0.029785,1.002930,0.426829,1.402439,-0.609756,-4.656250,18.300001,20.093750,29.136,0.57830402,-0.00966273,-0.02905018,-0.81524670
'00:10:03.164,0.059082,0.029297,1.001953,0.243902,1.280488,-0.548781,-4.812500,18.450001,20.093750,29.136,0.57829483,-0.00965872,-0.02902964,-0.81525400
'00:10:03.175,0.059082,0.028809,1.004395,0.365854,1.341463,-0.609756,-4.812500,18.450001,20.093750,29.167,0.57828045,-0.00964434,-0.02900959,-0.81526508
'00:10:03.184,0.061035,0.029297,1.003418,0.304878,1.280488,-0.548781,-4.418750,17.956251,19.887501,29.121,0.57828756,-0.00966358,-0.02901997,-0.81525944
'00:10:03.196,0.058105,0.029785,1.004395,0.487805,1.402439,-0.670732,-4.418750,17.956251,19.887501,29.121,0.57828716,-0.00964433,-0.02903049,-0.81525958
'00:10:03.204,0.060059,0.027832,1.002441,0.365854,1.341463,-0.609756,-4.462500,18.075001,19.893751,29.121,0.57829002,-0.00965487,-0.02903014,-0.81525743
'00:10:03.215,0.059570,0.028809,1.003906,0.365854,1.280488,-0.548781,-4.462500,18.075001,19.893751,29.167,0.57829834,-0.00966630,-0.02903634,-0.81525118
'00:10:03.224,0.059082,0.029297,1.002930,0.426829,1.402439,-0.548781,-4.412500,17.950001,19.893751,29.076,0.57830602,-0.00966223,-0.02904183,-0.81524559
'00:10:03.235,0.058594,0.029297,1.002930,0.365854,1.280488,-0.548781,-4.562500,18.156250,19.950001,29.152,0.57830822,-0.00965983,-0.02904021,-0.81524411
'00:10:03.244,0.058594,0.030273,1.004395,0.365854,1.341463,-0.548781,-4.562500,18.156250,19.950001,29.121,0.57830999,-0.00965012,-0.02904066,-0.81524295
'00:10:03.255,0.059082,0.030273,1.003418,0.426829,1.463415,-0.609756,-4.768750,18.406250,20.162500,29.136,0.57829745,-0.00961900,-0.02903011,-0.81525259
'00:10:03.266,0.059570,0.028809,1.001953,0.365854,1.341463,-0.548781,-4.768750,18.406250,20.162500,29.136,0.57828973,-0.00961136,-0.02901546,-0.81525868
'00:10:03.274,0.059570,0.029297,1.003418,0.304878,1.341463,-0.609756,-4.500000,18.000000,19.850000,29.152,0.57828913,-0.00961483,-0.02901316,-0.81525915
'00:10:03.284,0.060059,0.029785,1.003906,0.365854,1.341463,-0.609756,-4.500000,18.000000,19.850000,29.136,0.57828831,-0.00961667,-0.02901925,-0.81525949
'00:10:03.294,0.059570,0.030273,1.002441,0.426829,1.402439,-0.548781,-4.437500,17.918751,19.856251,29.121,0.57829447,-0.00960971,-0.02903104,-0.81525478
'00:10:03.304,0.059082,0.029297,1.003906,0.304878,1.280488,-0.609756,-4.437500,17.918751,19.856251,29.106,0.57829610,-0.00961845,-0.02903187,-0.81525349
'00:10:03.314,0.059082,0.029785,1.003418,0.426829,1.341463,-0.609756,-4.462500,17.862501,19.806250,29.121,0.57829507,-0.00961217,-0.02903816,-0.81525407
'00:10:03.324,0.059082,0.029297,1.002441,0.426829,1.402439,-0.609756,-4.462500,17.862501,19.806250,29.136,0.57829430,-0.00960389,-0.02903886,-0.81525469
'00:10:03.335,0.059570,0.029785,1.002930,0.304878,1.280488,-0.548781,-4.462500,17.956251,19.781250,29.136,0.57830004,-0.00961335,-0.02904427,-0.81525032
'00:10:03.344,0.059570,0.030273,1.002930,0.365854,1.341463,-0.609756,-4.462500,17.956251,19.781250,29.167,0.57830088,-0.00961232,-0.02905230,-0.81524945
'00:10:03.354,0.058594,0.028809,1.002930,0.365854,1.341463,-0.609756,-4.756250,18.450001,20.168751,29.152,0.57829127,-0.00960096,-0.02903629,-0.81525697
'00:10:03.366,0.060547,0.028320,1.002930,0.304878,1.280488,-0.609756,-4.756250,18.450001,20.168751,29.121,0.57827964,-0.00961183,-0.02902195,-0.81526560
'00:10:03.376,0.059570,0.029297,1.003906,0.304878,1.280488,-0.609756,-4.593750,18.206251,19.993750,29.091,0.57827621,-0.00961755,-0.02901884,-0.81526807
'00:10:03.384,0.059082,0.030273,1.004883,0.426829,1.402439,-0.548781,-4.593750,18.206251,19.993750,29.091,0.57827712,-0.00960481,-0.02902096,-0.81526750
'00:10:03.394,0.059570,0.029297,1.002930,0.365854,1.402439,-0.609756,-4.431250,17.918751,19.825001,29.152,0.57827974,-0.00960525,-0.02902318,-0.81526556
'00:10:03.404,0.059082,0.030762,1.002441,0.365854,1.280488,-0.548781,-4.431250,17.918751,19.825001,29.106,0.57828607,-0.00960574,-0.02903820,-0.81526053
'00:10:03.415,0.060059,0.029297,1.002930,0.426829,1.341463,-0.609756,-4.468750,17.993750,19.875000,29.152,0.57828744,-0.00960913,-0.02904906,-0.81525913
'00:10:03.424,0.059082,0.029297,1.003906,0.426829,1.341463,-0.609756,-4.468750,17.993750,19.875000,29.121,0.57828858,-0.00960667,-0.02905384,-0.81525818
'00:10:03.434,0.059082,0.028809,1.004395,0.426829,1.341463,-0.609756,-4.450000,17.943750,19.800001,29.152,0.57829047,-0.00960623,-0.02905660,-0.81525675
'00:10:03.444,0.060059,0.029297,1.001953,0.304878,1.341463,-0.609756,-4.450000,17.943750,19.800001,29.136,0.57829208,-0.00961596,-0.02905842,-0.81525543
'00:10:03.454,0.058594,0.029785,1.002441,0.304878,1.280488,-0.609756,-4.556250,18.218750,19.950001,29.152,0.57829148,-0.00961672,-0.02905740,-0.81525588
'00:10:03.464,0.058594,0.029785,1.004395,0.243902,1.280488,-0.609756,-4.556250,18.218750,19.950001,29.106,0.57829085,-0.00962015,-0.02905127,-0.81525650
'00:10:03.474,0.058594,0.029785,1.003906,0.304878,1.280488,-0.609756,-4.818750,18.462500,20.231251,29.152,0.57827674,-0.00960860,-0.02903464,-0.81526724
'00:10:03.484,0.060547,0.028809,1.002930,0.365854,1.341463,-0.609756,-4.818750,18.462500,20.231251,29.152,0.57826308,-0.00960483,-0.02902223,-0.81527742
'00:10:03.496,0.059570,0.029297,1.003906,0.426829,1.341463,-0.548781,-4.400000,17.912500,19.818750,29.152,0.57827387,-0.00960915,-0.02903612,-0.81526922
'00:10:03.504,0.059570,0.029297,1.001953,0.365854,1.341463,-0.609756,-4.400000,17.912500,19.818750,29.152,0.57827748,-0.00961461,-0.02904238,-0.81526637
'00:10:03.514,0.059082,0.029297,1.003418,0.304878,1.341463,-0.548781,-4.450000,17.956251,19.856251,29.121,0.57828358,-0.00961891,-0.02904000,-0.81526208
'00:10:03.524,0.059082,0.030273,1.003418,0.365854,1.341463,-0.548781,-4.412500,17.912500,19.818750,29.121,0.57829131,-0.00961774,-0.02904975,-0.81525626
'00:10:03.536,0.059082,0.028809,1.002441,0.365854,1.341463,-0.609756,-4.412500,17.912500,19.818750,29.106,0.57829573,-0.00962367,-0.02905151,-0.81525300
'00:10:03.544,0.058594,0.028809,1.002930,0.304878,1.280488,-0.609756,-4.562500,18.118750,19.950001,29.136,0.57829332,-0.00962596,-0.02904393,-0.81525495
'00:10:03.554,0.059082,0.029785,1.002930,0.304878,1.280488,-0.609756,-4.562500,18.118750,19.950001,29.091,0.57829010,-0.00962755,-0.02904219,-0.81525727
'00:10:03.564,0.060059,0.029297,1.004883,0.304878,1.341463,-0.609756,-4.693750,18.393751,20.075001,29.136,0.57828367,-0.00962762,-0.02903351,-0.81526214
'00:10:03.576,0.060547,0.029297,1.002930,0.365854,1.280488,-0.548781,-4.693750,18.393751,20.075001,29.121,0.57828104,-0.00963319,-0.02903539,-0.81526388
'00:10:03.584,0.060547,0.029297,1.003906,0.304878,1.219512,-0.548781,-4.506250,17.950001,19.850000,29.121,0.57828236,-0.00964691,-0.02903939,-0.81526263
'00:10:03.594,0.060059,0.029297,1.002930,0.304878,1.280488,-0.609756,-4.506250,17.950001,19.850000,29.121,0.57827982,-0.00965682,-0.02903971,-0.81526431
'00:10:03.604,0.060059,0.029785,1.002441,0.304878,1.280488,-0.609756,-4.493750,18.000000,19.893751,29.136,0.57827893,-0.00966623,-0.02904504,-0.81526464
'00:10:03.616,0.058594,0.030273,1.002441,0.304878,1.280488,-0.548781,-4.493750,18.000000,19.893751,29.106,0.57828298,-0.00966514,-0.02904752,-0.81526169
'00:10:03.624,0.059082,0.030273,1.003418,0.304878,1.341463,-0.609756,-4.468750,17.925001,19.868750,29.121,0.57828248,-0.00966331,-0.02904826,-0.81526204
'00:10:03.634,0.058105,0.029785,1.002441,0.304878,1.341463,-0.609756,-4.468750,17.925001,19.868750,29.152,0.57828199,-0.00965772,-0.02904276,-0.81526265
'00:10:03.644,0.058105,0.029297,1.002930,0.426829,1.341463,-0.609756,-4.468750,18.062500,19.912500,29.121,0.57828458,-0.00964990,-0.02904598,-0.81526079
'00:10:03.656,0.059082,0.029785,1.002930,0.426829,1.341463,-0.609756,-4.468750,18.062500,19.912500,29.136,0.57828751,-0.00964488,-0.02905795,-0.81525834
'00:10:03.664,0.060547,0.029297,1.004395,0.304878,1.280488,-0.548781,-4.581250,18.118750,19.937500,29.106,0.57828743,-0.00965300,-0.02905717,-0.81525833
'00:10:03.675,0.058594,0.029297,1.003906,0.365854,1.280488,-0.487805,-4.581250,18.118750,19.937500,29.136,0.57829220,-0.00964889,-0.02905239,-0.81525517
'00:10:03.684,0.060547,0.029785,1.002930,0.365854,1.280488,-0.609756,-4.693750,18.318750,20.175001,29.182,0.57828432,-0.00965019,-0.02905427,-0.81526067
'00:10:03.696,0.060547,0.030273,1.001953,0.365854,1.280488,-0.548781,-4.693750,18.318750,20.175001,29.152,0.57827890,-0.00964997,-0.02906054,-0.81526430
'00:10:03.704,0.060059,0.030273,1.003906,0.426829,1.402439,-0.609756,-4.412500,17.981251,19.800001,29.197,0.57828296,-0.00964759,-0.02907333,-0.81526099
'00:10:03.714,0.060059,0.030273,1.003906,0.426829,1.402439,-0.609756,-4.412500,17.981251,19.800001,29.197,0.57828801,-0.00964460,-0.02908908,-0.81525689
'00:10:03.724,0.060547,0.028809,1.001953,0.365854,1.341463,-0.548781,-4.418750,17.943750,19.768751,29.106,0.57829628,-0.00965745,-0.02909628,-0.81525061
'00:10:03.735,0.059082,0.030273,1.002441,0.243902,1.341463,-0.548781,-4.418750,17.943750,19.768751,29.091,0.57830493,-0.00966219,-0.02909708,-0.81524438
'00:10:03.744,0.058594,0.028809,1.003906,0.365854,1.402439,-0.609756,-4.406250,17.875000,19.818750,29.167,0.57830787,-0.00965914,-0.02909214,-0.81524251
'00:10:03.754,0.059570,0.029785,1.003418,0.365854,1.341463,-0.548781,-4.406250,17.875000,19.818750,29.091,0.57831505,-0.00966189,-0.02909965,-0.81523712
'00:10:03.764,0.060547,0.029297,1.003418,0.304878,1.219512,-0.548781,-4.618750,18.237501,20.093750,29.152,0.57831398,-0.00967576,-0.02910068,-0.81523768
'00:10:03.776,0.059570,0.029297,1.003418,0.304878,1.341463,-0.609756,-4.625000,18.231251,19.937500,29.152,0.57830797,-0.00967399,-0.02908963,-0.81524235
'00:10:03.784,0.059570,0.029297,1.003418,0.304878,1.341463,-0.609756,-4.625000,18.231251,19.937500,29.152,0.57830400,-0.00967286,-0.02908243,-0.81524544
'00:10:03.794,0.058594,0.029785,1.003418,0.304878,1.341463,-0.548781,-4.412500,17.912500,19.806250,29.106,0.57831162,-0.00967299,-0.02908216,-0.81524004
'00:10:03.804,0.060059,0.029297,1.002441,0.365854,1.341463,-0.548781,-4.412500,17.912500,19.806250,29.136,0.57831930,-0.00968057,-0.02908971,-0.81523424
'00:10:03.816,0.059082,0.029785,1.001465,0.365854,1.402439,-0.548781,-4.425000,17.925001,19.837500,29.182,0.57832767,-0.00967478,-0.02909306,-0.81522825
'00:10:03.824,0.059570,0.031250,1.000488,0.304878,1.341463,-0.548781,-4.425000,17.925001,19.837500,29.152,0.57833277,-0.00967440,-0.02910298,-0.81522428
'00:10:03.834,0.058594,0.029297,1.002930,0.365854,1.341463,-0.548781,-4.450000,17.956251,19.825001,29.121,0.57833866,-0.00967166,-0.02910190,-0.81522017
'00:10:03.844,0.059570,0.028809,1.003418,0.365854,1.280488,-0.609756,-4.450000,17.956251,19.825001,29.167,0.57834012,-0.00968056,-0.02910489,-0.81521893
'00:10:03.856,0.060547,0.029297,1.003418,0.365854,1.341463,-0.609756,-4.581250,18.125000,19.925001,29.136,0.57833488,-0.00968301,-0.02910474,-0.81522262
'00:10:03.864,0.060547,0.029297,1.003418,0.365854,1.341463,-0.609756,-4.581250,18.125000,19.925001,29.136,0.57833139,-0.00968462,-0.02910465,-0.81522508
'00:10:03.875,0.059570,0.029297,1.002930,0.365854,1.402439,-0.548781,-4.725000,18.325001,20.093750,29.121,0.57832491,-0.00967001,-0.02908943,-0.81523040
'00:10:03.884,0.060059,0.029785,1.003418,0.426829,1.463415,-0.609756,-4.725000,18.325001,20.093750,29.121,0.57831585,-0.00965206,-0.02908248,-0.81523728
'00:10:03.895,0.058594,0.030273,1.003418,0.426829,1.402439,-0.548781,-4.431250,17.937500,19.868750,29.121,0.57832326,-0.00963797,-0.02909025,-0.81523191
'00:10:03.904,0.059082,0.029297,1.001465,0.426829,1.341463,-0.609756,-4.431250,17.937500,19.868750,29.091,0.57832544,-0.00963690,-0.02909670,-0.81523015
'00:10:03.914,0.059570,0.028809,1.002441,0.304878,1.341463,-0.548781,-4.468750,18.000000,19.818750,29.121,0.57833111,-0.00964484,-0.02909234,-0.81522619
'00:10:03.924,0.058105,0.030273,1.003906,0.365854,1.341463,-0.548781,-4.468750,18.000000,19.818750,29.136,0.57833658,-0.00963495,-0.02909431,-0.81522236
'00:10:03.934,0.058594,0.029785,1.003418,0.365854,1.402439,-0.548781,-4.400000,17.918751,19.825001,29.106,0.57834529,-0.00962908,-0.02909613,-0.81521618
'00:10:03.944,0.060547,0.028809,1.003418,0.426829,1.402439,-0.609756,-4.400000,17.918751,19.825001,29.136,0.57834982,-0.00963519,-0.02910455,-0.81521260
'00:10:03.954,0.059570,0.028320,1.003906,0.426829,1.463415,-0.609756,-4.431250,18.012501,19.837500,29.152,0.57835442,-0.00963240,-0.02910230,-0.81520944
'00:10:03.964,0.060547,0.028320,1.004395,0.426829,1.402439,-0.609756,-4.431250,18.012501,19.837500,29.182,0.57835882,-0.00963938,-0.02910692,-0.81520607
'00:10:03.976,0.059570,0.028809,1.004395,0.426829,1.402439,-0.609756,-4.662500,18.306250,20.025000,29.091,0.57835163,-0.00962631,-0.02909685,-0.81521169
'00:10:03.984,0.060547,0.028320,1.003906,0.304878,1.341463,-0.609756,-4.662500,18.306250,20.025000,29.121,0.57834673,-0.00963217,-0.02908689,-0.81521545
'00:10:03.994,0.057129,0.029785,1.001953,0.365854,1.280488,-0.609756,-4.593750,18.175001,20.062500,29.106,0.57834198,-0.00961857,-0.02907959,-0.81521924
'00:10:04.004,0.057617,0.030273,1.002441,0.304878,1.219512,-0.609756,-4.593750,18.175001,20.062500,29.106,0.57833696,-0.00961328,-0.02907579,-0.81522300
'00:10:04.014,0.059570,0.030273,1.001953,0.304878,1.219512,-0.548781,-4.437500,17.912500,19.775000,29.106,0.57834250,-0.00962508,-0.02908726,-0.81521852
'00:10:04.024,0.059082,0.029785,1.002930,0.304878,1.219512,-0.609756,-4.437500,17.912500,19.775000,29.182,0.57834378,-0.00963554,-0.02909332,-0.81521728
'00:10:04.034,0.058594,0.029297,1.002930,0.365854,1.219512,-0.548781,-4.350000,17.900000,19.806250,29.136,0.57835533,-0.00964773,-0.02910534,-0.81520851
'00:10:04.044,0.059082,0.030273,1.001953,0.365854,1.341463,-0.670732,-4.393750,17.906250,19.781250,29.167,0.57835532,-0.00964679,-0.02911583,-0.81520815
'00:10:04.056,0.060547,0.029785,1.002930,0.304878,1.341463,-0.548781,-4.393750,17.906250,19.781250,29.167,0.57836568,-0.00966187,-0.02912613,-0.81520026
'00:10:04.064,0.060059,0.030273,1.003418,0.304878,1.341463,-0.548781,-4.675000,18.312500,20.081251,29.152,0.57836304,-0.00965851,-0.02912237,-0.81520230
'00:10:04.074,0.060059,0.028320,1.003418,0.304878,1.280488,-0.548781,-4.675000,18.312500,20.081251,29.136,0.57836003,-0.00966662,-0.02910970,-0.81520479
'00:10:04.084,0.060059,0.030273,1.001953,0.304878,1.280488,-0.548781,-4.750000,18.337500,20.081251,29.152,0.57835213,-0.00966288,-0.02910383,-0.81521065
'00:10:04.094,0.060059,0.029785,1.003418,0.304878,1.280488,-0.609756,-4.750000,18.337500,20.081251,29.152,0.57834006,-0.00966073,-0.02909479,-0.81521956
'00:10:04.104,0.058105,0.028320,1.005859,0.365854,1.341463,-0.548781,-4.462500,17.987501,19.837500,29.121,0.57834599,-0.00965847,-0.02908472,-0.81521575
'00:10:04.114,0.059570,0.028809,1.003906,0.304878,1.280488,-0.609756,-4.462500,17.987501,19.837500,29.121,0.57834719,-0.00967019,-0.02908315,-0.81521481
'00:10:04.124,0.058594,0.029297,1.002441,0.304878,1.341463,-0.548781,-4.456250,17.912500,19.837500,29.106,0.57835156,-0.00966974,-0.02907670,-0.81521194
'00:10:04.134,0.060059,0.029785,1.002930,0.365854,1.341463,-0.609756,-4.456250,17.912500,19.837500,29.136,0.57835149,-0.00967226,-0.02908334,-0.81521173
'00:10:04.144,0.060547,0.030273,1.004395,0.365854,1.341463,-0.609756,-4.493750,17.900000,19.806250,29.136,0.57834852,-0.00967251,-0.02909086,-0.81521356
'00:10:04.154,0.059570,0.028320,1.004395,0.426829,1.280488,-0.548781,-4.493750,17.900000,19.806250,29.152,0.57835025,-0.00967670,-0.02909038,-0.81521231
'00:10:04.164,0.062012,0.027832,1.004883,0.304878,1.219512,-0.548781,-4.925000,18.531250,20.268751,29.121,0.57833470,-0.00968966,-0.02907167,-0.81522385
'00:10:04.174,0.060059,0.029785,1.001953,0.304878,1.219512,-0.609756,-4.925000,18.531250,20.268751,29.152,0.57831448,-0.00968458,-0.02905775,-0.81523875
'00:10:04.186,0.059082,0.029297,1.002930,0.426829,1.341463,-0.609756,-4.925000,18.562500,20.293751,29.121,0.57829167,-0.00965709,-0.02903682,-0.81525600
'00:10:04.194,0.059570,0.029297,1.003906,0.365854,1.341463,-0.609756,-4.925000,18.562500,20.293751,29.121,0.57827654,-0.00964361,-0.02902100,-0.81526746
'00:10:04.204,0.058594,0.030273,1.001953,0.365854,1.341463,-0.609756,-4.462500,17.956251,19.887501,29.152,0.57827713,-0.00963703,-0.02902654,-0.81526692
'00:10:04.214,0.057617,0.030273,1.001953,0.426829,1.463415,-0.609756,-4.462500,17.956251,19.887501,29.136,0.57827812,-0.00961323,-0.02902621,-0.81526651
'00:10:04.224,0.059082,0.028809,1.004395,0.426829,1.402439,-0.609756,-4.418750,17.918751,19.800001,29.182,0.57828189,-0.00961012,-0.02902829,-0.81526380
'00:10:04.234,0.059082,0.029297,1.004395,0.304878,1.280488,-0.609756,-4.418750,17.918751,19.800001,29.121,0.57828513,-0.00961984,-0.02903065,-0.81526130
'00:10:04.244,0.059570,0.029297,1.003906,0.304878,1.280488,-0.548781,-4.456250,17.918751,19.800001,29.167,0.57829001,-0.00963001,-0.02903209,-0.81525767
'00:10:04.254,0.060059,0.029785,1.002441,0.304878,1.280488,-0.548781,-4.456250,17.918751,19.800001,29.121,0.57829471,-0.00964106,-0.02903889,-0.81525396
'00:10:04.264,0.059570,0.029785,1.003906,0.304878,1.219512,-0.548781,-4.418750,17.875000,19.862501,29.121,0.57830065,-0.00965518,-0.02904789,-0.81524926
'00:10:04.274,0.060059,0.029785,1.002441,0.243902,1.158537,-0.548781,-4.418750,17.875000,19.862501,29.136,0.57830628,-0.00967955,-0.02905803,-0.81524462
'00:10:04.284,0.059082,0.029297,1.002441,-0.060976,0.975610,-0.548781,-4.662500,18.281250,20.068750,29.136,0.57830248,-0.00971887,-0.02903828,-0.81524755
'00:10:04.294,0.062012,0.026367,0.999512,0.487805,1.463415,-0.609756,-4.562500,18.075001,19.893751,29.136,0.57829955,-0.00972718,-0.02903292,-0.81524972
'00:10:04.304,0.055664,0.033691,1.007812,1.097561,2.195122,-0.731707,-4.562500,18.075001,19.893751,29.121,0.57828903,-0.00958497,-0.02904730,-0.81525835
'00:10:04.314,0.066406,0.023926,0.996094,0.426829,1.463415,-0.609756,-4.481250,17.950001,19.868750,29.152,0.57828954,-0.00963738,-0.02904627,-0.81525741
'00:10:04.324,0.058594,0.030762,1.002441,-0.121951,0.792683,-0.487805,-4.481250,17.950001,19.868750,29.121,0.57829544,-0.00969128,-0.02904530,-0.81525262
'00:10:04.335,0.055176,0.034180,1.006836,0.487805,1.524390,-0.670732,-4.400000,17.887501,19.818750,29.136,0.57829446,-0.00962452,-0.02906169,-0.81525352
'00:10:04.344,0.061523,0.028320,1.000488,0.487805,1.585366,-0.609756,-4.400000,17.887501,19.818750,29.212,0.57829863,-0.00962283,-0.02906705,-0.81525039
'00:10:04.354,0.061035,0.028320,1.002930,0.000000,1.036585,-0.487805,-4.518750,17.981251,19.843750,29.106,0.57830384,-0.00967510,-0.02905546,-0.81524649
'00:10:04.364,0.058594,0.029785,1.005371,0.365854,1.341463,-0.548781,-4.518750,17.981251,19.843750,29.152,0.57830550,-0.00966603,-0.02905223,-0.81524554
'00:10:04.374,0.060059,0.029297,1.003418,0.548781,1.585366,-0.548781,-4.556250,18.068750,19.962500,29.152,0.57830682,-0.00964031,-0.02905240,-0.81524490
'00:10:04.384,0.062012,0.028320,1.003418,0.365854,1.341463,-0.609756,-4.556250,18.068750,19.962500,29.136,0.57830321,-0.00965632,-0.02905419,-0.81524721
'00:10:04.394,0.058105,0.029785,1.006348,0.243902,1.280488,-0.609756,-4.687500,18.262501,20.125000,29.152,0.57829380,-0.00964892,-0.02903571,-0.81525463
'00:10:04.404,0.059570,0.031250,1.004395,0.243902,1.280488,-0.548781,-4.687500,18.262501,20.125000,29.152,0.57828843,-0.00964451,-0.02903256,-0.81525860
'00:10:04.414,0.058594,0.028809,1.000977,0.304878,1.280488,-0.609756,-4.437500,17.950001,19.818750,29.152,0.57829097,-0.00965289,-0.02903049,-0.81525678
'00:10:04.424,0.059570,0.028809,1.003418,0.243902,1.158537,-0.548781,-4.437500,17.950001,19.818750,29.106,0.57829743,-0.00967803,-0.02903318,-0.81525180
'00:10:04.434,0.060547,0.029297,1.002441,0.304878,1.219512,-0.609756,-4.450000,17.968750,19.906250,29.121,0.57829870,-0.00969861,-0.02904348,-0.81525028
'00:10:04.444,0.060059,0.028809,1.002930,0.304878,1.280488,-0.548781,-4.450000,17.968750,19.906250,29.152,0.57830453,-0.00971382,-0.02904541,-0.81524590
'00:10:04.454,0.060059,0.028809,1.002930,0.304878,1.280488,-0.548781,-4.443750,17.950001,19.868750,29.152,0.57831050,-0.00972881,-0.02904744,-0.81524142
'00:10:04.464,0.059570,0.029785,1.003906,0.304878,1.280488,-0.548781,-4.443750,17.950001,19.868750,29.136,0.57831623,-0.00973653,-0.02905267,-0.81523707
'00:10:04.474,0.060547,0.028320,1.003906,0.243902,1.219512,-0.548781,-4.737500,18.281250,20.087500,29.167,0.57830824,-0.00974955,-0.02903625,-0.81524317
'00:10:04.484,0.059570,0.028809,1.000977,0.426829,1.402439,-0.609756,-4.737500,18.281250,20.087500,29.136,0.57829647,-0.00973328,-0.02902399,-0.81525214
'00:10:04.494,0.060547,0.030273,1.002441,0.426829,1.402439,-0.609756,-4.737500,18.412500,20.168751,29.152,0.57828698,-0.00971840,-0.02902634,-0.81525897
'00:10:04.504,0.058594,0.029785,1.003418,0.365854,1.341463,-0.609756,-4.737500,18.412500,20.168751,29.121,0.57827750,-0.00970209,-0.02901651,-0.81526624
'00:10:04.514,0.057617,0.030273,1.004883,-0.243902,0.670732,-0.548781,-4.443750,17.937500,19.806250,29.121,0.57828141,-0.00976776,-0.02900854,-0.81526297
'00:10:04.524,0.062012,0.027832,1.001465,-0.365854,0.548781,-0.487805,-4.443750,17.937500,19.806250,29.152,0.57828941,-0.00988302,-0.02900306,-0.81525610
'00:10:04.534,0.063965,0.026855,1.000000,0.731707,1.768293,-0.609756,-4.475000,17.931250,19.825001,29.152,0.57829024,-0.00986737,-0.02901425,-0.81525530
'00:10:04.544,0.061523,0.029785,1.003906,1.890244,2.926829,-0.670732,-4.475000,17.931250,19.825001,29.091,0.57829018,-0.00968445,-0.02905473,-0.81525610
'00:10:04.554,0.060059,0.029297,1.005859,-0.670732,0.121951,-0.365854,-4.450000,17.943750,19.825001,29.121,0.57830499,-0.00982867,-0.02904672,-0.81524415
'00:10:04.564,0.062988,0.025391,1.000977,0.548781,1.524390,-0.609756,-4.668750,18.268751,20.068750,29.121,0.57829850,-0.00983309,-0.02903582,-0.81524909
'00:10:04.574,0.057129,0.031250,1.004395,0.975610,1.951220,-0.609756,-4.668750,18.268751,20.068750,29.167,0.57829246,-0.00972850,-0.02904251,-0.81525439
'00:10:04.584,0.061035,0.027832,1.001953,-0.060976,0.792683,-0.487805,-4.725000,18.243750,19.981251,29.167,0.57828810,-0.00979267,-0.02902653,-0.81525728
'00:10:04.594,0.061035,0.028320,1.003906,0.243902,1.219512,-0.609756,-4.725000,18.243750,19.981251,29.152,0.57827625,-0.00980750,-0.02901295,-0.81526599
'00:10:04.604,0.058594,0.030273,1.002441,0.426829,1.402439,-0.609756,-4.556250,18.093750,19.937500,29.136,0.57827306,-0.00978693,-0.02901498,-0.81526843
'00:10:04.614,0.059570,0.029297,1.002930,0.487805,1.463415,-0.609756,-4.556250,18.093750,19.937500,29.121,0.57827030,-0.00976869,-0.02901640,-0.81527056
'00:10:04.624,0.059082,0.030762,1.003906,0.975610,2.073171,-0.609756,-4.475000,17.962500,19.787500,29.167,0.57827262,-0.00967685,-0.02903165,-0.81526947
'00:10:04.634,0.062988,0.024414,0.999512,0.060976,0.914634,-0.548781,-4.475000,17.962500,19.787500,29.182,0.57827683,-0.00976389,-0.02902105,-0.81526582
'00:10:04.644,0.055664,0.032227,1.008301,0.426829,1.402439,-0.609756,-4.493750,17.968750,19.825001,29.121,0.57827549,-0.00972013,-0.02902241,-0.81526724
'00:10:04.654,0.060059,0.029297,1.000488,0.670732,1.646341,-0.609756,-4.493750,17.968750,19.825001,29.152,0.57827545,-0.00968599,-0.02903293,-0.81526730
'00:10:04.664,0.062012,0.028809,1.001465,0.121951,1.036585,-0.548781,-4.450000,18.018751,19.800001,29.167,0.57828205,-0.00973961,-0.02904429,-0.81526157
'00:10:04.674,0.059082,0.031250,1.004883,0.304878,1.280488,-0.548781,-4.450000,18.018751,19.800001,29.121,0.57828893,-0.00973857,-0.02905693,-0.81525626
'00:10:04.684,0.061035,0.028809,1.002930,0.487805,1.585366,-0.609756,-4.787500,18.443750,20.118750,29.121,0.57827776,-0.00971327,-0.02904442,-0.81526493
'00:10:04.695,0.062012,0.028809,1.000000,0.304878,1.280488,-0.609756,-4.787500,18.443750,20.118750,29.182,0.57826452,-0.00972651,-0.02903913,-0.81527435
'00:10:04.704,0.058594,0.028809,1.004395,0.365854,1.341463,-0.609756,-4.706250,18.287500,20.006250,29.197,0.57825625,-0.00971502,-0.02902482,-0.81528087
'00:10:04.714,0.058594,0.028320,1.003906,0.365854,1.402439,-0.609756,-4.706250,18.287500,20.006250,29.106,0.57824739,-0.00970022,-0.02900356,-0.81528808
'00:10:04.724,0.059570,0.028320,1.003418,0.182927,1.158537,-0.609756,-4.400000,17.968750,19.800001,29.136,0.57825281,-0.00973234,-0.02900309,-0.81528387
'00:10:04.734,0.058105,0.031250,1.003906,0.121951,1.158537,-0.548781,-4.400000,17.968750,19.800001,29.197,0.57826187,-0.00974662,-0.02900905,-0.81527706
'00:10:04.745,0.056641,0.031250,1.004883,-0.792683,0.182927,-0.487805,-4.406250,17.862501,19.806250,29.152,0.57826994,-0.00987774,-0.02898779,-0.81527052
'00:10:04.754,0.062500,0.029297,1.000488,-0.975610,0.000000,-0.487805,-4.406250,17.862501,19.806250,29.152,0.57827585,-0.01004139,-0.02897994,-0.81526461
'00:10:04.764,0.066406,0.020996,0.998535,0.975610,2.012195,-0.670732,-4.462500,17.818750,19.781250,29.136,0.57827262,-0.01003068,-0.02897148,-0.81526733
'00:10:04.774,0.061523,0.026855,1.004883,2.804878,3.963415,-0.853659,-4.462500,17.818750,19.781250,29.182,0.57826202,-0.00973615,-0.02900658,-0.81527717
'00:10:04.784,0.056152,0.034180,1.009766,-1.402439,-0.670732,-0.304878,-4.662500,18.256250,20.087500,29.106,0.57826884,-0.00992204,-0.02898769,-0.81527076
'00:10:04.794,0.062988,0.026855,0.999512,0.365854,1.280488,-0.487805,-4.662500,18.256250,20.087500,29.121,0.57827005,-0.00994687,-0.02898599,-0.81526966
'00:10:04.804,0.057617,0.033691,1.004883,0.731707,1.768293,-0.609756,-4.800000,18.412500,20.093750,29.136,0.57825701,-0.00985328,-0.02899406,-0.81527976
'00:10:04.814,0.054688,0.032715,1.005859,-1.219512,-0.304878,-0.426829,-4.800000,18.412500,20.093750,29.121,0.57825054,-0.00999473,-0.02895040,-0.81528418
'00:10:04.825,0.061035,0.027344,1.001465,-1.951220,-1.097561,-0.365854,-4.456250,17.837500,19.818750,29.152,0.57825922,-0.01032873,-0.02890126,-0.81527560
'00:10:04.834,0.065918,0.020996,0.997070,0.121951,1.097561,-0.609756,-4.525000,17.856251,19.737501,29.121,0.57825419,-0.01040694,-0.02887664,-0.81527905
'00:10:04.844,0.064941,0.023926,1.000000,2.865854,4.024390,-0.792683,-4.525000,17.856251,19.737501,29.182,0.57824482,-0.01012791,-0.02890895,-0.81528806
'00:10:04.854,0.055664,0.033203,1.010254,3.048780,4.207317,-0.914634,-4.450000,17.843750,19.825001,29.121,0.57823087,-0.00974285,-0.02896238,-0.81530076
'00:10:04.864,0.056641,0.031738,1.008301,-1.829268,-1.158537,-0.243902,-4.450000,17.843750,19.825001,29.152,0.57824779,-0.01000486,-0.02893514,-0.81528655
'00:10:04.874,0.060059,0.030273,1.000977,-2.256098,-1.585366,-0.304878,-4.656250,18.250000,20.031250,29.152,0.57825237,-0.01033455,-0.02889989,-0.81528044
'00:10:04.884,0.062012,0.028809,0.998535,-1.890244,-1.036585,-0.365854,-4.656250,18.250000,20.031250,29.182,0.57825392,-0.01061899,-0.02886346,-0.81527697
'00:10:04.894,0.064453,0.023926,0.997559,-0.731707,0.304878,-0.548781,-4.731250,18.193750,20.131250,29.121,0.57824072,-0.01077347,-0.02881707,-0.81528595
'00:10:04.906,0.066895,0.020996,0.999023,1.524390,2.560976,-0.670732,-4.731250,18.193750,20.131250,29.136,0.57822427,-0.01065654,-0.02880919,-0.81529943
'00:10:04.914,0.063965,0.023926,1.002441,3.841464,5.060976,-0.914634,-4.500000,17.993750,19.918751,29.182,0.57821571,-0.01033019,-0.02884915,-0.81530829
'00:10:04.924,0.055176,0.034180,1.011230,3.475610,4.573171,-0.914634,-4.500000,17.993750,19.918751,29.136,0.57820214,-0.00988686,-0.02891766,-0.81532098
'00:10:04.934,0.051270,0.039062,1.013184,-1.280488,-0.487805,-0.365854,-4.425000,17.887501,19.837500,29.121,0.57821369,-0.01001111,-0.02891785,-0.81531127
'00:10:04.944,0.059570,0.031738,1.000977,-2.621951,-1.829268,-0.304878,-4.425000,17.887501,19.837500,29.121,0.57822595,-0.01037689,-0.02888641,-0.81529912
'00:10:04.954,0.063477,0.028320,0.998535,-2.256098,-1.463415,-0.243902,-4.456250,17.906250,19.825001,29.136,0.57824185,-0.01072772,-0.02885717,-0.81528433
'00:10:04.964,0.065430,0.024414,1.000000,-1.219512,-0.304878,-0.487805,-4.456250,17.906250,19.825001,29.091,0.57824434,-0.01096445,-0.02882790,-0.81528045
'00:10:04.974,0.066895,0.020996,1.000488,0.548781,1.524390,-0.609756,-4.512500,17.912500,19.806250,29.136,0.57824101,-0.01099612,-0.02881415,-0.81528288
'00:10:04.984,0.064453,0.022949,1.001953,2.500000,3.597561,-0.792683,-4.512500,17.912500,19.806250,29.152,0.57823145,-0.01075945,-0.02883575,-0.81529205
'00:10:04.994,0.059082,0.027832,1.008789,3.536585,4.634146,-0.914634,-4.837500,18.431250,20.193750,29.182,0.57820426,-0.01033698,-0.02886891,-0.81531563
'00:10:05.006,0.052734,0.038086,1.010254,1.219512,2.195122,-0.670732,-4.837500,18.431250,20.193750,29.152,0.57818093,-0.01009492,-0.02889679,-0.81533421
'00:10:05.014,0.053223,0.037598,1.003906,-2.439024,-1.646341,-0.304878,-4.693750,18.293751,20.025000,29.121,0.57818207,-0.01031235,-0.02887018,-0.81533163
'00:10:05.025,0.060547,0.031250,0.999023,-3.658537,-2.804878,-0.182927,-4.693750,18.293751,20.025000,29.136,0.57818953,-0.01084079,-0.02879711,-0.81532207
'00:10:05.034,0.066406,0.025879,0.999023,-2.987805,-2.073171,-0.243902,-4.500000,17.943750,19.781250,29.136,0.57819974,-0.01124379,-0.02874775,-0.81531111
'00:10:05.044,0.068359,0.020020,0.999512,-1.280488,-0.304878,-0.426829,-4.500000,17.943750,19.781250,29.121,0.57820453,-0.01150735,-0.02869944,-0.81530574
'00:10:05.054,0.071289,0.017090,0.999023,1.768293,2.865854,-0.731707,-4.425000,17.843750,19.800001,29.167,0.57820150,-0.01141906,-0.02870716,-0.81530886
'00:10:05.064,0.065918,0.021484,1.003906,5.000000,6.097561,-1.036585,-4.425000,17.843750,19.800001,29.121,0.57818770,-0.01089029,-0.02878378,-0.81532318
'00:10:05.074,0.054688,0.033691,1.011230,4.878049,5.975610,-1.036585,-4.443750,17.843750,19.781250,29.136,0.57817087,-0.01026796,-0.02887826,-0.81533984
'00:10:05.084,0.051270,0.039062,1.010254,1.036585,2.012195,-0.670732,-4.443750,17.843750,19.781250,29.167,0.57816643,-0.01008981,-0.02891629,-0.81534387
'00:10:05.094,0.055176,0.034668,1.000977,-1.951220,-1.097561,-0.365854,-4.600000,18.106251,19.993750,29.197,0.57816832,-0.01032388,-0.02888543,-0.81534069
'00:10:05.104,0.061035,0.028809,0.995117,-2.195122,-1.280488,-0.365854,-4.750000,18.181250,20.068750,29.091,0.57816139,-0.01063035,-0.02882885,-0.81534367
'00:10:05.114,0.064941,0.023926,0.996582,-0.609756,0.426829,-0.548781,-4.750000,18.181250,20.068750,29.136,0.57814766,-0.01077155,-0.02878671,-0.81535304
'00:10:05.124,0.068848,0.019531,1.000488,2.317073,3.414634,-0.792683,-4.475000,17.831251,19.781250,29.136,0.57813954,-0.01060064,-0.02880543,-0.81536038
'00:10:05.134,0.062988,0.024414,1.007324,4.573171,5.792683,-0.975610,-4.475000,17.831251,19.781250,29.121,0.57812607,-0.01009537,-0.02886663,-0.81537418
'00:10:05.144,0.051270,0.036621,1.019043,2.256098,3.414634,-0.792683,-4.418750,17.868750,19.750000,29.121,0.57812116,-0.00976941,-0.02890637,-0.81538022
'00:10:05.154,0.055664,0.035156,1.008789,-1.463415,-0.609756,-0.426829,-4.418750,17.868750,19.750000,29.121,0.57812955,-0.00995589,-0.02889778,-0.81537232
'00:10:05.164,0.061523,0.028809,0.996094,-2.256098,-1.402439,-0.304878,-4.481250,17.868750,19.812500,29.152,0.57813991,-0.01029451,-0.02885955,-0.81536212
'00:10:05.174,0.066406,0.026855,0.986816,0.182927,1.219512,-0.548781,-4.481250,17.868750,19.812500,29.182,0.57814116,-0.01035580,-0.02887507,-0.81535991
'00:10:05.184,0.063477,0.026855,0.993652,3.170732,4.390244,-0.792683,-4.537500,18.012501,19.881250,29.136,0.57813479,-0.01001970,-0.02892690,-0.81536679
'00:10:05.194,0.047363,0.042480,1.022949,3.292683,4.695122,-0.975610,-4.537500,18.012501,19.881250,29.152,0.57811399,-0.00949989,-0.02898445,-0.81538571
'00:10:05.204,0.047363,0.042480,1.022949,3.292683,4.695122,-0.975610,-4.831250,18.456251,20.131250,29.152,0.57808280,-0.00897997,-0.02902848,-0.81541216
'00:10:05.214,0.076660,0.009766,0.993652,-1.341463,-0.609756,-0.365854,-4.831250,18.456251,20.131250,29.152,0.57808441,-0.00937059,-0.02895482,-0.81540924
'00:10:05.224,0.063477,0.022949,1.009277,2.560976,3.597561,-0.853659,-4.506250,17.975000,19.868750,29.152,0.57807520,-0.00915023,-0.02897678,-0.81541749
'00:10:05.234,0.062012,0.026855,1.007812,-2.012195,-1.402439,-0.243902,-4.506250,17.975000,19.868750,29.152,0.57809266,-0.00949723,-0.02894227,-0.81540237
'00:10:05.244,0.067383,0.025391,0.991699,-0.609756,0.304878,-0.487805,-4.443750,17.875000,19.818750,29.106,0.57809978,-0.00968872,-0.02894408,-0.81539500
'00:10:05.254,0.066895,0.026855,0.989258,2.560976,3.780488,-0.731707,-4.443750,17.875000,19.818750,29.121,0.57810030,-0.00946166,-0.02900356,-0.81539519
'00:10:05.265,0.032227,0.057617,1.020020,0.304878,1.463415,-0.670732,-4.431250,17.943750,19.781250,29.152,0.57809342,-0.00916239,-0.02904811,-0.81540190
'00:10:05.274,0.068359,0.020996,0.986328,-0.365854,0.853659,-0.609756,-4.431250,17.943750,19.781250,29.136,0.57809682,-0.00931614,-0.02902428,-0.81539859
'00:10:05.284,0.041016,0.046875,1.024414,2.012195,3.475610,-0.975610,-4.431250,17.943750,19.875000,29.106,0.57807802,-0.00890830,-0.02905801,-0.81541528
'00:10:05.294,0.075684,0.008789,0.986816,0.670732,1.768293,-0.670732,-4.431250,17.943750,19.875000,29.136,0.57808236,-0.00905227,-0.02901814,-0.81541203
'00:10:05.305,0.053711,0.033203,1.019043,-1.341463,-0.548781,-0.243902,-4.762500,18.375000,20.156250,29.152,0.57809265,-0.00923936,-0.02897062,-0.81540433
'00:10:05.314,0.044434,0.041992,1.020508,1.097561,2.317073,-0.792683,-4.762500,18.375000,20.156250,29.136,0.57807231,-0.00901601,-0.02896933,-0.81542130
'00:10:05.324,0.067871,0.023438,0.990723,0.365854,1.280488,-0.609756,-4.656250,18.187500,20.031250,29.121,0.57806677,-0.00909709,-0.02897285,-0.81542420
'00:10:05.334,0.050293,0.040039,1.006348,0.060976,1.097561,-0.609756,-4.656250,18.187500,20.031250,29.121,0.57805746,-0.00903597,-0.02898194,-0.81543115
'00:10:05.344,0.066406,0.027344,0.993164,0.609756,1.707317,-0.609756,-4.400000,17.887501,19.700001,29.152,0.57806484,-0.00906176,-0.02901087,-0.81542461
'00:10:05.354,0.054688,0.035645,1.010254,-0.182927,0.853659,-0.548781,-4.475000,17.900000,19.743750,29.182,0.57806741,-0.00907973,-0.02901378,-0.81542249
'00:10:05.364,0.056641,0.033203,1.013184,0.853659,2.012195,-0.731707,-4.475000,17.900000,19.743750,29.121,0.57806118,-0.00898295,-0.02902464,-0.81542759
'00:10:05.374,0.065918,0.020508,1.004395,0.609756,1.585366,-0.670732,-4.462500,17.906250,19.781250,29.182,0.57806117,-0.00903644,-0.02900850,-0.81542758
'00:10:05.384,0.062500,0.025391,1.006836,0.000000,0.853659,-0.548781,-4.462500,17.906250,19.781250,29.182,0.57806667,-0.00913323,-0.02899933,-0.81542293
'00:10:05.394,0.054199,0.031250,1.008301,0.243902,1.158537,-0.548781,-4.731250,18.325001,20.062500,29.152,0.57806157,-0.00911356,-0.02897987,-0.81542745
'00:10:05.404,0.058105,0.029785,1.000000,0.548781,1.585366,-0.609756,-4.731250,18.325001,20.062500,29.091,0.57805371,-0.00907772,-0.02897158,-0.81543372
'00:10:05.414,0.060547,0.030273,0.994141,0.304878,1.219512,-0.548781,-4.668750,18.275000,20.006250,29.167,0.57805230,-0.00909679,-0.02898329,-0.81543409
'00:10:05.425,0.056152,0.035645,0.996582,0.182927,1.158537,-0.548781,-4.668750,18.275000,20.006250,29.121,0.57804928,-0.00907707,-0.02900313,-0.81543574
'00:10:05.434,0.059570,0.032227,1.002441,0.487805,1.585366,-0.548781,-4.481250,17.918751,19.800001,29.152,0.57805399,-0.00905474,-0.02901837,-0.81543211
'00:10:05.446,0.062500,0.025391,1.009277,0.304878,1.280488,-0.548781,-4.481250,17.918751,19.800001,29.136,0.57806082,-0.00911377,-0.02900472,-0.81542710
'00:10:05.454,0.061523,0.024902,1.011230,0.304878,1.219512,-0.548781,-4.443750,17.893751,19.812500,29.182,0.57806692,-0.00915458,-0.02899399,-0.81542270
'00:10:05.464,0.059570,0.026367,1.008301,0.426829,1.341463,-0.548781,-4.443750,17.893751,19.812500,29.136,0.57807465,-0.00917394,-0.02898488,-0.81541733
'00:10:05.474,0.060547,0.026855,1.002930,0.426829,1.341463,-0.609756,-4.443750,17.925001,19.806250,29.152,0.57807851,-0.00919788,-0.02898557,-0.81541430
'00:10:05.484,0.058594,0.032715,0.997559,0.365854,1.280488,-0.548781,-4.443750,17.925001,19.806250,29.167,0.57808520,-0.00919481,-0.02901330,-0.81540860
'00:10:05.494,0.057617,0.034180,0.995605,0.487805,1.463415,-0.609756,-4.412500,17.850000,19.762501,29.136,0.57808847,-0.00916194,-0.02904647,-0.81540547
'00:10:05.504,0.058594,0.032227,0.997070,0.243902,1.280488,-0.548781,-4.412500,17.850000,19.762501,29.136,0.57809583,-0.00916848,-0.02906286,-0.81539960
'00:10:05.514,0.057129,0.032715,1.003418,0.243902,1.402439,-0.548781,-4.425000,17.943750,19.800001,29.182,0.57810448,-0.00915508,-0.02906796,-0.81539343
'00:10:05.524,0.060059,0.025391,1.009277,0.304878,1.463415,-0.548781,-4.425000,17.943750,19.800001,29.152,0.57811481,-0.00917995,-0.02904126,-0.81538678
'00:10:05.534,0.061523,0.023926,1.011719,0.304878,1.341463,-0.548781,-4.525000,18.087500,19.893751,29.167,0.57812082,-0.00922204,-0.02901296,-0.81538305
'00:10:05.544,0.059082,0.025879,1.010254,0.426829,1.280488,-0.609756,-4.525000,18.087500,19.893751,29.121,0.57812210,-0.00924050,-0.02899872,-0.81538244
'00:10:05.554,0.060059,0.030273,1.004395,0.426829,1.402439,-0.609756,-4.431250,17.887501,19.743750,29.152,0.57812542,-0.00924188,-0.02901338,-0.81537955
'00:10:05.564,0.058594,0.031250,0.997070,0.426829,1.402439,-0.609756,-4.431250,17.887501,19.743750,29.121,0.57812849,-0.00923239,-0.02903059,-0.81537686
'00:10:05.574,0.059570,0.033691,0.996094,0.243902,1.219512,-0.548781,-4.393750,17.868750,19.718750,29.152,0.57813699,-0.00924304,-0.02906498,-0.81536949
'00:10:05.585,0.061035,0.031738,0.998535,0.243902,1.341463,-0.548781,-4.393750,17.868750,19.718750,29.136,0.57814698,-0.00926250,-0.02908818,-0.81536136
'00:10:05.594,0.060059,0.031250,0.999512,0.243902,1.341463,-0.548781,-4.456250,17.962500,19.787500,29.121,0.57815285,-0.00927239,-0.02909746,-0.81535675
'00:10:05.604,0.061035,0.027344,1.007324,0.182927,1.280488,-0.609756,-4.456250,17.962500,19.787500,29.121,0.57815565,-0.00931025,-0.02908450,-0.81535480
'00:10:05.614,0.060059,0.024902,1.012207,0.365854,1.341463,-0.609756,-4.668750,18.168751,19.918751,29.152,0.57814862,-0.00932667,-0.02905006,-0.81536083
'00:10:05.624,0.059082,0.026855,1.010742,0.426829,1.341463,-0.670732,-4.631250,18.150000,19.881250,29.121,0.57813927,-0.00932884,-0.02903076,-0.81536812
'00:10:05.634,0.058594,0.029785,1.003418,0.426829,1.341463,-0.548781,-4.631250,18.150000,19.881250,29.152,0.57813799,-0.00931839,-0.02902927,-0.81536920
'00:10:05.644,0.057617,0.032227,1.000000,0.304878,1.341463,-0.548781,-4.400000,17.850000,19.787500,29.152,0.57814597,-0.00930959,-0.02904250,-0.81536317
'00:10:05.654,0.057129,0.032715,0.995117,0.365854,1.280488,-0.548781,-4.400000,17.850000,19.787500,29.152,0.57815368,-0.00929824,-0.02906584,-0.81535700
'00:10:05.665,0.058594,0.032227,0.997559,0.365854,1.402439,-0.548781,-4.462500,17.893751,19.800001,29.136,0.57815868,-0.00928364,-0.02908206,-0.81535304
'00:10:05.674,0.060059,0.029297,1.001953,0.121951,1.158537,-0.548781,-4.462500,17.893751,19.800001,29.182,0.57816259,-0.00931613,-0.02907890,-0.81535001
'00:10:05.684,0.060059,0.028320,1.010254,0.365854,1.341463,-0.609756,-4.462500,17.906250,19.737501,29.121,0.57816401,-0.00932841,-0.02907497,-0.81534901
'00:10:05.694,0.061523,0.024902,1.011230,0.365854,1.341463,-0.609756,-4.462500,17.906250,19.737501,29.182,0.57816607,-0.00936228,-0.02905698,-0.81534780
'00:10:05.705,0.062012,0.027344,1.008789,0.365854,1.341463,-0.609756,-4.718750,18.343750,20.056250,29.136,0.57815746,-0.00938086,-0.02904434,-0.81535414
'00:10:05.714,0.060059,0.028809,1.003418,0.609756,1.585366,-0.609756,-4.718750,18.343750,20.056250,29.182,0.57815091,-0.00935532,-0.02904113,-0.81535919
'00:10:05.724,0.061035,0.031738,0.996094,0.365854,1.280488,-0.548781,-4.725000,18.281250,19.993750,29.121,0.57814484,-0.00935530,-0.02905745,-0.81536292
'00:10:05.734,0.058105,0.032227,0.997070,0.304878,1.341463,-0.609756,-4.725000,18.281250,19.993750,29.167,0.57813451,-0.00933535,-0.02905689,-0.81537049
'00:10:05.746,0.058594,0.030762,0.996582,0.426829,1.341463,-0.609756,-4.462500,17.900000,19.787500,29.182,0.57813527,-0.00932777,-0.02907415,-0.81536943
'00:10:05.754,0.059570,0.029785,1.002930,0.121951,1.158537,-0.548781,-4.462500,17.900000,19.787500,29.197,0.57813884,-0.00935221,-0.02907194,-0.81536669
'00:10:05.764,0.059082,0.027832,1.009766,0.426829,1.402439,-0.609756,-4.462500,17.918751,19.843750,29.182,0.57814046,-0.00935373,-0.02906281,-0.81536585
'00:10:05.774,0.059570,0.027344,1.010742,0.426829,1.463415,-0.609756,-4.462500,17.918751,19.843750,29.182,0.57814234,-0.00935543,-0.02904951,-0.81536497
'00:10:05.786,0.059570,0.025879,1.008301,0.487805,1.463415,-0.609756,-4.406250,17.868750,19.737501,29.152,0.57814898,-0.00936485,-0.02903433,-0.81536070
'00:10:05.794,0.059082,0.030273,1.004395,0.365854,1.341463,-0.609756,-4.406250,17.868750,19.737501,29.136,0.57815230,-0.00936688,-0.02904244,-0.81535803
'00:10:05.804,0.058594,0.030273,0.997559,0.365854,1.280488,-0.548781,-4.625000,18.243750,19.918751,29.106,0.57815285,-0.00936408,-0.02904703,-0.81535751
'00:10:05.814,0.059082,0.032715,0.994141,0.304878,1.219512,-0.609756,-4.625000,18.243750,19.918751,29.091,0.57814827,-0.00936202,-0.02906769,-0.81536005
'00:10:05.827,0.058594,0.032227,0.998535,0.182927,1.280488,-0.609756,-4.706250,18.275000,20.081251,29.167,0.57813546,-0.00935424,-0.02906261,-0.81536940
'00:10:05.834,0.059570,0.030762,1.003418,0.365854,1.402439,-0.609756,-4.706250,18.275000,20.081251,29.152,0.57812915,-0.00934494,-0.02906024,-0.81537406
'00:10:05.844,0.061523,0.028320,1.008789,0.365854,1.402439,-0.609756,-4.425000,17.937500,19.806250,29.167,0.57813376,-0.00936415,-0.02906358,-0.81537045
'00:10:05.854,0.062500,0.026367,1.011230,0.365854,1.402439,-0.548781,-4.425000,17.937500,19.806250,29.136,0.57814303,-0.00939602,-0.02905845,-0.81536370
'00:10:05.864,0.061035,0.025879,1.010742,0.426829,1.402439,-0.548781,-4.450000,17.793751,19.737501,29.182,0.57814781,-0.00941461,-0.02904408,-0.81536061
'00:10:05.874,0.060059,0.027832,1.003906,0.487805,1.463415,-0.609756,-4.450000,17.793751,19.737501,29.152,0.57814800,-0.00941344,-0.02904127,-0.81536058
'00:10:05.884,0.058105,0.030762,0.996094,0.365854,1.280488,-0.609756,-4.481250,17.918751,19.737501,29.136,0.57814759,-0.00940955,-0.02905172,-0.81536055
'00:10:05.894,0.056641,0.034180,0.997070,0.304878,1.219512,-0.548781,-4.425000,17.818750,19.750000,29.167,0.57815228,-0.00939259,-0.02907655,-0.81535653
'00:10:05.905,0.058105,0.032715,0.997070,0.182927,1.219512,-0.548781,-4.425000,17.818750,19.750000,29.152,0.57815759,-0.00939695,-0.02909102,-0.81535220
'00:10:05.914,0.060547,0.031738,0.999512,0.121951,1.158537,-0.548781,-4.706250,18.237501,20.006250,29.197,0.57815177,-0.00941258,-0.02909218,-0.81535611
'00:10:05.924,0.060547,0.027344,1.006348,0.426829,1.402439,-0.548781,-4.706250,18.237501,20.006250,29.152,0.57814714,-0.00941326,-0.02907512,-0.81535999
'00:10:05.934,0.060547,0.027344,1.006348,0.426829,1.402439,-0.548781,-4.512500,17.975000,19.787500,29.152,0.57815094,-0.00942218,-0.02906778,-0.81535745
'00:10:05.946,0.062012,0.025879,1.007324,0.487805,1.524390,-0.609756,-4.512500,17.975000,19.787500,29.136,0.57815102,-0.00943505,-0.02905350,-0.81535776
'00:10:05.954,0.062012,0.025879,1.007324,0.487805,1.524390,-0.609756,-4.468750,17.887501,19.731251,29.136,0.57815215,-0.00944477,-0.02904540,-0.81535713
'00:10:05.964,0.061523,0.027832,1.004883,0.304878,1.219512,-0.548781,-4.468750,17.887501,19.731251,29.136,0.57815657,-0.00947774,-0.02904795,-0.81535353
'00:10:05.974,0.058105,0.031250,1.001465,0.365854,1.280488,-0.609756,-4.412500,17.943750,19.662500,29.152,0.57816164,-0.00947419,-0.02906493,-0.81534936
'00:10:05.987,0.056641,0.034668,0.996094,0.182927,1.097561,-0.548781,-4.412500,17.943750,19.662500,29.152,0.57817203,-0.00947072,-0.02910265,-0.81534069
'00:10:05.994,0.056641,0.034668,0.996094,0.182927,1.097561,-0.548781,-4.493750,17.962500,19.762501,29.152,0.57817355,-0.00946559,-0.02911809,-0.81533912
'00:10:06.004,0.057617,0.033691,1.003418,0.365854,1.463415,-0.609756,-4.493750,17.962500,19.762501,29.182,0.57817270,-0.00943121,-0.02912967,-0.81533971
'00:10:06.014,0.062500,0.026367,1.006836,0.365854,1.402439,-0.609756,-4.612500,18.156250,19.887501,29.152,0.57816871,-0.00945338,-0.02911523,-0.81534280
'00:10:06.027,0.060059,0.026855,1.008789,0.243902,1.219512,-0.548781,-4.612500,18.156250,19.887501,29.182,0.57816843,-0.00948629,-0.02908735,-0.81534361
'00:10:06.034,0.057617,0.028320,1.009277,0.365854,1.402439,-0.609756,-4.818750,18.450001,20.081251,29.182,0.57815968,-0.00947087,-0.02906470,-0.81535081
'00:10:06.044,0.058594,0.028320,1.004883,0.548781,1.585366,-0.609756,-4.818750,18.450001,20.081251,29.121,0.57814783,-0.00943318,-0.02904212,-0.81536044
'00:10:06.054,0.059570,0.028320,1.001953,0.304878,1.280488,-0.609756,-4.462500,17.900000,19.762501,29.091,0.57814865,-0.00945022,-0.02903855,-0.81535979
'00:10:06.067,0.057617,0.032227,0.998047,0.609756,1.585366,-0.670732,-4.443750,17.918751,19.737501,29.152,0.57814671,-0.00939110,-0.02906605,-0.81536087
'00:10:06.074,0.057617,0.032227,0.998047,0.609756,1.585366,-0.670732,-4.443750,17.918751,19.737501,29.152,0.57814571,-0.00935987,-0.02908063,-0.81536142
'00:10:06.084,0.061035,0.029297,1.000977,0.182927,1.219512,-0.548781,-4.443750,17.918751,19.737501,29.136,0.57815222,-0.00939443,-0.02908485,-0.81535625
'00:10:06.094,0.059082,0.031738,1.006836,0.182927,1.158537,-0.548781,-4.418750,17.862501,19.668751,29.152,0.57815891,-0.00941117,-0.02909669,-0.81535090
'00:10:06.106,0.060547,0.028320,1.007324,0.426829,1.463415,-0.609756,-4.556250,18.093750,19.875000,29.182,0.57815720,-0.00941018,-0.02908889,-0.81535240
'00:10:06.114,0.062500,0.026855,1.005859,0.426829,1.463415,-0.609756,-4.556250,18.093750,19.875000,29.152,0.57815624,-0.00942321,-0.02908382,-0.81535311
'00:10:06.124,0.060547,0.026367,1.005371,0.365854,1.280488,-0.548781,-4.556250,18.093750,19.875000,29.152,0.57815903,-0.00944681,-0.02907196,-0.81535128
'00:10:06.134,0.057617,0.029785,1.000977,0.365854,1.402439,-0.609756,-4.762500,18.318750,19.968750,29.152,0.57814764,-0.00942260,-0.02905293,-0.81536032
'00:10:06.145,0.058594,0.031250,0.999023,0.426829,1.402439,-0.609756,-4.456250,17.875000,19.775000,29.167,0.57814812,-0.00940660,-0.02906719,-0.81535966
'00:10:06.154,0.059570,0.030762,1.000000,0.243902,1.219512,-0.548781,-4.456250,17.875000,19.775000,29.167,0.57815193,-0.00942048,-0.02907586,-0.81535648
'00:10:06.166,0.058105,0.032715,1.005371,0.243902,1.280488,-0.548781,-4.425000,17.900000,19.700001,29.121,0.57816043,-0.00941509,-0.02909112,-0.81534998
'00:10:06.174,0.058594,0.028809,1.002441,0.365854,1.402439,-0.609756,-4.425000,17.900000,19.700001,29.136,0.57816357,-0.00941513,-0.02908759,-0.81534788
'00:10:06.185,0.058594,0.027832,1.003906,0.304878,1.341463,-0.548781,-4.456250,17.900000,19.700001,29.121,0.57817024,-0.00942536,-0.02907177,-0.81534359
'00:10:06.194,0.060059,0.026855,1.006348,0.365854,1.402439,-0.548781,-4.456250,17.900000,19.700001,29.152,0.57817603,-0.00943743,-0.02905956,-0.81533978
'00:10:06.204,0.059570,0.028320,1.005371,0.487805,1.402439,-0.609756,-4.756250,18.218750,19.950001,29.197,0.57816333,-0.00942198,-0.02904535,-0.81534947
'00:10:06.214,0.059570,0.029297,1.000977,0.304878,1.280488,-0.609756,-4.756250,18.218750,19.950001,29.167,0.57815004,-0.00942174,-0.02903185,-0.81535938
'00:10:06.224,0.060059,0.030762,1.001953,0.304878,1.280488,-0.609756,-4.793750,18.393751,19.981251,29.136,0.57813767,-0.00941829,-0.02902943,-0.81536827
'00:10:06.235,0.059570,0.032227,1.002441,0.304878,1.341463,-0.609756,-4.793750,18.393751,19.981251,29.167,0.57812397,-0.00940036,-0.02903019,-0.81537817
'00:10:06.244,0.059082,0.029785,1.002441,0.304878,1.341463,-0.609756,-4.687500,18.206251,19.918751,29.167,0.57811626,-0.00939568,-0.02902034,-0.81538404
'00:10:06.254,0.060059,0.029785,1.002930,0.365854,1.402439,-0.609756,-4.687500,18.206251,19.918751,29.136,0.57810793,-0.00938851,-0.02901455,-0.81539023
'00:10:06.264,0.058594,0.029297,1.001953,0.487805,1.463415,-0.548781,-4.462500,17.906250,19.693750,29.152,0.57811422,-0.00937470,-0.02901742,-0.81538583
'00:10:06.274,0.059570,0.030273,1.004395,0.365854,1.402439,-0.548781,-4.462500,17.906250,19.693750,29.167,0.57812002,-0.00937254,-0.02902323,-0.81538153
'00:10:06.284,0.060059,0.029785,1.003418,0.365854,1.280488,-0.548781,-4.475000,17.937500,19.712500,29.106,0.57812530,-0.00938366,-0.02903429,-0.81537727
'00:10:06.294,0.060059,0.029785,1.002441,0.243902,1.219512,-0.548781,-4.475000,17.937500,19.712500,29.136,0.57813025,-0.00940526,-0.02903992,-0.81537331
'00:10:06.304,0.060547,0.029785,1.003418,0.304878,1.280488,-0.609756,-4.462500,17.925001,19.712500,29.121,0.57813160,-0.00942210,-0.02904899,-0.81537184
'00:10:06.314,0.060059,0.029297,1.000977,0.304878,1.341463,-0.609756,-4.462500,17.925001,19.712500,29.152,0.57813315,-0.00943412,-0.02905103,-0.81537053
'00:10:06.324,0.059570,0.030273,1.001465,0.304878,1.341463,-0.609756,-4.743750,18.293751,20.068750,29.182,0.57812186,-0.00942740,-0.02904207,-0.81537893
'00:10:06.334,0.058105,0.030762,1.002930,0.365854,1.402439,-0.609756,-4.743750,18.293751,20.068750,29.212,0.57811078,-0.00940299,-0.02903092,-0.81538746
'00:10:06.344,0.058594,0.029297,1.004395,0.426829,1.402439,-0.609756,-4.762500,18.387501,20.081251,29.167,0.57810089,-0.00938440,-0.02901812,-0.81539515
'00:10:06.354,0.059082,0.028320,1.003418,0.304878,1.280488,-0.609756,-4.762500,18.387501,20.081251,29.152,0.57809087,-0.00938778,-0.02899988,-0.81540286
'00:10:06.364,0.058594,0.029297,1.004395,0.304878,1.219512,-0.548781,-4.468750,17.925001,19.743750,29.152,0.57809626,-0.00940009,-0.02900116,-0.81539885
'00:10:06.374,0.059570,0.029785,1.001953,0.304878,1.280488,-0.609756,-4.468750,17.925001,19.743750,29.091,0.57809726,-0.00941171,-0.02900712,-0.81539780
'00:10:06.384,0.059570,0.030273,1.002441,0.487805,1.463415,-0.609756,-4.437500,17.875000,19.681250,29.167,0.57810008,-0.00939998,-0.02902087,-0.81539544
'00:10:06.394,0.059570,0.029785,1.000488,0.365854,1.341463,-0.609756,-4.437500,17.875000,19.681250,29.152,0.57810258,-0.00940564,-0.02902986,-0.81539329
'00:10:06.404,0.057617,0.031250,1.002441,0.304878,1.341463,-0.609756,-4.487500,17.981251,19.781250,29.152,0.57810318,-0.00939524,-0.02903229,-0.81539289
'00:10:06.414,0.057617,0.030762,1.003418,0.426829,1.463415,-0.609756,-4.687500,18.193750,19.906250,29.167,0.57809472,-0.00936288,-0.02902299,-0.81539959
'00:10:06.424,0.059570,0.028320,1.004883,0.426829,1.402439,-0.609756,-4.687500,18.193750,19.906250,29.121,0.57808668,-0.00935578,-0.02901035,-0.81540583
'00:10:06.436,0.061523,0.027344,1.006836,0.304878,1.280488,-0.548781,-4.768750,18.287500,19.925001,29.182,0.57807783,-0.00937793,-0.02898939,-0.81541259
'00:10:06.444,0.060059,0.029785,1.005371,0.304878,1.219512,-0.548781,-4.768750,18.287500,19.925001,29.152,0.57807145,-0.00938206,-0.02898492,-0.81541723
'00:10:06.454,0.059082,0.031738,1.002930,0.426829,1.402439,-0.548781,-4.462500,17.925001,19.743750,29.136,0.57807737,-0.00936880,-0.02900315,-0.81541253
'00:10:06.464,0.061035,0.028809,1.001465,0.365854,1.402439,-0.609756,-4.462500,17.925001,19.743750,29.182,0.57807942,-0.00938197,-0.02900834,-0.81541074
'00:10:06.474,0.059570,0.029785,1.000000,0.365854,1.280488,-0.609756,-4.506250,17.981251,19.768751,29.152,0.57807904,-0.00938966,-0.02901765,-0.81541059
'00:10:06.484,0.059082,0.030762,1.000488,0.365854,1.402439,-0.609756,-4.506250,17.981251,19.768751,29.121,0.57807876,-0.00938168,-0.02902410,-0.81541066
'00:10:06.494,0.060059,0.029297,1.001953,0.365854,1.402439,-0.609756,-4.506250,17.987501,19.731251,29.152,0.57807906,-0.00938496,-0.02902557,-0.81541035
'00:10:06.504,0.059570,0.029785,1.006348,0.304878,1.341463,-0.609756,-4.506250,17.987501,19.731251,29.136,0.57807910,-0.00938994,-0.02902480,-0.81541029
'00:10:06.514,0.059570,0.026855,1.007324,0.304878,1.280488,-0.609756,-4.556250,18.093750,19.781250,29.167,0.57807826,-0.00940916,-0.02900839,-0.81541125
'00:10:06.524,0.059082,0.027344,1.006348,0.365854,1.280488,-0.609756,-4.556250,18.093750,19.781250,29.106,0.57807738,-0.00942058,-0.02899777,-0.81541212
'00:10:06.536,0.058594,0.028809,1.002441,0.365854,1.280488,-0.670732,-4.762500,18.300001,19.943750,29.212,0.57805854,-0.00941315,-0.02898116,-0.81542616
'00:10:06.544,0.060547,0.030273,0.999512,0.365854,1.280488,-0.548781,-4.762500,18.300001,19.943750,29.152,0.57805268,-0.00941302,-0.02898401,-0.81543021
'00:10:06.554,0.059570,0.032227,1.001953,0.487805,1.524390,-0.670732,-4.600000,18.100000,19.881250,29.227,0.57804392,-0.00938230,-0.02899841,-0.81543626
'00:10:06.564,0.061035,0.030273,1.002441,0.426829,1.402439,-0.609756,-4.600000,18.100000,19.881250,29.136,0.57803957,-0.00937999,-0.02900890,-0.81543900
'00:10:06.574,0.059082,0.030273,1.000977,0.243902,1.219512,-0.548781,-4.487500,17.950001,19.731251,29.182,0.57804410,-0.00939418,-0.02901401,-0.81543544
'00:10:06.584,0.058105,0.028320,1.004395,0.304878,1.341463,-0.609756,-4.487500,17.950001,19.731251,29.152,0.57804510,-0.00939803,-0.02900063,-0.81543516
'00:10:06.594,0.059570,0.027832,1.006836,0.365854,1.402439,-0.609756,-4.450000,17.912500,19.700001,29.167,0.57804831,-0.00940597,-0.02899303,-0.81543306
'00:10:06.604,0.060547,0.026855,1.006836,0.365854,1.341463,-0.609756,-4.450000,17.912500,19.700001,29.152,0.57805152,-0.00942755,-0.02898692,-0.81543076
'00:10:06.614,0.059570,0.029297,1.004883,0.426829,1.341463,-0.609756,-4.475000,17.975000,19.743750,29.121,0.57805369,-0.00943004,-0.02899543,-0.81542889
'00:10:06.624,0.059082,0.031250,1.000488,0.426829,1.463415,-0.609756,-4.475000,17.975000,19.743750,29.136,0.57805569,-0.00941395,-0.02900874,-0.81542718
'00:10:06.634,0.059570,0.031250,1.000488,0.426829,1.402439,-0.609756,-4.818750,18.468750,20.087500,29.136,0.57804353,-0.00939153,-0.02901051,-0.81543600
'00:10:06.644,0.061035,0.029297,1.000977,0.243902,1.280488,-0.548781,-4.818750,18.468750,20.087500,29.152,0.57803570,-0.00940327,-0.02900003,-0.81544179
'00:10:06.654,0.059082,0.029297,1.001465,0.304878,1.402439,-0.609756,-4.675000,18.237501,19.975000,29.136,0.57802902,-0.00939749,-0.02898593,-0.81544709
'00:10:06.664,0.058105,0.027832,1.002441,0.365854,1.341463,-0.548781,-4.675000,18.237501,19.975000,29.182,0.57802697,-0.00939353,-0.02896681,-0.81544927
'00:10:06.675,0.060059,0.028320,1.006348,0.304878,1.280488,-0.548781,-4.543750,18.000000,19.775000,29.152,0.57802946,-0.00941134,-0.02896045,-0.81544752
'00:10:06.684,0.060059,0.028320,1.006348,0.304878,1.280488,-0.548781,-4.500000,17.950001,19.762501,29.152,0.57803327,-0.00942758,-0.02895739,-0.81544475
'00:10:06.694,0.059082,0.029297,1.006348,0.426829,1.341463,-0.548781,-4.500000,17.950001,19.762501,29.121,0.57803754,-0.00942543,-0.02896128,-0.81544160
'00:10:06.705,0.060059,0.029297,1.004395,0.365854,1.341463,-0.609756,-4.437500,17.968750,19.706251,29.167,0.57804286,-0.00943723,-0.02897197,-0.81543732
'00:10:06.714,0.060059,0.029297,1.004395,0.365854,1.341463,-0.609756,-4.437500,17.968750,19.706251,29.167,0.57804716,-0.00944669,-0.02898052,-0.81543385
'00:10:06.724,0.057617,0.029785,1.001465,0.365854,1.402439,-0.609756,-4.506250,17.993750,19.706251,29.182,0.57804775,-0.00943355,-0.02897611,-0.81543374
'00:10:06.734,0.059570,0.030762,1.000000,0.426829,1.402439,-0.548781,-4.506250,17.993750,19.706251,29.121,0.57805246,-0.00942498,-0.02899014,-0.81543001
'00:10:06.746,0.059082,0.030762,1.000977,0.426829,1.402439,-0.548781,-4.487500,17.981251,19.737501,29.136,0.57805919,-0.00941260,-0.02900522,-0.81542484
'00:10:06.754,0.060547,0.029785,1.000000,0.365854,1.402439,-0.548781,-4.487500,17.981251,19.737501,29.167,0.57806373,-0.00941687,-0.02901214,-0.81542133
'00:10:06.764,0.060547,0.028809,1.001465,0.304878,1.280488,-0.609756,-4.543750,18.006250,19.768751,29.136,0.57806141,-0.00943422,-0.02901237,-0.81542276
'00:10:06.774,0.059082,0.029297,1.006348,0.304878,1.341463,-0.548781,-4.543750,18.006250,19.768751,29.136,0.57806355,-0.00943591,-0.02900440,-0.81542151
'00:10:06.784,0.060059,0.028320,1.006348,0.365854,1.341463,-0.609756,-4.493750,18.050001,19.712500,29.167,0.57806625,-0.00944730,-0.02900427,-0.81541947
'00:10:06.796,0.060059,0.027832,1.004883,0.304878,1.341463,-0.609756,-4.493750,18.050001,19.712500,29.167,0.57806949,-0.00946719,-0.02899623,-0.81541722
'00:10:06.804,0.061035,0.030762,1.002930,0.365854,1.402439,-0.609756,-4.487500,18.012501,19.762501,29.121,0.57807077,-0.00946950,-0.02900879,-0.81541585
'00:10:06.814,0.059570,0.029785,1.002930,0.487805,1.524390,-0.548781,-4.487500,18.012501,19.762501,29.106,0.57807735,-0.00945346,-0.02901527,-0.81541114
'00:10:06.824,0.059082,0.029297,1.001465,0.426829,1.402439,-0.609756,-4.506250,18.018751,19.856251,29.167,0.57807779,-0.00944796,-0.02901775,-0.81541080
'00:10:06.834,0.060547,0.030273,1.000488,0.365854,1.341463,-0.548781,-4.506250,18.018751,19.856251,29.121,0.57808209,-0.00945453,-0.02903085,-0.81540721
'00:10:06.844,0.057129,0.032227,1.001953,0.365854,1.341463,-0.548781,-4.731250,18.293751,20.012501,29.152,0.57807605,-0.00942380,-0.02902891,-0.81541192
'00:10:06.854,0.058594,0.029785,1.003418,0.304878,1.402439,-0.548781,-4.731250,18.293751,20.012501,29.152,0.57807069,-0.00941003,-0.02901107,-0.81541651
'00:10:06.864,0.060059,0.029297,1.003906,0.304878,1.341463,-0.548781,-4.493750,18.037500,19.818750,29.167,0.57807674,-0.00942175,-0.02901252,-0.81541204
'00:10:06.874,0.059570,0.028320,1.005859,0.304878,1.280488,-0.548781,-4.493750,18.037500,19.818750,29.152,0.57808284,-0.00943844,-0.02900859,-0.81540766
'00:10:06.884,0.059570,0.027344,1.003906,0.365854,1.341463,-0.609756,-4.462500,17.912500,19.731251,29.167,0.57808476,-0.00945188,-0.02900100,-0.81540641
'00:10:06.894,0.059570,0.028809,1.002930,0.426829,1.402439,-0.609756,-4.462500,17.912500,19.731251,29.106,0.57808654,-0.00945192,-0.02900364,-0.81540505
'00:10:06.904,0.060547,0.029785,1.002441,0.426829,1.402439,-0.609756,-4.431250,17.937500,19.775000,29.121,0.57809061,-0.00945600,-0.02901895,-0.81540158
'00:10:06.914,0.058594,0.030273,1.001953,0.365854,1.341463,-0.609756,-4.431250,17.937500,19.775000,29.152,0.57809441,-0.00945442,-0.02902786,-0.81539859
'00:10:06.924,0.058105,0.030762,1.001953,0.304878,1.402439,-0.548781,-4.518750,18.006250,19.781250,29.136,0.57809790,-0.00944236,-0.02902459,-0.81539637
'00:10:06.934,0.060059,0.029785,1.001953,0.304878,1.341463,-0.548781,-4.518750,18.006250,19.781250,29.167,0.57810138,-0.00944981,-0.02902669,-0.81539374
'00:10:06.944,0.060547,0.030273,1.004395,0.304878,1.341463,-0.548781,-4.781250,18.437500,20.062500,29.152,0.57809517,-0.00944751,-0.02902124,-0.81539836
'00:10:06.955,0.060059,0.027832,1.006348,0.304878,1.341463,-0.609756,-4.850000,18.462500,20.125000,29.152,0.57807954,-0.00944822,-0.02899229,-0.81541046
'00:10:06.964,0.059570,0.028320,1.003418,0.426829,1.341463,-0.609756,-4.850000,18.462500,20.125000,29.076,0.57806682,-0.00943977,-0.02897863,-0.81542006
'00:10:06.974,0.059082,0.028320,1.003418,0.426829,1.402439,-0.548781,-4.456250,17.993750,19.693750,29.152,0.57807558,-0.00944071,-0.02897910,-0.81541383
'00:10:06.984,0.058594,0.030762,1.004395,0.365854,1.341463,-0.609756,-4.456250,17.993750,19.693750,29.167,0.57807927,-0.00943591,-0.02899000,-0.81541088
'00:10:06.994,0.059570,0.030762,1.002441,0.365854,1.402439,-0.609756,-4.512500,17.912500,19.700001,29.167,0.57807727,-0.00942815,-0.02899611,-0.81541217
'00:10:07.004,0.059570,0.029785,1.001465,0.365854,1.341463,-0.609756,-4.512500,17.912500,19.700001,29.136,0.57807534,-0.00942903,-0.02900000,-0.81541339
'00:10:07.014,0.058594,0.030762,1.001953,0.304878,1.341463,-0.609756,-4.500000,18.031250,19.831251,29.182,0.57807613,-0.00942602,-0.02900432,-0.81541271
'00:10:07.024,0.059082,0.029297,1.003418,0.304878,1.341463,-0.548781,-4.500000,18.031250,19.831251,29.197,0.57808156,-0.00943168,-0.02900144,-0.81540890
'00:10:07.034,0.060059,0.027832,1.004883,0.304878,1.341463,-0.609756,-4.581250,18.162500,19.837500,29.152,0.57808014,-0.00944471,-0.02899020,-0.81541015
'00:10:07.044,0.059082,0.028320,1.005859,0.304878,1.341463,-0.609756,-4.581250,18.162500,19.837500,29.121,0.57807867,-0.00944997,-0.02897763,-0.81541158
'00:10:07.054,0.059570,0.028320,1.002930,0.365854,1.341463,-0.609756,-4.618750,18.212500,19.987501,29.182,0.57807513,-0.00945418,-0.02897055,-0.81541430
'00:10:07.064,0.060059,0.029297,1.003418,0.304878,1.402439,-0.548781,-4.618750,18.212500,19.987501,29.152,0.57807582,-0.00945589,-0.02896347,-0.81541404
'00:10:07.074,0.058594,0.029297,1.001465,0.365854,1.341463,-0.609756,-4.512500,18.000000,19.762501,29.136,0.57807572,-0.00945421,-0.02896293,-0.81541415
'00:10:07.084,0.058105,0.030273,1.003418,0.365854,1.341463,-0.548781,-4.512500,18.000000,19.762501,29.152,0.57807978,-0.00944556,-0.02896521,-0.81541129
'00:10:07.094,0.059082,0.030762,1.002441,0.304878,1.280488,-0.548781,-4.468750,17.975000,19.806250,29.152,0.57808580,-0.00945067,-0.02897615,-0.81540657
'00:10:07.105,0.059082,0.030762,1.000977,0.304878,1.341463,-0.609756,-4.468750,17.975000,19.806250,29.152,0.57808776,-0.00945155,-0.02898529,-0.81540485
'00:10:07.114,0.058594,0.030273,1.002441,0.243902,1.341463,-0.609756,-4.475000,17.975000,19.743750,29.182,0.57808926,-0.00945356,-0.02898354,-0.81540382
'00:10:07.124,0.061035,0.028320,1.004883,0.304878,1.341463,-0.548781,-4.475000,17.975000,19.743750,29.197,0.57809563,-0.00947401,-0.02898347,-0.81539907
'00:10:07.134,0.060059,0.027832,1.005371,0.365854,1.341463,-0.548781,-4.737500,18.337500,20.081251,29.152,0.57809074,-0.00947664,-0.02896794,-0.81540306
'00:10:07.144,0.059570,0.029297,1.003906,0.365854,1.341463,-0.548781,-4.737500,18.337500,20.081251,29.182,0.57808559,-0.00947102,-0.02895962,-0.81540707
'00:10:07.154,0.059082,0.029297,1.003418,0.426829,1.402439,-0.609756,-4.825000,18.431250,20.131250,29.197,0.57807237,-0.00945149,-0.02894650,-0.81541714
'00:10:07.164,0.059570,0.028809,1.000977,0.304878,1.280488,-0.609756,-4.825000,18.431250,20.131250,29.152,0.57805891,-0.00945229,-0.02893130,-0.81542721
'00:10:07.174,0.058594,0.030273,1.002441,0.304878,1.341463,-0.609756,-4.500000,18.000000,19.806250,29.167,0.57805937,-0.00945053,-0.02893313,-0.81542684
'00:10:07.184,0.058105,0.030762,1.001953,0.304878,1.280488,-0.548781,-4.500000,18.000000,19.806250,29.121,0.57806391,-0.00944862,-0.02893901,-0.81542343
'00:10:07.195,0.058594,0.030273,1.002930,0.365854,1.402439,-0.548781,-4.475000,17.887501,19.712500,29.182,0.57806900,-0.00943850,-0.02894163,-0.81541985
'00:10:07.204,0.060059,0.029297,1.002930,0.304878,1.341463,-0.609756,-4.512500,18.006250,19.750000,29.167,0.57806907,-0.00944720,-0.02894254,-0.81541966
'00:10:07.214,0.060059,0.029785,1.005859,0.365854,1.341463,-0.609756,-4.512500,18.006250,19.750000,29.167,0.57806911,-0.00945104,-0.02894945,-0.81541935
'00:10:07.224,0.059570,0.028320,1.003418,0.365854,1.402439,-0.609756,-4.462500,18.006250,19.800001,29.091,0.57807287,-0.00945760,-0.02894757,-0.81541667
'00:10:07.234,0.060059,0.028809,1.002441,0.365854,1.341463,-0.609756,-4.462500,18.006250,19.800001,29.197,0.57807632,-0.00946933,-0.02895396,-0.81541386
'00:10:07.244,0.060059,0.029297,1.002930,0.304878,1.280488,-0.609756,-4.712500,18.462500,20.112501,29.121,0.57807093,-0.00947720,-0.02895161,-0.81541768
'00:10:07.254,0.059570,0.030273,1.003418,0.304878,1.341463,-0.609756,-4.712500,18.462500,20.112501,29.121,0.57806551,-0.00947390,-0.02894963,-0.81542163
'00:10:07.264,0.060059,0.029297,1.003418,0.426829,1.341463,-0.548781,-4.656250,18.237501,19.912500,29.152,0.57806448,-0.00947136,-0.02895252,-0.81542228
'00:10:07.275,0.059082,0.028809,1.004395,0.365854,1.341463,-0.548781,-4.656250,18.237501,19.912500,29.152,0.57806346,-0.00946797,-0.02894315,-0.81542338
'00:10:07.284,0.058105,0.028320,1.004395,0.304878,1.341463,-0.548781,-4.468750,18.006250,19.750000,29.152,0.57807043,-0.00947237,-0.02893437,-0.81541870
'00:10:07.294,0.057617,0.029297,1.004395,0.365854,1.341463,-0.548781,-4.468750,18.006250,19.750000,29.152,0.57807801,-0.00946735,-0.02893273,-0.81541344
'00:10:07.304,0.059570,0.029785,1.003418,0.304878,1.341463,-0.609756,-4.487500,17.993750,19.768751,29.136,0.57807934,-0.00947321,-0.02893609,-0.81541231
'00:10:07.314,0.060059,0.030762,1.001953,0.304878,1.402439,-0.548781,-4.487500,17.993750,19.768751,29.182,0.57808488,-0.00947382,-0.02894445,-0.81540808
'00:10:07.324,0.059082,0.028809,1.002930,0.304878,1.341463,-0.548781,-4.500000,18.025000,19.818750,29.152,0.57809032,-0.00948080,-0.02893973,-0.81540431
'00:10:07.334,0.060547,0.028809,1.004395,0.304878,1.280488,-0.548781,-4.500000,18.025000,19.818750,29.167,0.57809553,-0.00949989,-0.02894343,-0.81540027
'00:10:07.344,0.060059,0.028320,1.002441,0.365854,1.341463,-0.548781,-4.575000,18.112501,19.881250,29.121,0.57809746,-0.00950748,-0.02894028,-0.81539892
'00:10:07.354,0.059570,0.028809,1.003418,0.365854,1.280488,-0.609756,-4.575000,18.112501,19.881250,29.121,0.57809482,-0.00951421,-0.02894072,-0.81540070
'00:10:07.364,0.059082,0.029297,1.003418,0.365854,1.402439,-0.609756,-4.875000,18.581251,20.181250,29.182,0.57808122,-0.00949624,-0.02892304,-0.81541118
'00:10:07.374,0.059570,0.028809,1.002930,0.365854,1.341463,-0.548781,-4.875000,18.581251,20.181250,29.152,0.57807199,-0.00948781,-0.02890813,-0.81541834
'00:10:07.384,0.058105,0.030273,1.002441,0.304878,1.341463,-0.609756,-4.425000,17.975000,19.743750,29.106,0.57807738,-0.00948700,-0.02891380,-0.81541433
'00:10:07.394,0.060547,0.029785,1.003418,0.304878,1.280488,-0.548781,-4.425000,17.975000,19.743750,29.121,0.57808690,-0.00950624,-0.02892899,-0.81540682
'00:10:07.404,0.059082,0.031250,1.005371,0.060976,0.975610,-0.548781,-4.462500,18.000000,19.806250,29.121,0.57809279,-0.00954251,-0.02894108,-0.81540179
'00:10:07.414,0.059082,0.029297,1.003418,-0.365854,0.609756,-0.548781,-4.462500,18.000000,19.806250,29.136,0.57809769,-0.00963413,-0.02893050,-0.81539761
'00:10:07.424,0.060547,0.028809,1.002930,-0.487805,0.426829,-0.487805,-4.450000,17.968750,19.781250,29.182,0.57810652,-0.00975432,-0.02892406,-0.81539016
'00:10:07.434,0.061035,0.028320,1.001465,-0.243902,0.670732,-0.487805,-4.450000,17.968750,19.781250,29.167,0.57811598,-0.00984806,-0.02892227,-0.81538238
'00:10:07.444,0.061035,0.028320,1.001465,-0.243902,0.670732,-0.487805,-4.700000,18.212500,19.987501,29.167,0.57811258,-0.00992832,-0.02890592,-0.81538440
'00:10:07.454,0.060059,0.026855,1.000977,0.304878,1.341463,-0.548781,-4.700000,18.212500,19.987501,29.136,0.57810723,-0.00993249,-0.02888293,-0.81538896
'00:10:07.464,0.060547,0.027832,1.000977,1.036585,2.012195,-0.670732,-4.668750,18.281250,19.918751,29.182,0.57809924,-0.00985314,-0.02889026,-0.81539532
'00:10:07.474,0.059082,0.029785,1.003418,1.280488,2.378049,-0.670732,-4.493750,17.937500,19.762501,29.121,0.57809734,-0.00972609,-0.02890705,-0.81539761
'00:10:07.484,0.057617,0.030273,1.004395,1.097561,2.195122,-0.670732,-4.493750,17.937500,19.762501,29.182,0.57809498,-0.00961274,-0.02891650,-0.81540029
'00:10:07.494,0.056641,0.032227,1.007324,0.365854,1.402439,-0.609756,-4.425000,17.918751,19.781250,29.121,0.57809852,-0.00958442,-0.02892504,-0.81539781
'00:10:07.504,0.060059,0.029297,1.002930,-0.182927,0.792683,-0.548781,-4.425000,17.918751,19.781250,29.182,0.57810487,-0.00966010,-0.02892381,-0.81539245
'00:10:07.515,0.060547,0.029297,1.002441,-0.121951,0.853659,-0.548781,-4.418750,17.968750,19.750000,29.136,0.57811370,-0.00973802,-0.02892790,-0.81538512
'00:10:07.524,0.060059,0.029297,1.004395,0.060976,1.036585,-0.487805,-4.418750,17.968750,19.750000,29.182,0.57812526,-0.00977794,-0.02893190,-0.81537631
'00:10:07.534,0.060547,0.029297,1.002930,0.182927,1.219512,-0.548781,-4.687500,18.281250,20.025000,29.152,0.57812136,-0.00979332,-0.02892361,-0.81537918
'00:10:07.544,0.060059,0.029785,1.002930,0.243902,1.280488,-0.609756,-4.687500,18.281250,20.025000,29.152,0.57811324,-0.00979624,-0.02891758,-0.81538512
'00:10:07.554,0.060059,0.028809,1.002930,0.365854,1.341463,-0.609756,-4.893750,18.506250,20.193750,29.136,0.57809616,-0.00978372,-0.02890102,-0.81539797
'00:10:07.565,0.061035,0.029297,1.002930,0.487805,1.463415,-0.609756,-4.893750,18.506250,20.193750,29.136,0.57807780,-0.00975769,-0.02889318,-0.81541157
'00:10:07.574,0.060547,0.028809,1.003906,0.609756,1.585366,-0.670732,-4.675000,18.337500,19.987501,29.182,0.57806996,-0.00973175,-0.02889649,-0.81541732
'00:10:07.584,0.058594,0.029785,1.003418,0.548781,1.524390,-0.609756,-4.675000,18.337500,19.987501,29.197,0.57806532,-0.00969627,-0.02889686,-0.81542102
'00:10:07.594,0.057129,0.029785,1.004395,0.121951,1.158537,-0.609756,-4.512500,18.006250,19.750000,29.152,0.57806442,-0.00970549,-0.02888482,-0.81542197
'00:10:07.604,0.058594,0.029785,1.003906,-0.121951,0.792683,-0.548781,-4.512500,18.006250,19.750000,29.121,0.57806668,-0.00976140,-0.02888012,-0.81541987
'00:10:07.614,0.061035,0.028809,1.001953,0.000000,0.914634,-0.548781,-4.487500,18.006250,19.800001,29.167,0.57807086,-0.00982144,-0.02888474,-0.81541603
'00:10:07.624,0.061035,0.027832,1.001465,0.487805,1.524390,-0.609756,-4.487500,18.006250,19.800001,29.182,0.57807272,-0.00981656,-0.02888773,-0.81541466
'00:10:07.634,0.060059,0.028320,1.001953,1.097561,2.134146,-0.670732,-4.450000,17.968750,19.843750,29.152,0.57807387,-0.00973199,-0.02890403,-0.81541428
'00:10:07.644,0.059082,0.029785,1.003418,1.219512,2.256098,-0.609756,-4.450000,17.968750,19.843750,29.182,0.57807962,-0.00962216,-0.02892662,-0.81541070
'00:10:07.654,0.058105,0.031250,1.004883,0.731707,1.768293,-0.609756,-4.831250,18.475000,20.156250,29.136,0.57806743,-0.00954580,-0.02892402,-0.81542033
'00:10:07.664,0.060059,0.029785,1.003906,0.243902,1.219512,-0.548781,-4.831250,18.475000,20.156250,29.197,0.57805823,-0.00955121,-0.02891443,-0.81542713
'00:10:07.675,0.059082,0.030762,1.004395,-0.060976,0.914634,-0.548781,-4.756250,18.443750,20.118750,29.152,0.57805171,-0.00959182,-0.02890421,-0.81543164
'00:10:07.684,0.060547,0.029297,1.002930,0.000000,0.975610,-0.548781,-4.756250,18.443750,20.118750,29.167,0.57804676,-0.00963071,-0.02889540,-0.81543501
'00:10:07.694,0.060547,0.028809,1.002441,0.365854,1.341463,-0.548781,-4.518750,18.062500,19.787500,29.167,0.57805175,-0.00963987,-0.02890122,-0.81543116
'00:10:07.704,0.060059,0.029297,1.001953,0.609756,1.585366,-0.609756,-4.518750,18.062500,19.787500,29.182,0.57805309,-0.00961447,-0.02891306,-0.81543009
'00:10:07.716,0.059082,0.029785,1.003418,0.670732,1.646341,-0.609756,-4.475000,17.981251,19.750000,29.136,0.57805661,-0.00956816,-0.02892860,-0.81542758
'00:10:07.724,0.059082,0.029785,1.002930,0.487805,1.524390,-0.548781,-4.475000,17.981251,19.750000,29.152,0.57806210,-0.00955233,-0.02893344,-0.81542371
'00:10:07.734,0.059082,0.030762,1.001953,0.365854,1.402439,-0.609756,-4.437500,17.943750,19.825001,29.152,0.57806547,-0.00954571,-0.02894500,-0.81542098
'00:10:07.744,0.058594,0.029785,1.004395,0.304878,1.341463,-0.609756,-4.668750,18.256250,19.981251,29.152,0.57805912,-0.00953741,-0.02893507,-0.81542593
'00:10:07.754,0.058594,0.030273,1.003418,0.365854,1.402439,-0.609756,-4.668750,18.256250,19.981251,29.182,0.57805291,-0.00952009,-0.02892976,-0.81543072
'00:10:07.764,0.058594,0.028809,1.003906,0.365854,1.341463,-0.609756,-4.831250,18.493750,20.181250,29.182,0.57804041,-0.00950708,-0.02891183,-0.81544037
'00:10:07.774,0.058594,0.029297,1.003418,0.182927,1.158537,-0.609756,-4.831250,18.493750,20.181250,29.152,0.57802729,-0.00951471,-0.02889340,-0.81545024
'00:10:07.784,0.059082,0.029297,1.003418,0.060976,1.097561,-0.548781,-4.475000,18.000000,19.806250,29.106,0.57803326,-0.00955007,-0.02888867,-0.81544576
'00:10:07.797,0.060059,0.029297,1.002441,0.060976,1.158537,-0.609756,-4.475000,18.000000,19.806250,29.182,0.57803541,-0.00959687,-0.02888423,-0.81544384
'00:10:07.804,0.060059,0.029297,1.003418,0.304878,1.219512,-0.548781,-4.437500,17.981251,19.812500,29.136,0.57804134,-0.00961143,-0.02889328,-0.81543915
'00:10:07.814,0.060547,0.028320,1.003418,0.365854,1.341463,-0.609756,-4.437500,17.981251,19.812500,29.152,0.57804594,-0.00962683,-0.02890057,-0.81543545
'00:10:07.824,0.059570,0.029297,1.003906,0.304878,1.280488,-0.609756,-4.475000,18.012501,19.787500,29.182,0.57804829,-0.00963767,-0.02890572,-0.81543347
'00:10:07.835,0.060059,0.029297,1.003418,0.304878,1.341463,-0.609756,-4.475000,18.012501,19.787500,29.136,0.57805098,-0.00964775,-0.02891026,-0.81543129
'00:10:07.844,0.058594,0.029785,1.003418,0.243902,1.219512,-0.609756,-4.637500,18.225000,19.956251,29.182,0.57804624,-0.00965099,-0.02890527,-0.81543478
'00:10:07.854,0.060547,0.029785,1.002930,0.121951,1.097561,-0.548781,-4.637500,18.225000,19.956251,29.182,0.57804486,-0.00968052,-0.02890524,-0.81543542
'00:10:07.864,0.059082,0.028809,1.003418,0.060976,1.036585,-0.548781,-4.712500,18.268751,19.981251,29.182,0.57803926,-0.00970879,-0.02888755,-0.81543968
'00:10:07.877,0.060547,0.029297,1.001953,0.060976,1.158537,-0.609756,-4.712500,18.268751,19.981251,29.167,0.57802653,-0.00974196,-0.02886889,-0.81544896
'00:10:07.884,0.059570,0.028320,1.003418,0.304878,1.341463,-0.609756,-4.662500,18.237501,20.006250,29.152,0.57802215,-0.00974245,-0.02885983,-0.81545239
'00:10:07.894,0.059082,0.029785,1.003906,0.426829,1.463415,-0.609756,-4.662500,18.237501,20.006250,29.167,0.57801603,-0.00971960,-0.02885577,-0.81545714
'00:10:07.904,0.060059,0.028320,1.003418,0.365854,1.402439,-0.609756,-4.437500,18.006250,19.856251,29.152,0.57802113,-0.00972682,-0.02885898,-0.81545333
'00:10:07.916,0.059570,0.029297,1.003418,0.304878,1.280488,-0.548781,-4.437500,18.006250,19.856251,29.182,0.57803175,-0.00974144,-0.02886928,-0.81544526
