# FW/GUI: v9.6.1-multi17-dual (PyQt5)
# StartTime: 2026-04-03 16:18:06
# Slot: 13
# DeviceID: 13
# Label: EMG13
# IP: 192.168.137.206
# TCP: 3333
# DeviceFW: EMG_FW_v9.6_MULTI17_DUALCH_RUNTIMECFG_CHEN
# EMG column notes: EMG_t_s=seconds since this Start; sample_idx=device sample index (ADS frame index); fs=sample rate (SPS); gain=gain; flags=0x01(TEST) 0x02(SHORT) 0x04(RLD); emg_valid=1 valid / 0 invalid (spike-guard decision); ch1_raw_uV=raw uV (after spike guard); ch1_filt_uV=filtered uV; ch1_env_uV=envelope (RMS) uV
EMG_t_s,sample_idx,fs,gain,flags,emg_valid,ch1_raw_uV,ch1_filt_uV,ch1_env_uV,ch2_raw_uV,ch2_filt_uV,ch2_env_uV
0.000000,542891,1000.00,12,0,1,1228.105,0.055,2.592,958.401,-1.078,0.994
0.001000,542892,1000.00,12,0,1,1226.928,0.720,2.591,958.329,-0.546,0.995
0.002000,542893,1000.00,12,0,1,1229.234,2.030,2.543,959.001,-0.253,0.995
0.003000,542894,1000.00,12,0,1,1231.300,4.626,2.623,959.866,0.882,1.000
0.004000,542895,1000.00,12,0,1,1230.915,2.825,2.567,958.785,-0.054,1.000
0.005000,542896,1000.00,12,0,1,1232.140,2.412,2.513,957.632,-1.214,0.982
0.006000,542897,1000.00,12,0,1,1231.852,1.003,2.517,957.080,-1.414,0.999
0.007000,542898,1000.00,12,0,1,1231.156,-1.577,2.469,957.680,-0.773,1.000
0.008000,542899,1000.00,12,0,1,1233.510,-0.917,2.356,958.905,0.670,1.002
0.009000,542900,1000.00,12,0,1,1234.542,-0.781,2.345,958.281,0.369,0.997
0.010000,542901,1000.00,12,0,1,1233.702,-2.589,2.374,959.482,0.958,0.993
0.011000,542902,1000.00,12,0,1,1238.938,0.631,2.375,960.274,2.086,1.031
0.012000,542903,1000.00,12,0,1,1241.028,3.416,2.406,959.698,1.158,1.041
0.013000,542904,1000.00,12,0,1,1238.962,0.517,2.406,957.632,-0.579,1.039
0.014000,542905,1000.00,12,0,1,1237.641,-0.381,2.405,958.377,-0.483,1.041
0.015000,542906,1000.00,12,0,1,1234.494,-2.096,2.377,959.434,1.056,1.048
0.016000,542907,1000.00,12,0,1,1232.933,-2.679,2.393,957.320,-0.755,1.050
0.017000,542908,1000.00,12,0,1,1229.282,-3.341,2.408,957.248,-1.308,1.066
0.018000,542909,1000.00,12,0,1,1228.874,-2.942,2.380,958.593,0.441,1.064
0.019000,542910,1000.00,12,0,1,1228.033,-0.759,2.369,958.977,0.704,1.015
0.020000,542911,1000.00,12,0,1,1226.568,-1.319,2.375,959.482,1.052,1.012
0.021000,542912,1000.00,12,0,1,1227.120,0.364,2.375,958.257,0.063,1.012
0.022000,542913,1000.00,12,0,1,1228.874,2.300,2.374,959.770,0.679,1.010
0.023000,542914,1000.00,12,0,1,1231.756,4.431,2.453,959.001,0.817,0.997
0.024000,542915,1000.00,12,0,1,1230.891,3.310,2.448,959.506,0.172,0.996
0.025000,542916,1000.00,12,0,1,1227.096,-1.761,2.401,960.082,1.298,1.001
0.026000,542917,1000.00,12,0,1,1228.033,-2.488,2.399,958.689,-0.284,0.999
0.027000,542918,1000.00,12,0,1,1236.296,3.375,2.426,961.307,1.371,1.017
0.028000,542919,1000.00,12,0,1,1237.689,4.500,2.492,960.563,1.688,1.018
0.029000,542920,1000.00,12,0,1,1233.486,-1.913,2.474,959.217,-0.751,1.007
0.030000,542921,1000.00,12,0,1,1236.128,-1.367,2.462,958.569,-0.716,0.978
0.031000,542922,1000.00,12,0,1,1234.278,-2.006,2.452,960.971,0.668,0.976
0.032000,542923,1000.00,12,0,1,1232.333,-5.104,2.356,960.611,1.345,0.990
0.033000,542924,1000.00,12,0,1,1235.407,-1.316,2.332,958.016,-1.694,1.018
0.034000,542925,1000.00,12,0,1,1232.645,-1.934,2.320,959.938,-0.294,0.992
0.035000,542926,1000.00,12,0,1,1227.000,-6.170,2.414,960.731,1.203,0.944
0.036000,542927,1000.00,12,0,1,1226.952,-4.515,2.497,959.986,-0.094,0.928
0.037000,542928,1000.00,12,0,1,1230.435,0.934,2.501,959.458,-0.388,0.928
0.038000,542929,1000.00,12,0,1,1230.651,3.283,2.535,957.248,-2.290,0.968
0.039000,542930,1000.00,12,0,1,1225.222,-0.244,2.506,958.233,-1.727,0.997
0.040000,542931,1000.00,12,0,1,1222.604,-2.207,2.496,960.250,0.707,0.989
0.041000,542932,1000.00,12,0,1,1221.139,-1.700,2.506,959.602,0.200,0.983
0.042000,542933,1000.00,12,0,1,1220.923,-1.531,2.512,960.611,0.510,0.985
0.043000,542934,1000.00,12,0,1,1220.851,-0.764,2.515,960.635,0.973,0.982
0.044000,542935,1000.00,12,0,1,1221.667,-0.461,2.514,957.632,-1.891,1.002
0.045000,542936,1000.00,12,0,1,1224.958,1.835,2.527,959.097,-1.181,1.015
0.046000,542937,1000.00,12,0,1,1229.042,4.425,2.592,959.290,0.139,1.011
0.047000,542938,1000.00,12,0,1,1229.330,3.392,2.583,957.896,-1.564,1.034
0.048000,542939,1000.00,12,0,1,1228.273,0.436,2.575,958.905,-0.502,1.032
0.049000,542940,1000.00,12,0,1,1230.723,0.915,2.578,957.296,-1.176,1.039
0.050000,542941,1000.00,12,0,1,1231.444,1.247,2.584,958.329,-0.963,1.036
0.051000,542942,1000.00,12,0,1,1231.780,0.196,2.582,959.890,1.399,1.052
0.052000,542943,1000.00,12,0,1,1231.059,-0.135,2.566,960.058,1.149,1.064
0.053000,542944,1000.00,12,0,1,1229.522,-1.554,2.491,959.290,0.610,1.060
0.054000,542945,1000.00,12,0,1,1229.330,-0.873,2.462,959.338,0.249,1.061
0.055000,542946,1000.00,12,0,1,1226.423,-1.708,2.450,959.482,0.562,1.050
0.056000,542947,1000.00,12,0,1,1227.624,-0.178,2.446,958.977,0.034,1.031
0.057000,542948,1000.00,12,0,1,1233.053,6.519,2.604,960.539,1.026,1.035
0.058000,542949,1000.00,12,0,1,1230.843,6.159,2.743,959.025,0.376,1.032
0.059000,542950,1000.00,12,0,1,1220.514,-2.552,2.764,959.410,-0.424,1.032
0.060000,542951,1000.00,12,0,1,1223.205,-1.279,2.746,957.752,-0.724,1.029
0.061000,542952,1000.00,12,0,1,1222.004,1.439,2.752,957.488,-1.940,1.023
0.062000,542953,1000.00,12,0,1,1223.349,0.317,2.710,958.040,-0.484,1.012
0.063000,542954,1000.00,12,0,1,1226.327,4.369,2.778,958.545,-0.271,1.009
0.064000,542955,1000.00,12,0,1,1224.502,1.409,2.785,957.320,-0.823,1.014
0.065000,542956,1000.00,12,0,1,1228.417,2.557,2.793,957.320,-1.141,1.016
0.066000,542957,1000.00,12,0,1,1226.447,1.269,2.773,957.800,-0.232,1.011
0.067000,542958,1000.00,12,0,1,1225.102,-3.490,2.776,957.560,-0.284,0.994
0.068000,542959,1000.00,12,0,1,1226.856,-1.832,2.757,959.338,0.977,1.002
0.069000,542960,1000.00,12,0,1,1228.177,-2.141,2.772,959.890,2.028,1.037
0.070000,542961,1000.00,12,0,1,1230.627,-0.453,2.766,960.851,1.991,1.065
0.071000,542962,1000.00,12,0,1,1231.468,-0.054,2.766,959.722,1.473,1.085
0.072000,542963,1000.00,12,0,1,1231.324,-0.590,2.748,960.082,0.647,1.084
0.073000,542964,1000.00,12,0,1,1230.027,-1.240,2.681,960.443,1.495,1.099
0.074000,542965,1000.00,12,0,1,1226.399,-3.642,2.690,959.650,0.271,1.099
0.075000,542966,1000.00,12,0,1,1225.967,-3.127,2.714,958.809,-0.463,1.086
0.076000,542967,1000.00,12,0,1,1224.598,-1.884,2.705,958.929,-0.482,1.087
0.077000,542968,1000.00,12,0,1,1224.238,-1.073,2.667,959.242,-0.066,1.070
0.078000,542969,1000.00,12,0,1,1223.013,0.126,2.590,958.305,-0.686,1.047
0.079000,542970,1000.00,12,0,1,1221.932,0.108,2.575,959.842,0.160,1.042
0.080000,542971,1000.00,12,0,1,1218.352,-1.264,2.574,959.338,0.564,1.040
0.081000,542972,1000.00,12,0,1,1218.256,-1.352,2.566,958.953,-0.623,1.040
0.082000,542973,1000.00,12,0,1,1220.731,1.949,2.478,960.250,0.840,1.029
0.083000,542974,1000.00,12,0,1,1223.997,4.381,2.547,959.578,0.281,1.001
0.084000,542975,1000.00,12,0,1,1224.310,4.158,2.600,960.563,0.533,1.003
0.085000,542976,1000.00,12,0,1,1227.048,4.244,2.521,958.449,-0.559,0.992
0.086000,542977,1000.00,12,0,1,1229.594,5.280,2.551,958.089,-1.942,1.029
0.087000,542978,1000.00,12,0,1,1229.426,2.957,2.582,959.698,0.260,1.028
0.088000,542979,1000.00,12,0,1,1228.585,0.165,2.540,958.281,-0.841,0.983
0.089000,542980,1000.00,12,0,1,1232.357,1.525,2.549,957.656,-1.699,0.982
0.090000,542981,1000.00,12,0,1,1234.951,3.207,2.570,958.377,-0.632,0.981
0.091000,542982,1000.00,12,0,1,1234.639,1.600,2.568,959.049,0.019,0.981
0.092000,542983,1000.00,12,0,1,1233.005,-0.504,2.560,958.641,-0.049,0.978
0.093000,542984,1000.00,12,0,1,1229.762,-3.132,2.596,958.209,-0.615,0.973
0.094000,542985,1000.00,12,0,1,1231.372,-1.830,2.608,960.130,1.018,0.946
0.095000,542986,1000.00,12,0,1,1231.780,0.777,2.597,958.641,0.356,0.933
0.096000,542987,1000.00,12,0,1,1231.996,1.088,2.526,958.449,-0.721,0.938
0.097000,542988,1000.00,12,0,1,1230.963,1.927,2.495,959.169,0.573,0.915
0.098000,542989,1000.00,12,0,1,1227.673,-0.383,2.494,959.530,0.593,0.916
0.099000,542990,1000.00,12,0,1,1226.351,-0.817,2.494,957.920,-0.463,0.903
0.100000,542991,1000.00,12,0,1,1225.991,-0.056,2.488,956.647,-1.895,0.932
0.101000,542992,1000.00,12,0,1,1224.550,-0.840,2.490,957.752,-0.708,0.917
0.102000,542993,1000.00,12,0,1,1223.325,-1.774,2.503,959.169,0.916,0.911
0.103000,542994,1000.00,12,0,1,1221.211,-3.532,2.543,956.671,-0.922,0.917
0.104000,542995,1000.00,12,0,1,1225.727,-0.795,2.542,958.809,-0.007,0.916
0.105000,542996,1000.00,12,0,1,1224.670,-0.633,2.532,959.986,2.186,0.963
0.106000,542997,1000.00,12,0,1,1228.633,-0.543,2.533,956.960,-0.926,0.972
0.107000,542998,1000.00,12,0,1,1232.549,3.423,2.409,958.257,-0.455,0.963
0.108000,542999,1000.00,12,0,1,1230.579,-0.482,2.247,959.362,1.439,0.983
0.109000,543000,1000.00,12,0,1,1230.843,-2.039,2.236,959.242,0.684,0.986
0.110000,543001,1000.00,12,0,1,1233.774,0.003,2.229,958.833,0.555,0.984
0.111000,543002,1000.00,12,0,1,1234.975,0.518,2.221,958.497,-0.121,0.945
0.112000,543003,1000.00,12,0,1,1236.080,1.094,2.226,959.530,0.785,0.949
0.113000,543004,1000.00,12,0,1,1236.800,1.654,2.151,959.145,0.638,0.953
0.114000,543005,1000.00,12,0,1,1237.233,2.332,2.167,960.178,0.939,0.955
0.115000,543006,1000.00,12,0,1,1234.735,0.856,2.140,959.626,0.968,0.951
0.116000,543007,1000.00,12,0,1,1234.398,0.770,2.135,959.770,0.272,0.951
0.117000,543008,1000.00,12,0,1,1234.182,2.071,2.098,959.217,0.292,0.951
0.118000,543009,1000.00,12,0,1,1233.678,2.181,2.105,958.857,-0.539,0.944
0.119000,543010,1000.00,12,0,1,1232.333,1.877,2.100,958.569,-0.460,0.902
0.120000,543011,1000.00,12,0,1,1231.396,1.224,2.106,958.905,-0.337,0.858
0.121000,543012,1000.00,12,0,1,1229.066,-0.326,2.106,958.857,-0.128,0.833
0.122000,543013,1000.00,12,0,1,1226.159,-3.040,2.148,959.169,-0.010,0.828
0.123000,543014,1000.00,12,0,1,1222.076,-6.336,2.321,958.040,-0.723,0.807
0.124000,543015,1000.00,12,0,1,1224.910,-4.763,2.361,958.809,-0.487,0.809
0.125000,543016,1000.00,12,0,1,1230.699,0.848,2.322,958.449,-0.176,0.807
0.126000,543017,1000.00,12,0,1,1235.239,3.502,2.360,958.593,-0.532,0.807
0.127000,543018,1000.00,12,0,1,1240.692,6.188,2.512,957.728,-0.772,0.814
0.128000,543019,1000.00,12,0,1,1237.449,2.361,2.534,959.410,0.101,0.809
0.129000,543020,1000.00,12,0,1,1235.671,-2.875,2.567,960.539,1.704,0.844
0.130000,543021,1000.00,12,0,1,1239.323,-0.032,2.560,959.025,0.076,0.840
0.131000,543022,1000.00,12,0,1,1239.539,-0.255,2.553,958.785,-0.579,0.839
0.132000,543023,1000.00,12,0,1,1234.446,-4.816,2.628,959.410,0.267,0.832
0.133000,543024,1000.00,12,0,1,1235.263,-4.674,2.638,960.034,0.586,0.835
0.134000,543025,1000.00,12,0,1,1238.842,0.436,2.573,960.779,1.300,0.851
0.135000,543026,1000.00,12,0,1,1237.737,0.723,2.504,959.962,0.471,0.850
0.136000,543027,1000.00,12,0,1,1233.293,-2.210,2.410,957.776,-1.481,0.832
0.137000,543028,1000.00,12,0,1,1232.741,-1.796,2.387,958.809,-0.969,0.842
0.138000,543029,1000.00,12,0,1,1230.363,-1.455,2.396,958.737,-0.100,0.834
0.139000,543030,1000.00,12,0,1,1230.699,-0.748,2.389,957.776,-1.303,0.819
0.140000,543031,1000.00,12,0,1,1228.441,-0.440,2.346,958.545,-0.396,0.816
0.141000,543032,1000.00,12,0,1,1228.922,-0.586,2.337,959.097,0.351,0.818
0.142000,543033,1000.00,12,0,1,1227.865,0.010,2.335,960.010,0.947,0.829
0.143000,543034,1000.00,12,0,1,1228.970,-0.297,2.293,960.563,1.523,0.852
0.144000,543035,1000.00,12,0,1,1233.702,3.570,2.334,959.842,0.601,0.844
0.145000,543036,1000.00,12,0,1,1235.840,4.491,2.416,958.329,-0.825,0.850
0.146000,543037,1000.00,12,0,1,1235.095,1.692,2.423,958.161,-1.228,0.862
0.147000,543038,1000.00,12,0,1,1237.161,1.400,2.416,960.851,1.124,0.873
0.148000,543039,1000.00,12,0,1,1240.644,2.805,2.448,959.938,0.908,0.878
0.149000,543040,1000.00,12,0,1,1239.539,0.805,2.448,958.473,-1.217,0.892
0.150000,543041,1000.00,12,0,1,1239.371,-1.584,2.458,959.097,-0.462,0.854
0.151000,543042,1000.00,12,0,1,1240.860,-0.355,2.456,960.731,0.914,0.858
0.152000,543043,1000.00,12,0,1,1238.986,-2.069,2.460,959.818,0.448,0.850
0.153000,543044,1000.00,12,0,1,1239.683,-1.743,2.422,959.242,-0.630,0.845
0.154000,543045,1000.00,12,0,1,1239.058,-0.678,2.421,959.169,-0.381,0.847
0.155000,543046,1000.00,12,0,1,1240.259,0.466,2.420,959.242,-0.372,0.790
0.156000,543047,1000.00,12,0,1,1238.025,0.779,2.421,958.449,-0.786,0.787
0.157000,543048,1000.00,12,0,1,1235.287,-1.447,2.381,958.881,-0.559,0.788
0.158000,543049,1000.00,12,0,1,1235.263,0.105,2.380,959.962,0.680,0.767
0.159000,543050,1000.00,12,0,1,1236.032,1.828,2.377,958.185,-0.537,0.765
0.160000,543051,1000.00,12,0,1,1231.300,-0.959,2.381,958.641,-0.802,0.770
0.161000,543052,1000.00,12,0,1,1228.249,-4.044,2.447,960.563,1.490,0.798
0.162000,543053,1000.00,12,0,1,1228.561,-2.841,2.475,959.001,0.183,0.790
0.163000,543054,1000.00,12,0,1,1228.057,-2.828,2.497,958.881,-0.538,0.789
0.164000,543055,1000.00,12,0,1,1228.994,-2.584,2.502,958.689,-0.186,0.778
0.165000,543056,1000.00,12,0,1,1235.215,2.094,2.516,957.656,-1.297,0.788
0.166000,543057,1000.00,12,0,1,1238.146,4.157,2.582,957.896,-0.987,0.799
0.167000,543058,1000.00,12,0,1,1240.884,3.868,2.623,958.785,-0.009,0.798
0.168000,543059,1000.00,12,0,1,1240.812,2.612,2.630,960.322,1.257,0.814
0.169000,543060,1000.00,12,0,1,1240.572,-0.049,2.617,959.169,0.578,0.815
0.170000,543061,1000.00,12,0,1,1234.879,-4.963,2.704,960.298,0.606,0.818
0.171000,543062,1000.00,12,0,1,1235.335,-6.442,2.853,960.010,1.137,0.834
0.172000,543063,1000.00,12,0,1,1238.914,-1.339,2.827,960.250,0.386,0.836
0.173000,543064,1000.00,12,0,1,1245.808,4.343,2.750,960.395,0.969,0.841
0.174000,543065,1000.00,12,0,1,1248.691,8.292,2.913,959.530,-0.143,0.838
0.175000,543066,1000.00,12,0,1,1243.574,3.604,2.955,959.842,-0.007,0.838
0.176000,543067,1000.00,12,0,1,1238.962,-0.812,2.915,956.359,-2.270,0.894
0.177000,543068,1000.00,12,0,1,1237.449,-0.755,2.783,958.569,-1.570,0.915
0.178000,543069,1000.00,12,0,1,1236.920,-0.172,2.763,958.785,0.689,0.920
0.179000,543070,1000.00,12,0,1,1234.999,-0.225,2.733,961.740,1.574,0.915
0.180000,543071,1000.00,12,0,1,1231.900,-2.379,2.754,958.521,0.762,0.921
0.181000,543072,1000.00,12,0,1,1232.957,-1.011,2.757,959.314,-1.038,0.929
0.182000,543073,1000.00,12,0,1,1231.900,-0.837,2.674,958.881,0.615,0.933
0.183000,543074,1000.00,12,0,1,1230.795,-2.562,2.617,958.329,-1.191,0.944
0.184000,543075,1000.00,12,0,1,1234.086,-0.176,2.616,957.824,-0.816,0.933
0.185000,543076,1000.00,12,0,1,1235.599,0.885,2.617,959.338,0.052,0.931
0.186000,543077,1000.00,12,0,1,1236.584,-0.119,2.598,959.073,0.372,0.908
0.187000,543078,1000.00,12,0,1,1241.364,2.459,2.609,958.425,-0.527,0.901
0.188000,543079,1000.00,12,0,1,1240.788,1.270,2.607,959.001,-0.178,0.901
0.189000,543080,1000.00,12,0,1,1238.314,-3.191,2.644,958.881,0.160,0.883
0.190000,543081,1000.00,12,0,1,1234.903,-6.231,2.786,958.521,-0.613,0.885
0.191000,543082,1000.00,12,0,1,1231.540,-9.255,3.077,957.224,-1.144,0.898
0.192000,543083,1000.00,12,0,1,1231.156,-8.374,3.297,958.977,-0.324,0.889
0.193000,543084,1000.00,12,0,1,1232.212,-5.458,3.386,961.043,2.396,0.927
0.194000,543085,1000.00,12,0,1,1234.398,-1.811,3.358,959.049,0.405,0.925
0.195000,543086,1000.00,12,0,1,1236.176,1.774,3.307,958.449,-0.618,0.922
0.196000,543087,1000.00,12,0,1,1233.798,1.375,3.304,957.056,-1.208,0.921
0.197000,543088,1000.00,12,0,1,1230.195,-0.629,3.299,957.776,-1.036,0.919
0.198000,543089,1000.00,12,0,1,1233.029,2.671,3.297,957.872,0.028,0.910
0.199000,543090,1000.00,12,0,1,1239.154,9.530,3.560,957.416,-0.688,0.899
0.200000,543091,1000.00,12,0,1,1246.625,15.401,4.167,957.416,-0.303,0.898
0.201000,543092,1000.00,12,0,1,1246.721,15.013,4.677,957.632,-0.079,0.888
0.202000,543093,1000.00,12,0,1,1238.290,5.034,4.722,959.242,1.260,0.904
0.203000,543094,1000.00,12,0,1,1232.717,-2.287,4.726,958.569,1.087,0.912
0.204000,543095,1000.00,12,0,1,1232.765,-3.021,4.745,957.992,-0.137,0.911
0.205000,543096,1000.00,12,0,1,1231.612,-4.216,4.781,958.449,0.502,0.912
0.206000,543097,1000.00,12,0,1,1231.252,-5.554,4.844,958.929,0.683,0.911
0.207000,543098,1000.00,12,0,1,1236.008,-2.182,4.850,959.362,1.023,0.919
0.208000,543099,1000.00,12,0,1,1236.536,-1.337,4.853,960.178,1.415,0.935
0.209000,543100,1000.00,12,0,1,1234.951,-4.299,4.885,959.962,1.175,0.947
0.210000,543101,1000.00,12,0,1,1235.455,-3.933,4.914,960.707,1.227,0.956
0.211000,543102,1000.00,12,0,1,1236.680,-2.782,4.897,959.314,0.314,0.934
0.212000,543103,1000.00,12,0,1,1242.661,2.202,4.890,958.425,-1.147,0.947
0.213000,543104,1000.00,12,0,1,1244.727,5.270,4.930,958.737,-0.529,0.947
0.214000,543105,1000.00,12,0,1,1244.367,3.917,4.948,956.047,-2.394,1.005
0.215000,543106,1000.00,12,0,1,1244.031,4.072,4.972,958.329,-1.165,1.002
0.216000,543107,1000.00,12,0,1,1242.301,2.694,4.952,959.602,1.488,1.015
0.217000,543108,1000.00,12,0,1,1237.041,-0.974,4.924,959.121,0.273,1.015
0.218000,543109,1000.00,12,0,1,1236.969,-1.179,4.913,959.698,0.988,1.009
0.219000,543110,1000.00,12,0,1,1234.278,-1.015,4.915,959.338,0.599,1.010
0.220000,543111,1000.00,12,0,1,1233.077,-2.434,4.877,958.425,-0.369,1.007
0.221000,543112,1000.00,12,0,1,1230.003,-3.079,4.811,958.737,-0.197,0.995
0.222000,543113,1000.00,12,0,1,1227.600,-5.408,4.867,959.169,0.260,0.994
0.223000,543114,1000.00,12,0,1,1231.011,-1.951,4.836,958.257,-0.443,0.986
0.224000,543115,1000.00,12,0,1,1235.840,2.654,4.707,956.671,-1.952,1.024
0.225000,543116,1000.00,12,0,1,1235.767,1.933,4.687,956.167,-2.240,1.072
0.226000,543117,1000.00,12,0,1,1234.446,-0.796,4.687,957.968,-0.567,1.026
0.227000,543118,1000.00,12,0,1,1235.719,-1.126,4.689,958.185,0.274,1.002
0.228000,543119,1000.00,12,0,1,1239.178,1.023,4.691,958.185,-0.167,0.998
0.229000,543120,1000.00,12,0,1,1243.646,3.572,4.718,957.416,-0.427,0.975
0.230000,543121,1000.00,12,0,1,1246.000,4.713,4.753,960.250,1.304,0.986
0.231000,543122,1000.00,12,0,1,1245.808,2.982,4.769,959.602,1.816,1.008
0.232000,543123,1000.00,12,0,1,1242.830,-0.173,4.768,958.617,-0.270,1.005
0.233000,543124,1000.00,12,0,1,1240.596,-2.724,4.770,959.386,0.767,0.997
0.234000,543125,1000.00,12,0,1,1238.554,-3.391,4.794,958.857,0.324,0.991
0.235000,543126,1000.00,12,0,1,1236.416,-4.187,4.829,958.857,0.026,0.991
0.236000,543127,1000.00,12,0,1,1234.927,-3.735,4.857,960.130,1.292,1.007
0.237000,543128,1000.00,12,0,1,1232.837,-3.570,4.871,959.602,0.873,1.011
0.238000,543129,1000.00,12,0,1,1232.453,-2.401,4.880,958.929,0.015,1.011
0.239000,543130,1000.00,12,0,1,1233.245,0.161,4.859,959.338,0.273,1.012
0.240000,543131,1000.00,12,0,1,1234.398,2.061,4.787,959.818,0.793,1.014
0.241000,543132,1000.00,12,0,1,1233.870,2.373,4.617,956.647,-1.699,1.030
0.242000,543133,1000.00,12,0,1,1234.566,2.357,4.475,957.704,-1.630,1.054
0.243000,543134,1000.00,12,0,1,1236.344,3.643,4.438,956.936,-0.858,1.006
0.244000,543135,1000.00,12,0,1,1233.125,0.324,4.431,958.929,-0.264,1.005
0.245000,543136,1000.00,12,0,1,1235.383,-0.186,4.424,958.113,0.464,1.003
0.246000,543137,1000.00,12,0,1,1237.761,2.128,4.430,960.563,0.973,0.998
0.247000,543138,1000.00,12,0,1,1237.617,-0.058,4.429,958.617,0.829,0.994
0.248000,543139,1000.00,12,0,1,1238.049,-0.787,4.414,960.659,0.464,0.996
0.249000,543140,1000.00,12,0,1,1239.491,-0.691,4.204,958.497,0.412,0.993
0.250000,543141,1000.00,12,0,1,1238.049,-2.176,3.609,955.951,-3.371,1.101
0.251000,543142,1000.00,12,0,1,1231.588,-7.746,3.118,957.176,-1.623,1.124
0.252000,543143,1000.00,12,0,1,1229.402,-9.713,3.332,959.434,0.732,1.115
0.253000,543144,1000.00,12,0,1,1239.130,0.070,3.316,957.128,-0.812,1.110
0.254000,543145,1000.00,12,0,1,1241.124,4.995,3.363,958.137,-0.628,1.114
0.255000,543146,1000.00,12,0,1,1242.205,4.572,3.372,957.824,0.105,1.111
0.256000,543147,1000.00,12,0,1,1239.106,3.996,3.328,959.962,1.214,1.120
0.257000,543148,1000.00,12,0,1,1236.176,0.557,3.315,958.449,0.943,1.119
0.258000,543149,1000.00,12,0,1,1231.276,-1.572,3.317,957.800,-0.680,1.105
0.259000,543150,1000.00,12,0,1,1229.234,-3.265,3.293,958.089,0.181,1.093
0.260000,543151,1000.00,12,0,1,1228.970,-1.497,3.253,959.121,0.875,1.086
0.261000,543152,1000.00,12,0,1,1227.168,-2.049,3.242,959.073,1.002,1.094
0.262000,543153,1000.00,12,0,1,1226.015,-2.718,3.250,958.329,0.196,1.083
0.263000,543154,1000.00,12,0,1,1226.303,-1.787,3.173,959.242,0.555,1.083
0.264000,543155,1000.00,12,0,1,1229.042,0.094,3.124,960.178,1.682,1.056
0.265000,543156,1000.00,12,0,1,1228.801,0.361,3.071,959.890,0.921,1.051
0.266000,543157,1000.00,12,0,1,1232.693,1.392,3.054,958.977,0.079,1.030
0.267000,543158,1000.00,12,0,1,1234.663,3.534,3.091,960.419,0.644,1.033
0.268000,543159,1000.00,12,0,1,1240.115,5.075,3.169,959.217,0.296,1.024
0.269000,543160,1000.00,12,0,1,1243.646,8.000,3.362,958.785,-1.118,1.033
0.270000,543161,1000.00,12,0,1,1245.088,6.320,3.462,959.242,-0.139,1.032
0.271000,543162,1000.00,12,0,1,1243.694,4.157,3.484,957.560,-1.602,1.056
0.272000,543163,1000.00,12,0,1,1240.403,-0.119,3.399,958.737,-0.945,1.064
0.273000,543164,1000.00,12,0,1,1239.419,-1.406,3.394,959.530,0.569,1.065
0.274000,543165,1000.00,12,0,1,1242.685,1.916,3.384,958.401,-0.693,1.033
0.275000,543166,1000.00,12,0,1,1236.584,-1.387,3.379,958.881,-0.297,0.985
0.276000,543167,1000.00,12,0,1,1231.756,-6.128,3.486,957.056,-1.297,0.998
0.277000,543168,1000.00,12,0,1,1230.243,-4.780,3.547,957.200,-1.680,1.025
0.278000,543169,1000.00,12,0,1,1227.360,-5.267,3.622,959.338,0.864,1.032
0.279000,543170,1000.00,12,0,1,1225.391,-5.260,3.663,959.049,0.818,1.037
0.280000,543171,1000.00,12,0,1,1223.973,-4.330,3.653,959.049,0.386,1.022
0.281000,543172,1000.00,12,0,1,1222.844,-4.153,3.676,958.857,0.462,0.991
0.282000,543173,1000.00,12,0,1,1222.628,-3.059,3.701,961.692,2.168,1.037
0.283000,543174,1000.00,12,0,1,1227.745,1.097,3.685,960.851,2.240,1.079
0.284000,543175,1000.00,12,0,1,1235.167,7.758,3.814,959.001,-0.674,1.082
0.285000,543176,1000.00,12,0,1,1234.182,5.937,3.861,959.290,-0.267,1.083
0.286000,543177,1000.00,12,0,1,1231.396,0.623,3.825,960.779,0.817,1.074
0.287000,543178,1000.00,12,0,1,1234.879,1.759,3.800,959.602,0.108,1.066
0.288000,543179,1000.00,12,0,1,1241.701,6.352,3.890,958.401,-1.484,1.087
0.289000,543180,1000.00,12,0,1,1246.216,8.631,4.077,959.121,-0.744,1.091
0.290000,543181,1000.00,12,0,1,1245.568,6.090,4.157,960.563,0.687,1.090
0.291000,543182,1000.00,12,0,1,1248.042,5.472,4.215,958.257,-0.949,1.072
0.292000,543183,1000.00,12,0,1,1248.595,5.727,4.279,958.569,-1.414,1.065
0.293000,543184,1000.00,12,0,1,1244.655,1.057,4.250,957.824,-0.995,1.068
0.294000,543185,1000.00,12,0,1,1245.015,0.681,4.251,959.482,-0.273,1.068
0.295000,543186,1000.00,12,0,1,1236.224,-4.432,4.297,959.842,1.064,1.076
0.296000,543187,1000.00,12,0,1,1230.003,-10.644,4.543,959.434,0.077,1.068
0.297000,543188,1000.00,12,0,1,1228.153,-8.380,4.695,959.842,0.550,1.064
0.298000,543189,1000.00,12,0,1,1227.168,-7.203,4.803,957.536,-1.116,1.074
0.299000,543190,1000.00,12,0,1,1227.048,-4.562,4.845,958.665,-0.990,1.081
0.300000,543191,1000.00,12,0,1,1227.480,-2.526,4.849,958.641,0.279,0.971
0.301000,543192,1000.00,12,0,1,1225.030,-3.126,4.744,958.353,-0.825,0.951
0.302000,543193,1000.00,12,0,1,1223.325,-4.355,4.582,956.311,-1.642,0.973
0.303000,543194,1000.00,12,0,1,1225.799,-2.019,4.591,957.776,-1.269,0.983
0.304000,543195,1000.00,12,0,1,1233.077,3.983,4.571,959.506,1.407,0.999
0.305000,543196,1000.00,12,0,1,1237.689,7.248,4.640,958.881,0.487,1.001
0.306000,543197,1000.00,12,0,1,1239.539,6.345,4.692,958.929,0.316,0.987
0.307000,543198,1000.00,12,0,1,1242.253,5.974,4.767,959.386,0.797,0.985
0.308000,543199,1000.00,12,0,1,1243.910,5.311,4.821,957.536,-0.761,0.986
0.309000,543200,1000.00,12,0,1,1243.478,2.598,4.813,958.833,-0.151,0.986
0.310000,543201,1000.00,12,0,1,1242.061,-0.096,4.808,958.617,0.493,0.981
0.311000,543202,1000.00,12,0,1,1242.133,-1.129,4.802,958.569,-0.157,0.971
0.312000,543203,1000.00,12,0,1,1245.544,1.691,4.792,960.082,1.375,0.990
0.313000,543204,1000.00,12,0,1,1241.605,-0.363,4.786,958.497,0.326,0.987
0.314000,543205,1000.00,12,0,1,1241.797,-1.354,4.790,957.128,-1.480,0.981
0.315000,543206,1000.00,12,0,1,1238.866,-0.715,4.791,957.848,-0.424,0.974
0.316000,543207,1000.00,12,0,1,1234.711,-4.246,4.824,959.866,1.267,0.990
0.317000,543208,1000.00,12,0,1,1233.197,-3.146,4.819,957.896,0.268,0.987
0.318000,543209,1000.00,12,0,1,1235.311,0.043,4.765,957.752,-0.920,0.995
0.319000,543210,1000.00,12,0,1,1237.593,3.709,4.658,957.920,0.148,0.982
0.320000,543211,1000.00,12,0,1,1235.767,2.804,4.589,958.521,0.144,0.982
0.321000,543212,1000.00,12,0,1,1235.023,1.210,4.554,958.977,0.928,0.965
0.322000,543213,1000.00,12,0,1,1235.719,1.851,4.562,958.857,0.543,0.958
0.323000,543214,1000.00,12,0,1,1227.120,-5.627,4.626,959.458,0.844,0.963
0.324000,543215,1000.00,12,0,1,1226.279,-8.885,4.786,957.752,-0.326,0.959
0.325000,543216,1000.00,12,0,1,1232.477,-2.444,4.795,959.242,-0.023,0.958
0.326000,543217,1000.00,12,0,1,1231.828,-3.076,4.736,959.506,1.230,0.956
0.327000,543218,1000.00,12,0,1,1228.609,-7.343,4.801,959.362,0.126,0.926
0.328000,543219,1000.00,12,0,1,1227.769,-8.220,4.883,958.473,-0.129,0.918
0.329000,543220,1000.00,12,0,1,1230.651,-5.809,4.896,959.169,-0.206,0.911
0.330000,543221,1000.00,12,0,1,1239.058,1.813,4.864,960.202,1.156,0.924
0.331000,543222,1000.00,12,0,1,1240.740,4.437,4.869,960.298,0.967,0.932
0.332000,543223,1000.00,12,0,1,1244.415,5.697,4.916,957.968,-0.936,0.890
0.333000,543224,1000.00,12,0,1,1245.664,8.021,5.043,959.602,-0.255,0.833
0.334000,543225,1000.00,12,0,1,1242.229,4.214,4.958,958.737,0.142,0.827
0.335000,543226,1000.00,12,0,1,1240.932,3.197,4.907,959.121,-0.525,0.830
0.336000,543227,1000.00,12,0,1,1241.556,4.680,4.951,957.248,-1.050,0.835
0.337000,543228,1000.00,12,0,1,1239.779,4.079,4.978,959.338,-0.365,0.836
0.338000,543229,1000.00,12,0,1,1236.848,2.117,4.906,961.211,2.423,0.879
0.339000,543230,1000.00,12,0,1,1232.933,-0.521,4.752,960.419,1.123,0.887
0.340000,543231,1000.00,12,0,1,1232.837,-0.357,4.674,960.058,0.411,0.884
0.341000,543232,1000.00,12,0,1,1230.531,-0.993,4.611,958.929,-0.408,0.875
0.342000,543233,1000.00,12,0,1,1226.447,-4.818,4.591,958.929,-0.999,0.864
0.343000,543234,1000.00,12,0,1,1228.249,-3.625,4.617,960.178,0.507,0.855
0.344000,543235,1000.00,12,0,1,1230.003,-1.411,4.620,957.608,-1.560,0.883
0.345000,543236,1000.00,12,0,1,1230.603,-2.157,4.587,959.049,-1.103,0.884
0.346000,543237,1000.00,12,0,1,1236.320,1.419,4.338,959.217,0.199,0.884
0.347000,543238,1000.00,12,0,1,1236.440,1.263,4.177,959.362,-0.457,0.883
0.348000,543239,1000.00,12,0,1,1238.434,-0.154,4.051,959.193,-0.046,0.869
0.349000,543240,1000.00,12,0,1,1241.701,2.328,4.013,958.617,-0.819,0.865
0.350000,543241,1000.00,12,0,1,1247.754,5.287,4.066,957.968,-1.158,0.880
0.351000,543242,1000.00,12,0,1,1249.291,6.537,4.146,956.743,-1.945,0.914
0.352000,543243,1000.00,12,0,1,1242.133,-0.960,4.103,957.344,-1.464,0.908
0.353000,543244,1000.00,12,0,1,1239.779,-4.229,4.136,959.025,0.625,0.895
0.354000,543245,1000.00,12,0,1,1236.944,-4.153,4.139,959.914,1.378,0.894
0.355000,543246,1000.00,12,0,1,1236.993,-3.791,4.046,958.233,0.186,0.891
0.356000,543247,1000.00,12,0,1,1237.329,-0.291,3.946,958.641,-0.187,0.891
0.357000,543248,1000.00,12,0,1,1233.654,-2.036,3.865,959.650,1.293,0.902
0.358000,543249,1000.00,12,0,1,1232.645,-1.554,3.797,959.818,1.084,0.909
0.359000,543250,1000.00,12,0,1,1232.212,0.129,3.780,958.016,-0.285,0.909
0.360000,543251,1000.00,12,0,1,1232.212,0.815,3.781,958.857,-0.246,0.907
0.361000,543252,1000.00,12,0,1,1234.807,3.567,3.812,960.947,2.027,0.951
0.362000,543253,1000.00,12,0,1,1234.206,3.233,3.831,959.938,1.107,0.944
0.363000,543254,1000.00,12,0,1,1231.156,-0.587,3.832,958.857,-0.452,0.945
0.364000,543255,1000.00,12,0,1,1230.843,-2.102,3.839,958.665,-0.463,0.924
0.365000,543256,1000.00,12,0,1,1233.173,-0.933,3.840,959.794,0.254,0.923
0.366000,543257,1000.00,12,0,1,1236.872,0.954,3.795,960.587,1.241,0.922
0.367000,543258,1000.00,12,0,1,1242.685,4.236,3.816,958.689,-0.516,0.924
0.368000,543259,1000.00,12,0,1,1241.725,2.412,3.831,957.200,-2.080,0.961
0.369000,543260,1000.00,12,0,1,1240.427,-1.682,3.803,959.578,-0.050,0.961
0.370000,543261,1000.00,12,0,1,1241.364,-1.369,3.787,961.043,1.854,0.996
0.371000,543262,1000.00,12,0,1,1245.304,1.047,3.786,960.611,1.065,0.999
0.372000,543263,1000.00,12,0,1,1248.042,3.822,3.815,960.370,0.622,1.000
0.373000,543264,1000.00,12,0,1,1249.363,4.389,3.783,960.202,0.348,0.994
0.374000,543265,1000.00,12,0,1,1243.983,0.623,3.569,960.947,0.727,0.998
0.375000,543266,1000.00,12,0,1,1242.733,-1.282,3.557,958.737,-0.757,1.004
0.376000,543267,1000.00,12,0,1,1243.718,1.866,3.540,958.281,-1.942,1.026
0.377000,543268,1000.00,12,0,1,1241.749,1.229,3.389,957.392,-1.716,1.054
0.378000,543269,1000.00,12,0,1,1237.569,-1.261,3.188,957.008,-2.357,1.105
0.379000,543270,1000.00,12,0,1,1234.062,-3.238,3.114,959.290,0.071,1.105
0.380000,543271,1000.00,12,0,1,1234.494,-2.064,3.117,959.169,0.542,1.096
0.381000,543272,1000.00,12,0,1,1235.767,0.390,3.054,959.506,0.194,1.087
0.382000,543273,1000.00,12,0,1,1232.957,-1.858,2.957,960.178,1.157,1.092
0.383000,543274,1000.00,12,0,1,1232.164,-3.366,2.772,959.578,0.316,1.092
0.384000,543275,1000.00,12,0,1,1235.071,-1.253,2.713,959.458,0.063,1.092
0.385000,543276,1000.00,12,0,1,1240.091,2.079,2.692,958.257,-0.829,1.096
0.386000,543277,1000.00,12,0,1,1245.112,4.817,2.696,959.410,-0.282,1.086
0.387000,543278,1000.00,12,0,1,1245.544,3.365,2.677,958.881,0.061,1.085
0.388000,543279,1000.00,12,0,1,1244.703,-0.177,2.660,957.968,-1.285,1.045
0.389000,543280,1000.00,12,0,1,1245.256,-1.231,2.665,959.145,0.002,1.033
0.390000,543281,1000.00,12,0,1,1244.487,-2.761,2.693,958.737,0.035,1.032
0.391000,543282,1000.00,12,0,1,1240.115,-6.598,2.846,957.368,-1.313,1.047
0.392000,543283,1000.00,12,0,1,1237.257,-8.887,3.036,956.311,-1.904,1.071
0.393000,543284,1000.00,12,0,1,1237.017,-7.151,3.158,958.497,-0.135,1.069
0.394000,543285,1000.00,12,0,1,1235.455,-6.035,3.266,960.154,2.104,1.088
0.395000,543286,1000.00,12,0,1,1234.999,-4.374,3.310,959.193,0.972,1.085
0.396000,543287,1000.00,12,0,1,1235.479,-1.196,3.308,960.082,1.269,1.100
0.397000,543288,1000.00,12,0,1,1242.493,5.999,3.410,959.842,1.386,1.115
0.398000,543289,1000.00,12,0,1,1243.862,10.017,3.693,958.377,-0.379,1.116
0.399000,543290,1000.00,12,0,1,1241.028,6.412,3.788,958.401,-0.433,1.112
0.400000,543291,1000.00,12,0,1,1239.299,4.989,3.780,960.058,0.972,1.108
0.401000,543292,1000.00,12,0,1,1237.233,2.746,3.686,959.338,0.687,1.078
0.402000,543293,1000.00,12,0,1,1231.156,-2.600,3.702,959.842,0.360,1.059
0.403000,543294,1000.00,12,0,1,1229.162,-5.548,3.736,957.896,-0.610,1.059
0.404000,543295,1000.00,12,0,1,1229.642,-4.575,3.746,957.800,-1.601,1.065
0.405000,543296,1000.00,12,0,1,1233.486,-2.127,3.720,957.464,-0.904,1.073
0.406000,543297,1000.00,12,0,1,1235.311,-0.512,3.720,956.119,-2.245,1.118
0.407000,543298,1000.00,12,0,1,1238.530,0.308,3.709,957.680,-0.781,1.109
0.408000,543299,1000.00,12,0,1,1246.313,5.664,3.788,959.626,1.505,1.119
0.409000,543300,1000.00,12,0,1,1255.104,11.597,4.128,959.794,1.476,1.137
0.410000,543301,1000.00,12,0,1,1257.218,11.394,4.430,958.497,0.338,1.138
0.411000,543302,1000.00,12,0,1,1255.945,7.291,4.520,958.569,-0.118,1.101
0.412000,543303,1000.00,12,0,1,1252.174,2.526,4.511,959.530,1.019,1.099
0.413000,543304,1000.00,12,0,1,1241.941,-6.380,4.600,960.202,1.359,1.114
0.414000,543305,1000.00,12,0,1,1237.593,-10.551,4.827,959.578,0.854,1.119
0.415000,543306,1000.00,12,0,1,1237.641,-7.019,4.926,957.488,-1.167,1.130
0.416000,543307,1000.00,12,0,1,1241.821,-1.762,4.930,959.049,-0.262,1.117
0.417000,543308,1000.00,12,0,1,1244.943,3.980,4.926,959.242,0.776,1.120
0.418000,543309,1000.00,12,0,1,1236.969,-1.222,4.917,958.569,-0.425,1.083
0.419000,543310,1000.00,12,0,1,1235.047,-3.700,4.939,958.977,0.131,1.083
0.420000,543311,1000.00,12,0,1,1232.573,-2.545,4.949,960.322,1.117,1.062
0.421000,543312,1000.00,12,0,1,1226.592,-7.683,5.064,957.440,-0.832,1.058
0.422000,543313,1000.00,12,0,1,1222.820,-9.574,5.214,958.089,-1.397,1.073
0.423000,543314,1000.00,12,0,1,1225.703,-6.624,5.261,959.506,0.917,1.080
0.424000,543315,1000.00,12,0,1,1231.756,-0.316,5.261,957.872,-0.695,1.079
0.425000,543316,1000.00,12,0,1,1245.472,9.824,5.438,957.728,-1.117,1.085
0.426000,543317,1000.00,12,0,1,1252.005,15.043,5.833,958.881,0.277,1.051
0.427000,543318,1000.00,12,0,1,1249.723,8.613,5.957,960.491,1.452,1.043
0.428000,543319,1000.00,12,0,1,1251.741,6.283,6.020,960.419,1.634,1.015
0.429000,543320,1000.00,12,0,1,1248.811,2.616,6.014,959.434,0.157,1.015
0.430000,543321,1000.00,12,0,1,1242.806,-5.445,6.056,960.202,0.653,1.016
0.431000,543322,1000.00,12,0,1,1238.338,-8.954,6.187,959.434,0.176,1.016
0.432000,543323,1000.00,12,0,1,1240.379,-7.069,6.262,959.362,-0.394,1.005
0.433000,543324,1000.00,12,0,1,1240.524,-3.745,6.266,957.920,-1.110,1.016
0.434000,543325,1000.00,12,0,1,1244.223,-0.293,6.263,956.599,-2.563,1.078
0.435000,543326,1000.00,12,0,1,1239.058,-0.707,6.257,957.632,-1.286,1.087
0.436000,543327,1000.00,12,0,1,1231.035,-7.630,6.313,961.163,1.894,1.119
0.437000,543328,1000.00,12,0,1,1239.250,1.031,6.297,960.010,1.597,1.142
0.438000,543329,1000.00,12,0,1,1246.769,11.381,6.499,958.809,-0.541,1.130
0.439000,543330,1000.00,12,0,1,1247.369,11.071,6.683,959.914,0.657,1.134
0.440000,543331,1000.00,12,0,1,1250.732,12.787,6.912,957.320,-1.166,1.145
0.441000,543332,1000.00,12,0,1,1248.979,10.303,7.002,958.209,-1.364,1.147
0.442000,543333,1000.00,12,0,1,1245.856,4.609,6.919,958.425,0.147,1.115
0.443000,543334,1000.00,12,0,1,1242.253,0.003,6.845,960.346,0.768,1.120
0.444000,543335,1000.00,12,0,1,1242.517,-2.245,6.799,960.010,1.523,1.101
0.445000,543336,1000.00,12,0,1,1243.262,-2.311,6.779,959.001,-0.420,1.094
0.446000,543337,1000.00,12,0,1,1247.273,-1.194,6.779,959.386,0.168,1.079
0.447000,543338,1000.00,12,0,1,1255.392,4.341,6.753,958.593,-0.453,1.063
0.448000,543339,1000.00,12,0,1,1252.438,1.105,6.605,959.001,-0.459,1.064
0.449000,543340,1000.00,12,0,1,1246.192,-7.660,6.631,958.353,-0.398,1.064
0.450000,543341,1000.00,12,0,1,1244.535,-9.116,6.719,958.929,-0.512,1.057
0.451000,543342,1000.00,12,0,1,1243.094,-9.587,6.843,958.401,-0.143,1.053
0.452000,543343,1000.00,12,0,1,1249.171,-3.889,6.855,958.473,-0.701,1.056
0.453000,543344,1000.00,12,0,1,1243.886,-4.453,6.839,959.266,0.517,1.055
0.454000,543345,1000.00,12,0,1,1239.731,-9.152,6.931,960.250,1.107,1.043
0.455000,543346,1000.00,12,0,1,1241.172,-4.079,6.948,959.722,0.859,1.042
0.456000,543347,1000.00,12,0,1,1241.484,-1.741,6.952,957.560,-1.226,1.007
0.457000,543348,1000.00,12,0,1,1244.127,2.233,6.959,957.296,-1.659,1.028
0.458000,543349,1000.00,12,0,1,1238.722,0.375,6.913,957.632,-0.773,1.012
0.459000,543350,1000.00,12,0,1,1234.951,-3.689,6.736,957.848,-0.584,0.994
0.460000,543351,1000.00,12,0,1,1241.028,3.123,6.555,959.169,0.722,0.998
0.461000,543352,1000.00,12,0,1,1242.181,5.370,6.518,957.728,-0.141,0.998
0.462000,543353,1000.00,12,0,1,1241.725,3.364,6.526,958.689,-0.059,0.987
0.463000,543354,1000.00,12,0,1,1237.977,-0.061,6.463,958.329,0.514,0.971
0.464000,543355,1000.00,12,0,1,1237.665,-2.639,6.299,961.355,1.960,1.003
0.465000,543356,1000.00,12,0,1,1239.178,-1.283,6.223,960.202,2.192,1.037
0.466000,543357,1000.00,12,0,1,1243.478,0.623,6.219,957.728,-1.407,1.055
0.467000,543358,1000.00,12,0,1,1245.184,1.793,6.199,958.329,-0.625,1.053
0.468000,543359,1000.00,12,0,1,1238.122,-5.336,6.242,958.761,0.014,1.051
0.469000,543360,1000.00,12,0,1,1237.641,-7.801,6.317,959.073,0.102,1.051
0.470000,543361,1000.00,12,0,1,1241.340,-2.760,6.319,959.025,0.338,1.040
0.471000,543362,1000.00,12,0,1,1243.286,-0.857,6.226,959.410,0.280,1.034
0.472000,543363,1000.00,12,0,1,1243.983,0.761,6.078,958.449,-0.082,1.015
0.473000,543364,1000.00,12,0,1,1247.345,3.753,6.029,959.434,0.053,1.007
0.474000,543365,1000.00,12,0,1,1247.802,5.745,6.083,960.082,1.310,1.019
0.475000,543366,1000.00,12,0,1,1242.373,1.481,5.926,959.602,0.376,1.008
0.476000,543367,1000.00,12,0,1,1237.785,-1.914,5.538,957.368,-1.255,1.023
0.477000,543368,1000.00,12,0,1,1239.347,0.720,5.403,957.920,-1.357,1.020
0.478000,543369,1000.00,12,0,1,1235.431,0.013,5.329,957.128,-1.003,1.004
0.479000,543370,1000.00,12,0,1,1236.896,0.530,5.317,958.257,-0.684,1.008
0.480000,543371,1000.00,12,0,1,1235.575,2.159,5.270,958.809,0.681,1.009
0.481000,543372,1000.00,12,0,1,1231.468,-2.350,5.126,959.217,0.517,1.011
0.482000,543373,1000.00,12,0,1,1228.801,-4.053,5.060,959.770,1.122,1.022
0.483000,543374,1000.00,12,0,1,1230.483,-2.920,5.049,960.274,1.304,1.027
0.484000,543375,1000.00,12,0,1,1230.243,-2.446,5.061,959.890,0.795,0.967
0.485000,543376,1000.00,12,0,1,1228.681,-4.588,5.102,958.929,-0.205,0.950
0.486000,543377,1000.00,12,0,1,1224.310,-8.231,5.120,957.080,-1.866,0.949
0.487000,543378,1000.00,12,0,1,1224.141,-8.987,5.274,960.875,0.871,0.930
0.488000,543379,1000.00,12,0,1,1225.030,-6.850,5.115,960.154,1.599,0.954
0.489000,543380,1000.00,12,0,1,1226.640,-5.032,4.921,957.368,-2.006,0.991
0.490000,543381,1000.00,12,0,1,1231.852,0.066,4.576,958.785,-0.660,0.982
0.491000,543382,1000.00,12,0,1,1237.329,5.788,4.415,958.209,-0.365,0.964
0.492000,543383,1000.00,12,0,1,1242.806,10.061,4.592,959.578,0.025,0.964
0.493000,543384,1000.00,12,0,1,1242.349,10.268,4.816,960.539,1.765,0.989
0.494000,543385,1000.00,12,0,1,1240.355,7.046,4.908,959.818,0.483,0.968
0.495000,543386,1000.00,12,0,1,1238.890,6.394,4.980,960.419,0.927,0.975
0.496000,543387,1000.00,12,0,1,1236.848,4.733,5.022,960.539,0.990,0.985
0.497000,543388,1000.00,12,0,1,1234.711,3.659,5.011,958.569,-0.763,0.989
0.498000,543389,1000.00,12,0,1,1235.575,4.685,5.052,960.130,-0.063,0.987
0.499000,543390,1000.00,12,0,1,1232.453,3.397,4.958,961.764,1.981,1.024
0.500000,543391,1000.00,12,0,1,1230.867,1.181,4.791,959.578,-0.140,1.022
0.501000,543392,1000.00,12,0,1,1231.876,2.684,4.610,958.809,-1.431,1.041
0.502000,543393,1000.00,12,0,1,1229.714,0.771,4.579,960.082,-0.025,1.037
0.503000,543394,1000.00,12,0,1,1230.915,0.284,4.535,958.833,-0.831,1.041
0.504000,543395,1000.00,12,0,1,1233.437,2.352,4.359,957.128,-2.513,1.089
0.505000,543396,1000.00,12,0,1,1233.942,1.120,4.324,959.986,-0.183,1.082
0.506000,543397,1000.00,12,0,1,1237.329,2.147,4.328,959.169,0.295,1.069
0.507000,543398,1000.00,12,0,1,1243.070,5.373,4.382,958.089,-1.629,1.068
0.508000,543399,1000.00,12,0,1,1242.757,3.715,4.414,957.560,-1.307,1.078
0.509000,543400,1000.00,12,0,1,1243.046,0.843,4.384,958.257,-0.973,1.084
0.510000,543401,1000.00,12,0,1,1244.463,1.272,4.366,959.986,0.983,1.088
0.511000,543402,1000.00,12,0,1,1247.442,2.274,4.311,958.185,-0.206,1.088
0.512000,543403,1000.00,12,0,1,1241.869,-1.720,4.292,958.281,-0.895,1.096
0.513000,543404,1000.00,12,0,1,1233.606,-9.894,4.514,958.929,0.488,1.095
0.514000,543405,1000.00,12,0,1,1231.348,-10.216,4.725,957.392,-0.985,1.069
0.515000,543406,1000.00,12,0,1,1230.459,-7.986,4.855,957.488,-0.942,1.031
0.516000,543407,1000.00,12,0,1,1224.117,-10.325,5.069,957.440,-0.477,1.014
0.517000,543408,1000.00,12,0,1,1222.724,-9.603,5.241,957.440,-0.516,1.013
0.518000,543409,1000.00,12,0,1,1222.508,-5.712,5.249,957.200,-0.347,1.014
0.519000,543410,1000.00,12,0,1,1222.724,-3.538,5.156,957.392,-0.236,1.015
0.520000,543411,1000.00,12,0,1,1225.751,0.924,5.143,959.770,1.825,1.046
0.521000,543412,1000.00,12,0,1,1233.197,7.856,5.260,960.659,2.860,1.121
0.522000,543413,1000.00,12,0,1,1237.161,11.396,5.501,958.473,0.586,1.124
0.523000,543414,1000.00,12,0,1,1243.022,13.449,5.796,957.032,-1.107,1.135
0.524000,543415,1000.00,12,0,1,1249.219,16.497,6.195,958.257,-0.036,1.119
0.525000,543416,1000.00,12,0,1,1249.916,13.496,6.479,960.971,2.410,1.169
0.526000,543417,1000.00,12,0,1,1239.851,1.576,6.477,960.539,2.221,1.197
0.527000,543418,1000.00,12,0,1,1238.458,-4.349,6.505,959.578,0.557,1.184
0.528000,543419,1000.00,12,0,1,1248.210,3.454,6.524,959.866,0.731,1.180
0.529000,543420,1000.00,12,0,1,1247.586,3.018,6.537,959.770,0.549,1.179
0.530000,543421,1000.00,12,0,1,1247.922,-0.303,6.530,958.281,-0.762,1.180
0.531000,543422,1000.00,12,0,1,1240.403,-4.889,6.558,958.833,-0.636,1.181
0.532000,543423,1000.00,12,0,1,1230.603,-14.984,6.868,958.377,-0.413,1.172
0.533000,543424,1000.00,12,0,1,1229.618,-13.259,7.108,957.920,-1.135,1.168
0.534000,543425,1000.00,12,0,1,1231.083,-8.687,7.205,959.217,0.181,1.163
0.535000,543426,1000.00,12,0,1,1224.598,-10.437,7.326,959.169,0.458,1.165
0.536000,543427,1000.00,12,0,1,1223.733,-9.770,7.363,958.449,-0.464,1.136
0.537000,543428,1000.00,12,0,1,1228.729,-1.528,7.256,958.833,-0.097,1.130
0.538000,543429,1000.00,12,0,1,1229.282,1.550,7.194,957.488,-0.981,1.115
0.539000,543430,1000.00,12,0,1,1225.150,-1.059,7.161,958.929,-0.277,1.079
0.540000,543431,1000.00,12,0,1,1225.439,-0.538,7.161,961.692,2.589,1.136
0.541000,543432,1000.00,12,0,1,1233.149,6.292,7.170,961.139,1.971,1.169
0.542000,543433,1000.00,12,0,1,1232.068,6.482,7.087,960.370,0.533,1.171
0.543000,543434,1000.00,12,0,1,1225.967,-1.563,6.940,959.986,0.171,1.144
0.544000,543435,1000.00,12,0,1,1227.408,-1.530,6.871,960.082,-0.099,1.142
0.545000,543436,1000.00,12,0,1,1231.612,1.708,6.816,960.346,0.218,1.135
0.546000,543437,1000.00,12,0,1,1233.966,2.679,6.793,959.722,-0.406,1.128
0.547000,543438,1000.00,12,0,1,1232.765,0.539,6.774,958.689,-1.317,1.138
0.548000,543439,1000.00,12,0,1,1232.813,-1.049,6.743,961.355,0.631,1.142
0.549000,543440,1000.00,12,0,1,1238.578,3.208,6.741,961.043,1.262,1.121
0.550000,543441,1000.00,12,0,1,1229.474,-2.768,6.751,960.370,-0.319,1.122
0.551000,543442,1000.00,12,0,1,1218.761,-13.979,7.024,958.185,-1.528,1.124
0.552000,543443,1000.00,12,0,1,1221.739,-9.041,7.139,958.305,-2.098,1.163
0.553000,543444,1000.00,12,0,1,1216.863,-8.277,7.234,959.193,-0.422,1.158
0.554000,543445,1000.00,12,0,1,1213.668,-10.188,7.368,958.785,-0.754,1.108
0.555000,543446,1000.00,12,0,1,1213.044,-5.747,7.411,959.314,-0.358,1.109
0.556000,543447,1000.00,12,0,1,1220.418,1.891,7.410,960.635,1.009,1.117
0.557000,543448,1000.00,12,0,1,1227.456,11.774,7.557,960.010,0.463,1.095
0.558000,543449,1000.00,12,0,1,1232.525,15.293,7.842,959.169,-0.525,1.082
0.559000,543450,1000.00,12,0,1,1237.785,19.024,8.290,960.491,0.360,1.074
0.560000,543451,1000.00,12,0,1,1239.106,18.076,8.674,960.202,0.572,1.068
0.561000,543452,1000.00,12,0,1,1218.953,-0.186,8.668,960.515,0.107,1.068
0.562000,543453,1000.00,12,0,1,1189.287,-28.323,9.545,959.314,-0.364,1.062
0.563000,543454,1000.00,12,0,1,1181.529,-34.493,10.628,960.611,-0.145,1.060
0.564000,543455,1000.00,12,0,1,1187.678,-22.620,11.004,959.770,0.158,1.051
0.565000,543456,1000.00,12,0,1,1200.649,-8.402,11.011,960.539,-0.252,1.043
0.566000,543457,1000.00,12,0,1,1195.100,-7.325,10.962,959.193,-0.345,1.042
0.567000,543458,1000.00,12,0,1,1197.142,-8.775,10.948,958.233,-1.955,1.075
0.568000,543459,1000.00,12,0,1,1212.179,8.018,10.977,959.938,-0.007,1.074
0.569000,543460,1000.00,12,0,1,1236.680,27.247,11.623,961.259,1.439,1.093
0.570000,543461,1000.00,12,0,1,1247.778,36.987,12.745,959.650,0.061,1.062
0.571000,543462,1000.00,12,0,1,1243.670,27.235,13.268,959.818,-0.235,0.982
0.572000,543463,1000.00,12,0,1,1236.920,16.687,13.380,958.761,-0.601,0.983
0.573000,543464,1000.00,12,0,1,1226.688,5.805,13.269,960.226,0.089,0.970
0.574000,543465,1000.00,12,0,1,1222.508,-0.294,13.063,959.962,0.699,0.975
0.575000,543466,1000.00,12,0,1,1221.139,0.710,12.923,957.872,-1.549,0.940
0.576000,543467,1000.00,12,0,1,1220.562,0.165,12.921,957.800,-1.625,0.915
0.577000,543468,1000.00,12,0,1,1223.517,4.280,12.920,957.080,-1.561,0.938
0.578000,543469,1000.00,12,0,1,1232.933,11.901,13.020,958.401,-0.803,0.939
0.579000,543470,1000.00,12,0,1,1236.704,15.953,13.208,959.770,1.207,0.951
0.580000,543471,1000.00,12,0,1,1237.401,13.055,13.336,960.298,1.191,0.960
0.581000,543472,1000.00,12,0,1,1232.405,7.360,13.359,961.067,1.838,0.990
0.582000,543473,1000.00,12,0,1,1229.114,0.659,13.190,961.163,1.593,1.014
0.583000,543474,1000.00,12,0,1,1229.282,-0.469,13.056,961.860,1.752,1.032
0.584000,543475,1000.00,12,0,1,1228.561,-2.758,13.004,962.292,1.962,1.068
0.585000,543476,1000.00,12,0,1,1224.622,-7.564,12.964,960.827,0.414,1.068
0.586000,543477,1000.00,12,0,1,1216.551,-15.148,13.067,959.410,-1.160,1.078
0.587000,543478,1000.00,12,0,1,1219.842,-14.098,13.216,959.193,-1.283,1.093
0.588000,543479,1000.00,12,0,1,1223.925,-7.719,13.260,959.242,-0.952,1.093
0.589000,543480,1000.00,12,0,1,1221.163,-10.450,13.341,959.746,-0.406,1.093
0.590000,543481,1000.00,12,0,1,1222.172,-9.323,13.406,960.539,0.490,1.033
0.591000,543482,1000.00,12,0,1,1225.367,-5.102,13.396,959.698,-0.047,0.994
0.592000,543483,1000.00,12,0,1,1224.117,-4.738,13.381,956.791,-2.473,1.051
0.593000,543484,1000.00,12,0,1,1224.622,-3.803,13.390,958.161,-1.652,1.077
0.594000,543485,1000.00,12,0,1,1226.111,-0.593,13.388,958.593,-0.041,1.077
0.595000,543486,1000.00,12,0,1,1223.277,-1.396,13.388,958.833,-0.367,1.077
0.596000,543487,1000.00,12,0,1,1221.091,-2.441,13.387,959.410,0.585,1.079
0.597000,543488,1000.00,12,0,1,1220.995,-0.582,13.387,959.770,0.643,1.067
0.598000,543489,1000.00,12,0,1,1220.322,0.298,13.386,960.250,0.972,1.072
0.599000,543490,1000.00,12,0,1,1217.512,-0.726,13.379,958.401,-0.499,1.059
0.600000,543491,1000.00,12,0,1,1215.230,-2.095,13.376,958.689,-0.983,1.067
0.601000,543492,1000.00,12,0,1,1212.636,-3.090,13.237,960.322,0.995,1.055
0.602000,543493,1000.00,12,0,1,1212.227,-3.208,13.183,959.338,0.088,1.012
0.603000,543494,1000.00,12,0,1,1211.146,-3.035,13.138,956.647,-2.271,1.060
0.604000,543495,1000.00,12,0,1,1211.098,-3.401,13.067,956.167,-2.783,1.126
0.605000,543496,1000.00,12,0,1,1210.258,-3.533,13.051,957.008,-1.317,1.140
0.606000,543497,1000.00,12,0,1,1211.771,-2.938,13.055,957.728,-0.345,1.132
0.607000,543498,1000.00,12,0,1,1212.564,-1.708,12.951,958.137,0.319,1.131
0.608000,543499,1000.00,12,0,1,1218.473,2.030,12.772,959.482,1.455,1.147
0.609000,543500,1000.00,12,0,1,1225.607,8.433,12.543,960.250,2.301,1.192
0.610000,543501,1000.00,12,0,1,1235.647,14.812,12.457,958.329,0.605,1.192
0.611000,543502,1000.00,12,0,1,1238.938,16.875,12.683,958.329,-0.013,1.192
0.612000,543503,1000.00,12,0,1,1233.461,9.180,12.104,957.128,-0.300,1.191
0.613000,543504,1000.00,12,0,1,1224.478,-0.170,11.077,958.689,0.243,1.192
0.614000,543505,1000.00,12,0,1,1222.412,-2.809,10.613,959.386,1.813,1.219
0.615000,543506,1000.00,12,0,1,1223.853,0.172,10.546,957.464,-0.376,1.219
0.616000,543507,1000.00,12,0,1,1224.045,1.580,10.498,957.704,-0.430,1.220
0.617000,543508,1000.00,12,0,1,1229.138,6.041,10.459,958.833,0.849,1.194
0.618000,543509,1000.00,12,0,1,1235.143,12.299,10.542,958.161,0.222,1.195
0.619000,543510,1000.00,12,0,1,1217.728,-1.291,9.814,958.401,0.113,1.177
0.620000,543511,1000.00,12,0,1,1202.931,-17.306,8.657,958.761,0.528,1.180
0.621000,543512,1000.00,12,0,1,1209.345,-9.569,7.870,958.641,0.290,1.180
0.622000,543513,1000.00,12,0,1,1212.059,-3.296,7.523,960.082,1.195,1.189
0.623000,543514,1000.00,12,0,1,1210.065,-5.553,7.519,958.641,0.419,1.190
0.624000,543515,1000.00,12,0,1,1215.158,-1.175,7.520,956.815,-1.887,1.216
0.625000,543516,1000.00,12,0,1,1226.399,7.784,7.600,957.920,-0.684,1.200
0.626000,543517,1000.00,12,0,1,1229.450,9.948,7.729,957.872,-0.216,1.178
0.627000,543518,1000.00,12,0,1,1227.528,4.391,7.730,958.905,0.339,1.158
0.628000,543519,1000.00,12,0,1,1224.454,-0.127,7.545,956.479,-0.855,1.159
0.629000,543520,1000.00,12,0,1,1220.995,-4.944,7.233,958.521,-0.326,1.147
0.630000,543521,1000.00,12,0,1,1214.125,-10.599,7.153,959.866,2.327,1.182
0.631000,543522,1000.00,12,0,1,1210.570,-13.621,7.334,960.058,1.474,1.171
0.632000,543523,1000.00,12,0,1,1208.384,-12.608,7.547,959.698,1.426,1.167
0.633000,543524,1000.00,12,0,1,1204.036,-13.547,7.786,959.242,0.490,1.142
0.634000,543525,1000.00,12,0,1,1202.835,-11.715,7.951,958.137,-0.418,1.110
0.635000,543526,1000.00,12,0,1,1206.991,-4.430,7.904,957.896,-0.836,1.115
0.636000,543527,1000.00,12,0,1,1215.902,5.870,7.653,957.152,-1.225,1.116
0.637000,543528,1000.00,12,0,1,1222.076,13.561,7.633,959.025,0.108,1.101
0.638000,543529,1000.00,12,0,1,1220.298,12.040,7.744,959.530,1.102,1.104
0.639000,543530,1000.00,12,0,1,1210.714,3.573,7.619,961.331,1.851,1.133
0.640000,543531,1000.00,12,0,1,1211.795,2.433,7.512,959.338,0.705,1.135
0.641000,543532,1000.00,12,0,1,1215.302,7.484,7.552,959.578,-0.470,1.137
0.642000,543533,1000.00,12,0,1,1218.328,8.247,7.612,958.569,-0.394,1.084
0.643000,543534,1000.00,12,0,1,1223.469,11.501,7.765,959.842,-0.315,1.059
0.644000,543535,1000.00,12,0,1,1226.496,11.899,7.945,959.530,0.373,1.060
0.645000,543536,1000.00,12,0,1,1224.093,7.089,8.005,958.761,-0.967,1.068
0.646000,543537,1000.00,12,0,1,1218.184,-0.683,7.998,959.986,0.195,1.065
0.647000,543538,1000.00,12,0,1,1216.022,-4.975,8.029,960.130,0.686,1.066
0.648000,543539,1000.00,12,0,1,1216.719,-4.532,8.054,959.818,-0.049,1.057
0.649000,543540,1000.00,12,0,1,1220.346,-2.298,8.060,959.698,0.125,1.055
0.650000,543541,1000.00,12,0,1,1223.229,0.647,8.055,959.530,-0.299,1.046
0.651000,543542,1000.00,12,0,1,1222.196,-0.711,8.044,960.250,0.456,1.039
0.652000,543543,1000.00,12,0,1,1218.160,-4.032,8.052,961.812,1.578,1.062
0.653000,543544,1000.00,12,0,1,1221.427,-1.675,8.044,960.346,0.632,1.017
0.654000,543545,1000.00,12,0,1,1224.406,3.141,8.041,959.650,-0.870,0.945
0.655000,543546,1000.00,12,0,1,1218.929,-0.923,8.027,959.818,-0.304,0.928
0.656000,543547,1000.00,12,0,1,1216.503,-3.207,8.029,958.833,-1.243,0.943
0.657000,543548,1000.00,12,0,1,1212.539,-3.999,8.045,960.443,-0.151,0.942
0.658000,543549,1000.00,12,0,1,1210.714,-5.286,8.075,959.530,-0.163,0.920
0.659000,543550,1000.00,12,0,1,1208.504,-4.398,8.011,959.217,-1.303,0.880
0.660000,543551,1000.00,12,0,1,1205.093,-6.524,7.787,960.611,0.389,0.877
0.661000,543552,1000.00,12,0,1,1204.132,-5.901,7.459,959.722,-0.321,0.878
0.662000,543553,1000.00,12,0,1,1203.436,-5.125,7.381,960.419,-0.220,0.878
0.663000,543554,1000.00,12,0,1,1199.664,-7.327,7.453,959.578,-0.307,0.878
0.664000,543555,1000.00,12,0,1,1198.223,-8.284,7.534,961.355,0.310,0.841
0.665000,543556,1000.00,12,0,1,1194.548,-9.713,7.658,958.881,-0.506,0.843
0.666000,543557,1000.00,12,0,1,1198.439,-6.856,7.716,960.346,-0.925,0.851
0.667000,543558,1000.00,12,0,1,1203.964,0.132,7.669,959.362,0.103,0.842
0.668000,543559,1000.00,12,0,1,1207.831,2.898,7.480,958.881,-1.623,0.872
0.669000,543560,1000.00,12,0,1,1218.136,10.616,7.627,960.298,0.484,0.875
0.670000,543561,1000.00,12,0,1,1220.586,13.220,7.462,960.370,0.564,0.875
0.671000,543562,1000.00,12,0,1,1223.037,11.398,7.513,960.178,0.194,0.875
0.672000,543563,1000.00,12,0,1,1221.235,10.179,7.635,957.248,-1.753,0.893
0.673000,543564,1000.00,12,0,1,1213.909,1.699,7.599,958.977,-1.316,0.911
0.674000,543565,1000.00,12,0,1,1210.017,-1.635,7.600,960.322,1.446,0.894
0.675000,543566,1000.00,12,0,1,1203.460,-5.294,7.557,959.121,-0.359,0.891
0.676000,543567,1000.00,12,0,1,1200.289,-7.171,7.494,958.521,-0.620,0.894
0.677000,543568,1000.00,12,0,1,1202.091,-2.474,7.477,958.881,-0.460,0.895
0.678000,543569,1000.00,12,0,1,1205.694,2.422,7.484,960.707,1.185,0.903
0.679000,543570,1000.00,12,0,1,1210.786,8.120,7.540,959.338,0.420,0.904
0.680000,543571,1000.00,12,0,1,1216.695,12.951,7.613,960.082,0.038,0.842
0.681000,543572,1000.00,12,0,1,1216.527,12.232,7.565,960.947,1.505,0.843
0.682000,543573,1000.00,12,0,1,1213.164,6.626,7.412,960.683,0.650,0.823
0.683000,543574,1000.00,12,0,1,1210.786,2.711,7.170,958.785,-0.740,0.827
0.684000,543575,1000.00,12,0,1,1206.702,-2.110,6.982,959.242,-0.968,0.836
0.685000,543576,1000.00,12,0,1,1206.342,-4.312,6.981,960.106,0.453,0.830
0.686000,543577,1000.00,12,0,1,1209.873,-1.625,6.935,960.659,0.684,0.818
0.687000,543578,1000.00,12,0,1,1215.278,1.801,6.670,960.443,0.637,0.823
0.688000,543579,1000.00,12,0,1,1216.311,2.147,6.456,960.202,0.221,0.808
0.689000,543580,1000.00,12,0,1,1215.974,-0.305,6.436,960.587,0.485,0.768
0.690000,543581,1000.00,12,0,1,1214.029,-2.323,6.435,960.419,0.487,0.764
0.691000,543582,1000.00,12,0,1,1202.787,-11.494,6.553,957.344,-2.047,0.815
0.692000,543583,1000.00,12,0,1,1204.517,-11.353,6.645,958.785,-1.391,0.836
0.693000,543584,1000.00,12,0,1,1204.709,-5.850,6.496,957.536,-0.978,0.846
0.694000,543585,1000.00,12,0,1,1209.681,-2.351,6.283,959.193,-0.682,0.850
0.695000,543586,1000.00,12,0,1,1210.834,3.087,6.217,960.034,1.394,0.862
0.696000,543587,1000.00,12,0,1,1192.963,-10.828,6.403,958.233,-0.769,0.868
0.697000,543588,1000.00,12,0,1,1194.692,-10.900,6.548,958.785,-0.479,0.866
0.698000,543589,1000.00,12,0,1,1213.500,10.615,6.687,959.434,0.537,0.869
0.699000,543590,1000.00,12,0,1,1212.732,12.253,6.900,958.953,-0.165,0.869
0.700000,543591,1000.00,12,0,1,1208.696,5.616,6.945,959.386,0.225,0.869
0.701000,543592,1000.00,12,0,1,1206.246,3.744,6.965,960.322,0.886,0.875
0.702000,543593,1000.00,12,0,1,1203.292,-0.118,6.941,960.851,1.382,0.869
0.703000,543594,1000.00,12,0,1,1207.591,2.446,6.946,961.283,1.346,0.885
0.704000,543595,1000.00,12,0,1,1211.987,6.220,6.987,959.242,-0.208,0.877
0.705000,543596,1000.00,12,0,1,1215.038,6.468,7.046,960.250,-0.262,0.876
0.706000,543597,1000.00,12,0,1,1213.620,4.019,7.054,962.580,2.418,0.924
0.707000,543598,1000.00,12,0,1,1211.747,-0.490,7.032,961.523,1.315,0.942
0.708000,543599,1000.00,12,0,1,1211.747,-1.383,6.994,960.731,0.046,0.942
0.709000,543600,1000.00,12,0,1,1209.105,-4.183,6.992,960.010,-0.356,0.925
0.710000,543601,1000.00,12,0,1,1209.225,-4.856,6.965,960.130,-0.538,0.927
0.711000,543602,1000.00,12,0,1,1212.491,-1.222,6.917,960.202,-0.067,0.926
0.712000,543603,1000.00,12,0,1,1215.590,1.847,6.884,958.233,-1.681,0.955
0.713000,543604,1000.00,12,0,1,1213.236,0.782,6.806,959.266,-1.112,0.967
0.714000,543605,1000.00,12,0,1,1201.178,-8.698,6.816,960.178,0.473,0.969
0.715000,543606,1000.00,12,0,1,1211.338,-1.794,6.681,959.674,-0.230,0.966
0.716000,543607,1000.00,12,0,1,1221.139,12.301,6.836,958.929,-0.786,0.964
0.717000,543608,1000.00,12,0,1,1173.386,-24.580,7.669,959.434,-0.537,0.967
0.718000,543609,1000.00,12,0,1,1167.261,-38.421,9.390,958.977,-0.556,0.943
0.719000,543610,1000.00,12,0,1,1176.148,-14.427,9.491,959.554,-0.445,0.942
0.720000,543611,1000.00,12,0,1,1180.640,-10.882,9.431,960.202,0.435,0.941
0.721000,543612,1000.00,12,0,1,1190.537,3.198,9.303,960.443,0.404,0.942
0.722000,543613,1000.00,12,0,1,1195.557,8.235,9.265,961.019,0.758,0.915
0.723000,543614,1000.00,12,0,1,1199.953,10.642,9.383,960.563,0.395,0.898
0.724000,543615,1000.00,12,0,1,1205.670,14.586,9.604,962.604,1.464,0.898
0.725000,543616,1000.00,12,0,1,1209.681,14.663,9.797,960.370,0.442,0.899
0.726000,543617,1000.00,12,0,1,1214.629,16.314,10.014,960.683,-0.818,0.902
0.727000,543618,1000.00,12,0,1,1212.708,11.393,10.137,961.836,1.294,0.918
0.728000,543619,1000.00,12,0,1,1209.056,5.013,10.156,960.226,-0.467,0.905
0.729000,543620,1000.00,12,0,1,1203.796,-1.243,10.092,960.587,-0.392,0.905
0.730000,543621,1000.00,12,0,1,1199.352,-5.697,9.957,960.058,-0.210,0.906
0.731000,543622,1000.00,12,0,1,1201.226,-4.012,9.822,959.746,-0.893,0.889
0.732000,543623,1000.00,12,0,1,1200.217,-2.254,9.782,960.082,-0.080,0.885
0.733000,543624,1000.00,12,0,1,1197.334,-4.310,9.794,960.202,-0.094,0.878
0.734000,543625,1000.00,12,0,1,1196.926,-2.514,9.796,957.920,-1.563,0.895
0.735000,543626,1000.00,12,0,1,1193.251,-3.363,9.788,959.722,-0.804,0.900
0.736000,543627,1000.00,12,0,1,1190.777,-4.095,9.803,960.563,1.130,0.909
0.737000,543628,1000.00,12,0,1,1187.606,-4.031,9.816,959.506,-0.464,0.907
0.738000,543629,1000.00,12,0,1,1187.822,-2.800,9.819,959.722,-0.277,0.907
0.739000,543630,1000.00,12,0,1,1189.215,0.719,9.820,959.842,-0.095,0.905
0.740000,543631,1000.00,12,0,1,1190.777,2.366,9.820,957.488,-2.008,0.946
0.741000,543632,1000.00,12,0,1,1193.179,4.568,9.706,958.809,-1.373,0.921
0.742000,543633,1000.00,12,0,1,1195.221,5.531,9.604,959.866,0.451,0.902
0.743000,543634,1000.00,12,0,1,1195.845,4.703,9.592,960.322,0.449,0.894
0.744000,543635,1000.00,12,0,1,1192.698,0.691,9.586,959.938,0.352,0.890
0.745000,543636,1000.00,12,0,1,1190.440,-3.258,9.588,957.512,-1.700,0.901
0.746000,543637,1000.00,12,0,1,1201.250,4.202,9.483,957.656,-1.869,0.932
0.747000,543638,1000.00,12,0,1,1202.547,6.766,9.406,958.521,-0.187,0.930
0.748000,543639,1000.00,12,0,1,1200.145,0.810,9.286,959.290,0.388,0.929
0.749000,543640,1000.00,12,0,1,1200.409,0.952,9.124,960.010,1.412,0.950
0.750000,543641,1000.00,12,0,1,1201.178,0.833,9.090,959.530,0.933,0.958
0.751000,543642,1000.00,12,0,1,1200.265,0.507,9.075,960.443,1.455,0.972
0.752000,543643,1000.00,12,0,1,1197.887,-1.121,9.076,961.091,2.204,1.002
0.753000,543644,1000.00,12,0,1,1197.551,-0.813,9.070,961.764,2.281,1.035
0.754000,543645,1000.00,12,0,1,1197.022,0.617,9.028,959.338,0.421,1.037
0.755000,543646,1000.00,12,0,1,1191.858,-2.446,8.988,957.056,-2.308,1.086
0.756000,543647,1000.00,12,0,1,1190.224,-2.970,8.980,957.200,-1.828,1.063
0.757000,543648,1000.00,12,0,1,1186.933,-3.145,8.991,959.842,0.519,1.049
0.758000,543649,1000.00,12,0,1,1186.885,-2.717,8.997,960.563,1.654,1.075
0.759000,543650,1000.00,12,0,1,1189.960,1.742,8.981,958.209,-0.704,1.078
0.760000,543651,1000.00,12,0,1,1190.200,2.498,8.961,959.097,-0.597,1.079
0.761000,543652,1000.00,12,0,1,1190.176,1.696,8.963,959.386,0.417,1.080
0.762000,543653,1000.00,12,0,1,1188.062,-0.278,8.959,959.770,0.057,1.054
0.763000,543654,1000.00,12,0,1,1189.191,-1.165,8.960,957.632,-1.084,1.053
0.764000,543655,1000.00,12,0,1,1193.539,2.247,8.881,958.137,-1.572,1.074
0.765000,543656,1000.00,12,0,1,1194.500,1.917,8.881,959.650,0.708,1.079
0.766000,543657,1000.00,12,0,1,1194.764,0.329,8.709,959.530,0.427,1.075
0.767000,543658,1000.00,12,0,1,1195.605,-0.042,7.986,960.298,0.929,1.080
0.768000,543659,1000.00,12,0,1,1195.941,-0.619,5.853,959.650,0.704,1.082
0.769000,543660,1000.00,12,0,1,1197.262,-0.074,5.486,957.128,-1.708,1.106
0.770000,543661,1000.00,12,0,1,1195.317,-1.251,5.268,958.929,-0.380,1.106
0.771000,543662,1000.00,12,0,1,1193.155,-3.235,5.269,959.674,1.196,1.117
0.772000,543663,1000.00,12,0,1,1194.932,-0.663,5.139,958.449,-0.182,1.113
0.773000,543664,1000.00,12,0,1,1194.932,1.191,4.917,959.001,0.177,1.111
0.774000,543665,1000.00,12,0,1,1193.731,0.958,4.466,959.698,1.065,1.102
0.775000,543666,1000.00,12,0,1,1186.837,-2.761,3.974,959.121,0.419,1.102
0.776000,543667,1000.00,12,0,1,1182.346,-6.223,3.353,960.178,0.999,1.105
0.777000,543668,1000.00,12,0,1,1183.715,-2.476,2.962,960.971,1.776,1.118
0.778000,543669,1000.00,12,0,1,1184.291,0.041,2.876,963.109,2.901,1.190
0.779000,543670,1000.00,12,0,1,1181.193,-1.457,2.878,960.058,0.721,1.193
0.780000,543671,1000.00,12,0,1,1181.601,-1.175,2.768,959.386,-1.524,1.212
0.781000,543672,1000.00,12,0,1,1185.204,2.492,2.732,960.419,0.187,1.205
0.782000,543673,1000.00,12,0,1,1189.888,5.838,2.836,959.890,-0.573,1.208
0.783000,543674,1000.00,12,0,1,1193.011,7.272,2.954,958.137,-1.974,1.240
0.784000,543675,1000.00,12,0,1,1191.545,4.169,2.991,957.680,-2.426,1.267
0.785000,543676,1000.00,12,0,1,1191.161,1.069,2.957,959.049,-0.938,1.269
0.786000,543677,1000.00,12,0,1,1192.963,1.366,2.906,959.914,0.321,1.260
0.787000,543678,1000.00,12,0,1,1188.807,-2.892,2.879,958.377,-0.932,1.265
0.788000,543679,1000.00,12,0,1,1186.957,-6.130,2.981,959.362,-0.372,1.265
0.789000,543680,1000.00,12,0,1,1186.693,-5.179,3.068,961.043,1.563,1.284
0.790000,543681,1000.00,12,0,1,1187.246,-4.263,3.108,959.097,0.070,1.253
0.791000,543682,1000.00,12,0,1,1187.054,-2.685,3.064,958.209,-1.314,1.251
0.792000,543683,1000.00,12,0,1,1187.150,-1.505,2.970,959.314,0.101,1.250
0.793000,543684,1000.00,12,0,1,1188.279,1.120,2.899,961.355,1.735,1.272
0.794000,543685,1000.00,12,0,1,1185.420,0.653,2.899,958.785,0.130,1.271
0.795000,543686,1000.00,12,0,1,1186.549,1.837,2.874,960.611,0.198,1.249
0.796000,543687,1000.00,12,0,1,1183.811,2.394,2.832,961.668,2.386,1.266
0.797000,543688,1000.00,12,0,1,1173.866,-5.664,2.783,959.386,-0.464,1.268
0.798000,543689,1000.00,12,0,1,1168.125,-9.510,3.089,959.842,-0.436,1.268
0.799000,543690,1000.00,12,0,1,1167.621,-7.538,3.265,961.043,0.917,1.259
0.800000,543691,1000.00,12,0,1,1168.389,-4.863,3.335,959.770,-0.305,1.253
0.801000,543692,1000.00,12,0,1,1172.113,-0.702,3.335,958.401,-1.660,1.258
0.802000,543693,1000.00,12,0,1,1173.338,1.306,3.337,957.440,-2.353,1.263
0.803000,543694,1000.00,12,0,1,1179.247,4.670,3.399,960.298,0.034,1.221
0.804000,543695,1000.00,12,0,1,1193.083,15.357,4.033,960.563,1.189,1.231
0.805000,543696,1000.00,12,0,1,1201.418,20.655,4.968,960.491,0.323,1.188
0.806000,543697,1000.00,12,0,1,1193.011,10.035,5.149,960.154,0.404,1.161
0.807000,543698,1000.00,12,0,1,1188.519,0.734,5.131,960.250,0.087,1.159
0.808000,543699,1000.00,12,0,1,1187.006,-0.729,5.118,960.467,0.454,1.137
0.809000,543700,1000.00,12,0,1,1187.846,-1.550,5.117,960.827,0.629,1.136
0.810000,543701,1000.00,12,0,1,1190.969,1.741,5.110,959.482,-0.378,1.134
0.811000,543702,1000.00,12,0,1,1192.602,3.419,5.128,960.322,-0.125,1.133
0.812000,543703,1000.00,12,0,1,1190.440,1.974,5.135,959.770,0.056,1.133
0.813000,543704,1000.00,12,0,1,1186.789,-0.664,5.133,959.818,-0.455,1.124
0.814000,543705,1000.00,12,0,1,1185.252,-1.211,5.126,958.401,-1.053,1.112
0.815000,543706,1000.00,12,0,1,1184.459,-0.066,5.119,957.320,-2.309,1.154
0.816000,543707,1000.00,12,0,1,1179.871,-2.519,5.131,959.410,-0.288,1.154
0.817000,543708,1000.00,12,0,1,1179.391,-2.419,5.143,960.395,1.186,1.158
0.818000,543709,1000.00,12,0,1,1177.061,-2.157,5.151,960.346,0.672,1.158
0.819000,543710,1000.00,12,0,1,1170.359,-7.381,5.256,957.272,-1.508,1.152
0.820000,543711,1000.00,12,0,1,1166.804,-9.869,5.435,957.248,-2.434,1.201
0.821000,543712,1000.00,12,0,1,1175.307,-2.229,5.425,958.833,0.019,1.189
0.822000,543713,1000.00,12,0,1,1179.223,3.169,5.442,959.986,0.786,1.194
0.823000,543714,1000.00,12,0,1,1178.454,0.300,5.440,959.193,0.476,1.196
0.824000,543715,1000.00,12,0,1,1180.520,0.714,5.439,960.539,0.905,1.193
0.825000,543716,1000.00,12,0,1,1183.835,2.265,5.435,961.932,2.526,1.244
0.826000,543717,1000.00,12,0,1,1185.444,2.190,5.372,961.451,1.691,1.259
0.827000,543718,1000.00,12,0,1,1183.955,-0.248,5.361,961.668,1.351,1.249
0.828000,543719,1000.00,12,0,1,1181.024,-3.902,5.389,961.572,1.306,1.194
0.829000,543720,1000.00,12,0,1,1183.186,-2.397,5.396,961.932,1.042,1.198
0.830000,543721,1000.00,12,0,1,1186.933,1.830,5.399,962.725,1.764,1.205
0.831000,543722,1000.00,12,0,1,1184.868,1.121,5.390,961.620,0.592,1.207
0.832000,543723,1000.00,12,0,1,1176.364,-5.353,5.380,959.338,-1.565,1.225
0.833000,543724,1000.00,12,0,1,1174.995,-5.850,5.345,958.881,-2.132,1.230
0.834000,543725,1000.00,12,0,1,1169.927,-5.777,5.375,960.322,-0.503,1.183
0.835000,543726,1000.00,12,0,1,1165.171,-8.578,5.508,960.010,-0.348,1.177
0.836000,543727,1000.00,12,0,1,1164.378,-5.531,5.560,961.091,0.130,1.176
0.837000,543728,1000.00,12,0,1,1160.102,-5.992,5.609,958.497,-1.233,1.182
0.838000,543729,1000.00,12,0,1,1160.967,-4.015,5.571,959.746,-1.433,1.198
0.839000,543730,1000.00,12,0,1,1168.149,4.547,5.560,960.539,0.650,1.181
0.840000,543731,1000.00,12,0,1,1175.908,11.362,5.756,960.467,-0.253,1.181
0.841000,543732,1000.00,12,0,1,1176.557,11.459,5.968,961.019,0.472,1.169
0.842000,543733,1000.00,12,0,1,1174.227,6.237,6.029,960.851,0.172,1.169
0.843000,543734,1000.00,12,0,1,1170.215,1.173,6.029,960.971,-0.024,1.143
0.844000,543735,1000.00,12,0,1,1182.922,7.801,6.128,959.962,-0.615,1.146
0.845000,543736,1000.00,12,0,1,1189.864,15.014,6.481,960.178,-0.968,1.154
0.846000,543737,1000.00,12,0,1,1190.200,9.785,6.618,959.242,-0.991,1.112
0.847000,543738,1000.00,12,0,1,1201.394,15.719,6.935,959.890,-1.039,1.120
0.848000,543739,1000.00,12,0,1,1200.769,14.427,7.103,963.277,2.380,1.168
0.849000,543740,1000.00,12,0,1,1176.484,-9.534,7.151,960.971,0.896,1.167
0.850000,543741,1000.00,12,0,1,1172.809,-16.567,7.493,957.968,-2.623,1.224
0.851000,543742,1000.00,12,0,1,1176.484,-7.566,7.569,960.034,-0.621,1.205
0.852000,543743,1000.00,12,0,1,1181.289,-2.726,7.576,962.100,1.806,1.186
0.853000,543744,1000.00,12,0,1,1184.868,3.686,7.565,959.410,-0.287,1.186
0.854000,543745,1000.00,12,0,1,1182.874,2.932,7.259,957.296,-2.667,1.233
0.855000,543746,1000.00,12,0,1,1181.000,1.687,6.649,957.968,-1.596,1.253
0.856000,543747,1000.00,12,0,1,1175.187,-1.384,6.499,957.728,-1.188,1.263
0.857000,543748,1000.00,12,0,1,1174.515,-2.801,6.510,957.992,-0.972,1.270
0.858000,543749,1000.00,12,0,1,1174.875,0.065,6.510,959.818,0.891,1.275
0.859000,543750,1000.00,12,0,1,1174.443,-1.136,6.508,960.322,1.502,1.290
0.860000,543751,1000.00,12,0,1,1173.314,-1.541,6.507,959.458,0.487,1.290
0.861000,543752,1000.00,12,0,1,1170.720,-4.730,6.523,959.554,0.249,1.291
0.862000,543753,1000.00,12,0,1,1167.477,-7.829,6.611,962.028,2.158,1.326
0.863000,543754,1000.00,12,0,1,1172.545,-4.875,6.646,961.451,1.958,1.353
0.864000,543755,1000.00,12,0,1,1183.474,4.497,6.674,960.010,-0.184,1.345
0.865000,543756,1000.00,12,0,1,1171.752,-4.411,6.703,959.530,-0.528,1.307
0.866000,543757,1000.00,12,0,1,1172.185,-10.131,6.845,959.290,-0.764,1.311
0.867000,543758,1000.00,12,0,1,1178.790,-0.386,6.837,959.602,-0.384,1.301
0.868000,543759,1000.00,12,0,1,1179.799,-1.009,6.832,959.842,0.052,1.298
0.869000,543760,1000.00,12,0,1,1174.010,-4.466,6.781,961.764,1.481,1.297
0.870000,543761,1000.00,12,0,1,1171.921,-6.859,6.706,958.401,-0.481,1.253
0.871000,543762,1000.00,12,0,1,1176.124,-0.854,6.700,959.602,-1.009,1.261
0.872000,543763,1000.00,12,0,1,1188.591,10.981,6.863,960.419,1.419,1.272
0.873000,543764,1000.00,12,0,1,1190.128,14.833,7.176,960.827,0.729,1.274
0.874000,543765,1000.00,12,0,1,1187.534,10.471,7.327,962.004,2.156,1.304
0.875000,543766,1000.00,12,0,1,1180.544,5.199,7.357,960.202,0.484,1.256
0.876000,543767,1000.00,12,0,1,1175.836,0.136,7.350,959.242,-1.032,1.242
0.877000,543768,1000.00,12,0,1,1176.581,1.605,7.353,960.443,0.281,1.227
0.878000,543769,1000.00,12,0,1,1178.911,4.329,7.358,960.395,0.229,1.214
0.879000,543770,1000.00,12,0,1,1174.899,1.007,7.352,960.587,0.169,1.205
0.880000,543771,1000.00,12,0,1,1156.547,-14.080,7.612,959.818,-0.462,1.181
0.881000,543772,1000.00,12,0,1,1156.379,-17.382,7.998,958.641,-1.638,1.200
0.882000,543773,1000.00,12,0,1,1155.082,-12.226,8.147,958.497,-1.754,1.206
0.883000,543774,1000.00,12,0,1,1157.941,-12.136,8.285,959.890,-0.374,1.169
0.884000,543775,1000.00,12,0,1,1161.279,-5.443,8.281,959.169,-0.549,1.169
0.885000,543776,1000.00,12,0,1,1167.092,-2.241,8.197,960.947,0.350,1.169
0.886000,543777,1000.00,12,0,1,1171.993,3.117,8.172,961.620,1.672,1.192
0.887000,543778,1000.00,12,0,1,1173.122,2.810,8.137,959.242,-0.779,1.185
0.888000,543779,1000.00,12,0,1,1172.905,1.648,8.121,959.746,-0.752,1.172
0.889000,543780,1000.00,12,0,1,1176.316,4.027,8.115,959.770,0.052,1.169
0.890000,543781,1000.00,12,0,1,1179.751,6.940,8.015,959.938,-0.223,1.168
0.891000,543782,1000.00,12,0,1,1181.673,8.653,7.944,957.176,-1.697,1.191
0.892000,543783,1000.00,12,0,1,1177.445,5.139,7.929,959.217,-0.971,1.199
0.893000,543784,1000.00,12,0,1,1175.115,2.809,7.937,959.290,0.887,1.205
0.894000,543785,1000.00,12,0,1,1173.914,3.204,7.873,959.386,-0.130,1.202
0.895000,543786,1000.00,12,0,1,1174.563,4.574,7.609,961.259,2.053,1.229
0.896000,543787,1000.00,12,0,1,1170.768,3.067,7.494,961.692,2.237,1.261
0.897000,543788,1000.00,12,0,1,1169.182,1.438,7.160,959.722,0.274,1.253
0.898000,543789,1000.00,12,0,1,1167.237,1.343,6.866,958.809,-0.941,1.215
0.899000,543790,1000.00,12,0,1,1166.468,0.370,6.732,961.259,0.928,1.215
0.900000,543791,1000.00,12,0,1,1169.110,2.676,6.323,960.010,0.651,1.161
0.901000,543792,1000.00,12,0,1,1171.152,4.070,6.258,958.401,-1.838,1.186
0.902000,543793,1000.00,12,0,1,1172.953,3.738,6.269,960.659,0.380,1.160
0.903000,543794,1000.00,12,0,1,1171.296,1.141,6.249,960.563,0.678,1.163
0.904000,543795,1000.00,12,0,1,1170.335,-2.503,6.245,959.698,-0.570,1.103
0.905000,543796,1000.00,12,0,1,1173.050,-1.383,6.244,959.698,-0.461,1.082
0.906000,543797,1000.00,12,0,1,1173.842,-1.789,6.246,961.283,0.729,1.074
0.907000,543798,1000.00,12,0,1,1177.613,-0.435,6.233,959.193,-0.403,1.066
0.908000,543799,1000.00,12,0,1,1177.229,-0.513,6.234,958.689,-1.727,1.087
0.909000,543800,1000.00,12,0,1,1172.545,-5.746,6.285,960.058,0.227,1.066
0.910000,543801,1000.00,12,0,1,1171.416,-6.498,6.348,959.842,0.156,1.064
0.911000,543802,1000.00,12,0,1,1172.617,-3.879,6.336,957.920,-1.366,1.081
0.912000,543803,1000.00,12,0,1,1174.347,-0.864,6.240,960.491,0.403,1.038
0.913000,543804,1000.00,12,0,1,1173.530,0.446,6.202,961.331,2.141,1.046
0.914000,543805,1000.00,12,0,1,1164.907,-4.960,6.209,957.968,-1.154,1.058
0.915000,543806,1000.00,12,0,1,1164.546,-4.896,6.216,959.746,-0.390,1.057
0.916000,543807,1000.00,12,0,1,1166.396,0.719,6.050,960.058,1.146,1.064
0.917000,543808,1000.00,12,0,1,1162.384,-1.255,6.052,958.016,-1.394,1.080
0.918000,543809,1000.00,12,0,1,1156.667,-4.873,6.090,958.281,-1.009,1.090
0.919000,543810,1000.00,12,0,1,1153.280,-6.530,6.127,960.250,0.737,1.075
0.920000,543811,1000.00,12,0,1,1161.976,1.112,6.051,960.226,1.050,1.083
0.921000,543812,1000.00,12,0,1,1164.714,6.129,6.112,957.848,-1.275,1.088
0.922000,543813,1000.00,12,0,1,1155.106,-3.949,5.938,959.482,-0.431,1.071
0.923000,543814,1000.00,12,0,1,1162.625,-0.631,5.556,959.890,0.871,1.073
0.924000,543815,1000.00,12,0,1,1169.158,7.160,5.449,958.089,-1.208,1.043
0.925000,543816,1000.00,12,0,1,1169.999,4.320,5.434,957.056,-1.900,1.075
0.926000,543817,1000.00,12,0,1,1171.344,4.043,5.464,957.896,-1.078,1.076
0.927000,543818,1000.00,12,0,1,1169.278,0.584,5.460,959.698,0.888,1.083
0.928000,543819,1000.00,12,0,1,1167.237,-2.630,5.438,959.530,1.034,1.092
0.929000,543820,1000.00,12,0,1,1168.582,-1.574,5.441,961.451,2.022,1.129
0.930000,543821,1000.00,12,0,1,1169.542,-0.117,5.063,960.298,1.785,1.155
0.931000,543822,1000.00,12,0,1,1168.750,0.063,4.427,960.130,0.385,1.132
0.932000,543823,1000.00,12,0,1,1164.138,-2.580,4.091,958.881,0.141,1.105
0.933000,543824,1000.00,12,0,1,1163.177,-2.460,3.730,958.329,-1.088,1.115
0.934000,543825,1000.00,12,0,1,1164.258,1.103,3.653,959.121,0.120,1.112
0.935000,543826,1000.00,12,0,1,1162.312,1.418,3.645,959.626,0.561,1.114
0.936000,543827,1000.00,12,0,1,1158.517,-0.444,3.619,960.659,1.277,1.103
0.937000,543828,1000.00,12,0,1,1158.853,0.869,3.599,959.049,0.231,1.098
0.938000,543829,1000.00,12,0,1,1159.430,2.999,3.617,959.025,-0.707,1.098
0.939000,543830,1000.00,12,0,1,1154.073,-0.820,3.573,958.233,-0.556,1.100
0.940000,543831,1000.00,12,0,1,1154.458,-1.690,3.444,959.049,-0.650,1.104
0.941000,543832,1000.00,12,0,1,1158.373,2.667,3.241,957.920,-0.622,1.081
0.942000,543833,1000.00,12,0,1,1157.532,1.186,3.163,958.761,-0.846,1.079
0.943000,543834,1000.00,12,0,1,1158.205,-0.096,3.138,960.178,1.182,1.084
0.944000,543835,1000.00,12,0,1,1158.733,-0.364,3.106,960.947,1.378,1.102
0.945000,543836,1000.00,12,0,1,1160.775,-0.538,3.039,960.539,1.031,1.073
0.946000,543837,1000.00,12,0,1,1156.379,-4.111,3.063,959.121,-0.459,1.027
0.947000,543838,1000.00,12,0,1,1162.673,-1.939,3.069,959.458,-0.523,1.029
0.948000,543839,1000.00,12,0,1,1172.545,8.367,3.284,959.338,-0.077,1.020
0.949000,543840,1000.00,12,0,1,1161.736,-0.688,3.285,961.692,1.257,1.027
0.950000,543841,1000.00,12,0,1,1155.995,-8.814,3.493,959.746,0.719,1.028
0.951000,543842,1000.00,12,0,1,1156.499,-4.798,3.511,960.274,-0.436,0.997
0.952000,543843,1000.00,12,0,1,1158.469,-2.127,3.484,963.613,3.299,1.099
0.953000,543844,1000.00,12,0,1,1154.770,-1.586,3.488,960.563,0.736,1.100
0.954000,543845,1000.00,12,0,1,1149.653,-5.102,3.544,961.644,0.095,1.097
0.955000,543846,1000.00,12,0,1,1151.959,-0.695,3.540,959.890,0.114,1.095
0.956000,543847,1000.00,12,0,1,1162.985,10.599,3.836,959.698,-1.699,1.117
0.957000,543848,1000.00,12,0,1,1171.272,19.098,4.691,960.491,0.213,1.116
0.958000,543849,1000.00,12,0,1,1165.939,13.752,5.078,960.034,-0.709,1.093
0.959000,543850,1000.00,12,0,1,1156.115,2.228,5.022,959.602,-0.870,1.100
0.960000,543851,1000.00,12,0,1,1149.701,-4.163,4.972,960.154,-0.524,1.102
0.961000,543852,1000.00,12,0,1,1147.540,-6.597,5.029,960.443,-0.130,1.085
0.962000,543853,1000.00,12,0,1,1148.404,-5.460,5.087,959.290,-1.019,1.093
0.963000,543854,1000.00,12,0,1,1147.564,-6.018,5.157,960.250,-0.687,1.055
0.964000,543855,1000.00,12,0,1,1150.086,-4.748,5.153,960.178,-0.001,1.042
0.965000,543856,1000.00,12,0,1,1159.382,2.728,5.121,960.082,-0.714,1.045
0.966000,543857,1000.00,12,0,1,1163.970,6.520,5.202,960.539,0.083,1.033
0.967000,543858,1000.00,12,0,1,1162.552,3.027,5.217,960.178,-0.358,1.015
0.968000,543859,1000.00,12,0,1,1164.234,2.475,5.183,958.353,-1.692,1.033
0.969000,543860,1000.00,12,0,1,1160.511,-0.360,5.100,958.713,-1.628,1.053
0.970000,543861,1000.00,12,0,1,1163.153,-0.269,5.098,959.049,-0.553,1.046
0.971000,543862,1000.00,12,0,1,1171.056,8.144,5.154,957.920,-1.403,1.049
0.972000,543863,1000.00,12,0,1,1168.389,6.501,5.205,959.290,-0.288,1.048
0.973000,543864,1000.00,12,0,1,1164.354,1.731,5.210,959.818,0.940,1.049
0.974000,543865,1000.00,12,0,1,1168.990,6.094,5.183,958.617,-0.338,1.036
0.975000,543866,1000.00,12,0,1,1158.517,0.108,5.147,960.082,0.775,1.007
0.976000,543867,1000.00,12,0,1,1155.370,-5.389,5.172,960.202,1.387,1.014
0.977000,543868,1000.00,12,0,1,1149.461,-5.395,5.227,960.611,1.105,1.019
0.978000,543869,1000.00,12,0,1,1146.819,-8.828,5.361,961.067,1.676,1.036
0.979000,543870,1000.00,12,0,1,1147.588,-4.674,5.397,958.521,-0.618,0.999
0.980000,543871,1000.00,12,0,1,1147.948,-3.877,5.425,960.443,0.119,0.967
0.981000,543872,1000.00,12,0,1,1147.131,-3.795,5.451,960.923,1.625,0.992
0.982000,543873,1000.00,12,0,1,1153.833,0.975,5.441,959.482,-0.507,0.995
0.983000,543874,1000.00,12,0,1,1163.345,8.767,5.570,959.578,-0.346,0.984
0.984000,543875,1000.00,12,0,1,1169.567,12.064,5.823,960.731,0.561,0.987
0.985000,543876,1000.00,12,0,1,1166.492,6.508,5.892,959.169,-0.430,0.986
0.986000,543877,1000.00,12,0,1,1163.297,0.008,5.891,958.641,-1.439,0.990
0.987000,543878,1000.00,12,0,1,1165.915,0.085,5.890,957.728,-1.557,1.014
0.988000,543879,1000.00,12,0,1,1164.234,-1.300,5.878,959.770,-0.211,1.009
0.989000,543880,1000.00,12,0,1,1159.622,-6.741,5.953,962.004,2.445,1.064
0.990000,543881,1000.00,12,0,1,1154.866,-9.587,6.101,960.250,0.852,1.067
0.991000,543882,1000.00,12,0,1,1156.211,-7.790,6.188,959.890,-0.239,1.064
0.992000,543883,1000.00,12,0,1,1155.274,-4.739,6.222,958.881,-0.438,1.059
0.993000,543884,1000.00,12,0,1,1151.527,-6.478,6.289,959.626,-0.487,1.048
0.994000,543885,1000.00,12,0,1,1147.636,-6.726,6.361,958.473,-0.439,1.031
0.995000,543886,1000.00,12,0,1,1158.253,3.264,6.377,960.130,-0.038,1.021
0.996000,543887,1000.00,12,0,1,1171.224,18.013,6.842,961.139,1.911,1.054
0.997000,543888,1000.00,12,0,1,1151.431,3.149,6.851,959.362,-0.210,1.052
0.998000,543889,1000.00,12,0,1,1133.680,-16.830,7.156,959.097,-0.679,1.056
0.999000,543890,1000.00,12,0,1,1134.568,-12.440,7.368,958.497,-0.788,1.047
1.000000,543891,1000.00,12,0,1,1139.132,-6.026,7.312,959.530,-0.336,1.043
1.001000,543892,1000.00,12,0,1,1149.822,3.964,7.302,959.410,0.314,1.042
1.002000,543893,1000.00,12,0,1,1151.887,7.133,7.365,958.737,-0.827,0.939
1.003000,543894,1000.00,12,0,1,1148.476,1.068,7.363,959.049,-0.259,0.934
1.004000,543895,1000.00,12,0,1,1156.763,5.785,7.373,957.656,-1.266,0.951
1.005000,543896,1000.00,12,0,1,1157.868,6.980,7.438,959.842,0.116,0.951
1.006000,543897,1000.00,12,0,1,1153.329,-0.595,7.286,958.929,0.509,0.923
1.007000,543898,1000.00,12,0,1,1149.149,-4.904,6.803,958.977,-0.599,0.927
1.008000,543899,1000.00,12,0,1,1147.323,-7.146,6.597,958.137,-0.281,0.922
1.009000,543900,1000.00,12,0,1,1144.609,-7.902,6.683,957.848,-1.178,0.929
1.010000,543901,1000.00,12,0,1,1143.216,-7.945,6.751,959.169,0.488,0.929
1.011000,543902,1000.00,12,0,1,1138.652,-8.692,6.799,960.010,1.299,0.946
1.012000,543903,1000.00,12,0,1,1136.898,-8.260,6.855,960.611,1.609,0.963
1.013000,543904,1000.00,12,0,1,1145.065,1.679,6.806,960.923,1.835,0.992
1.014000,543905,1000.00,12,0,1,1164.330,20.150,7.348,960.755,1.284,1.009
1.015000,543906,1000.00,12,0,1,1173.434,29.654,8.452,958.521,-0.492,1.006
1.016000,543907,1000.00,12,0,1,1167.116,21.240,8.922,961.740,1.141,1.019
1.017000,543908,1000.00,12,0,1,1162.961,13.589,9.117,959.578,0.991,1.027
1.018000,543909,1000.00,12,0,1,1161.904,11.269,9.248,958.377,-1.995,1.038
1.019000,543910,1000.00,12,0,1,1163.513,9.885,9.353,961.740,1.750,1.042
1.020000,543911,1000.00,12,0,1,1148.380,-2.464,9.360,959.818,0.476,1.041
1.021000,543912,1000.00,12,0,1,1145.258,-10.854,9.414,958.689,-1.585,1.046
1.022000,543913,1000.00,12,0,1,1150.782,-3.038,9.379,958.089,-1.250,1.060
1.023000,543914,1000.00,12,0,1,1149.701,-5.092,9.404,958.953,-1.063,1.063
1.024000,543915,1000.00,12,0,1,1155.586,-1.908,9.368,958.329,-0.595,1.065
1.025000,543916,1000.00,12,0,1,1159.238,1.798,9.371,959.314,-0.536,1.062
1.026000,543917,1000.00,12,0,1,1161.111,0.361,9.340,958.497,-0.205,1.044
1.027000,543918,1000.00,12,0,1,1161.616,0.377,9.309,957.656,-1.616,1.057
1.028000,543919,1000.00,12,0,1,1161.087,-2.179,9.230,957.536,-1.126,1.043
1.029000,543920,1000.00,12,0,1,1158.421,-4.250,9.226,960.731,1.281,1.055
1.030000,543921,1000.00,12,0,1,1150.710,-10.706,9.334,961.692,2.846,1.129
1.031000,543922,1000.00,12,0,1,1149.461,-11.330,9.455,959.746,0.516,1.108
1.032000,543923,1000.00,12,0,1,1150.734,-6.843,9.503,960.178,0.318,1.106
1.033000,543924,1000.00,12,0,1,1153.665,-2.728,9.430,959.217,0.088,1.105
1.034000,543925,1000.00,12,0,1,1154.097,0.524,9.275,958.761,-1.025,1.112
1.035000,543926,1000.00,12,0,1,1147.083,-3.932,9.246,958.281,-0.723,1.115
1.036000,543927,1000.00,12,0,1,1141.775,-7.500,9.306,960.395,0.491,1.098
1.037000,543928,1000.00,12,0,1,1140.910,-5.735,9.342,960.611,1.625,1.100
1.038000,543929,1000.00,12,0,1,1141.414,-3.252,9.351,959.938,0.200,1.100
1.039000,543930,1000.00,12,0,1,1143.960,0.276,9.302,959.290,-0.081,1.045
1.040000,543931,1000.00,12,0,1,1144.105,1.460,9.205,958.449,-0.981,1.047
1.041000,543932,1000.00,12,0,1,1142.952,-0.019,9.139,958.233,-1.068,1.057
1.042000,543933,1000.00,12,0,1,1147.660,3.027,9.125,959.866,0.398,1.057
1.043000,543934,1000.00,12,0,1,1153.617,7.759,9.145,959.362,0.384,1.056
1.044000,543935,1000.00,12,0,1,1158.565,9.749,9.199,958.689,-0.624,1.058
1.045000,543936,1000.00,12,0,1,1169.374,15.767,9.454,959.554,0.167,1.058
1.046000,543937,1000.00,12,0,1,1175.404,18.770,9.484,959.578,0.412,1.025
1.047000,543938,1000.00,12,0,1,1143.840,-9.043,9.559,960.274,0.574,1.027
1.048000,543939,1000.00,12,0,1,1132.575,-26.775,10.002,958.641,-0.328,1.024
1.049000,543940,1000.00,12,0,1,1140.694,-12.518,10.004,960.827,0.431,1.020
1.050000,543941,1000.00,12,0,1,1144.417,-7.282,10.021,960.563,1.461,1.039
1.051000,543942,1000.00,12,0,1,1145.714,-3.323,10.016,960.755,0.256,1.039
1.052000,543943,1000.00,12,0,1,1150.614,2.212,9.970,961.331,1.357,1.050
1.053000,543944,1000.00,12,0,1,1156.331,8.743,10.046,959.338,-0.675,1.054
1.054000,543945,1000.00,12,0,1,1150.374,5.576,10.043,961.451,0.433,1.040
1.055000,543946,1000.00,12,0,1,1148.404,1.682,9.997,961.451,1.489,1.061
1.056000,543947,1000.00,12,0,1,1146.170,2.865,10.005,960.947,-0.091,1.059
1.057000,543948,1000.00,12,0,1,1144.009,-0.096,9.981,959.842,-0.383,1.057
1.058000,543949,1000.00,12,0,1,1142.663,0.551,9.930,959.722,-1.153,1.069
1.059000,543950,1000.00,12,0,1,1140.141,-1.802,9.870,960.899,0.358,1.057
1.060000,543951,1000.00,12,0,1,1135.914,-4.697,9.829,959.410,-0.723,1.059
1.061000,543952,1000.00,12,0,1,1132.262,-7.783,9.814,958.953,-1.552,1.066
1.062000,543953,1000.00,12,0,1,1133.151,-6.677,9.789,958.113,-1.560,1.065
1.063000,543954,1000.00,12,0,1,1133.007,-5.456,9.817,960.058,-0.420,1.034
1.064000,543955,1000.00,12,0,1,1135.745,-3.856,9.410,960.250,0.812,1.025
1.065000,543956,1000.00,12,0,1,1143.072,2.899,8.434,960.707,0.278,1.023
1.066000,543957,1000.00,12,0,1,1150.999,8.821,7.979,959.722,0.069,1.010
1.067000,543958,1000.00,12,0,1,1154.938,11.108,7.902,960.659,-0.031,1.001
1.068000,543959,1000.00,12,0,1,1159.598,12.215,7.930,960.178,0.315,0.961
1.069000,543960,1000.00,12,0,1,1161.544,12.586,8.006,959.530,-0.912,0.938
1.070000,543961,1000.00,12,0,1,1159.045,8.153,8.081,961.331,0.687,0.940
1.071000,543962,1000.00,12,0,1,1154.433,2.995,7.945,960.611,0.547,0.916
1.072000,543963,1000.00,12,0,1,1153.617,1.485,7.936,960.779,-0.179,0.900
1.073000,543964,1000.00,12,0,1,1144.441,-4.197,7.926,960.178,0.040,0.887
1.074000,543965,1000.00,12,0,1,1134.400,-12.849,8.127,959.410,-1.211,0.899
1.075000,543966,1000.00,12,0,1,1132.863,-11.279,8.278,959.842,-0.394,0.898
1.076000,543967,1000.00,12,0,1,1133.608,-6.951,8.336,956.887,-2.450,0.962
1.077000,543968,1000.00,12,0,1,1131.518,-6.005,8.379,956.743,-2.997,1.026
1.078000,543969,1000.00,12,0,1,1130.797,-4.854,8.402,959.362,0.263,1.014
1.079000,543970,1000.00,12,0,1,1129.332,-4.183,8.401,960.443,1.465,1.019
1.080000,543971,1000.00,12,0,1,1132.166,-1.468,8.266,960.587,1.480,0.960
1.081000,543972,1000.00,12,0,1,1135.914,2.694,8.118,959.962,0.834,0.964
1.082000,543973,1000.00,12,0,1,1136.898,2.818,8.070,958.016,-0.925,0.972
1.083000,543974,1000.00,12,0,1,1140.790,4.275,8.084,959.121,-0.385,0.973
1.084000,543975,1000.00,12,0,1,1148.092,9.076,8.184,959.650,0.763,0.969
1.085000,543976,1000.00,12,0,1,1161.231,17.073,8.515,958.977,-0.191,0.963
1.086000,543977,1000.00,12,0,1,1165.891,19.295,8.878,959.121,-0.078,0.961
1.087000,543978,1000.00,12,0,1,1164.426,12.438,9.015,959.890,0.575,0.937
1.088000,543979,1000.00,12,0,1,1159.190,5.324,9.034,960.803,1.264,0.953
1.089000,543980,1000.00,12,0,1,1151.455,-3.863,9.051,959.554,0.314,0.954
1.090000,543981,1000.00,12,0,1,1147.443,-7.767,9.115,961.163,0.830,0.951
1.091000,543982,1000.00,12,0,1,1149.990,-4.510,9.137,960.779,1.347,0.958
1.092000,543983,1000.00,12,0,1,1154.602,1.296,9.129,959.025,-1.010,0.967
1.093000,543984,1000.00,12,0,1,1150.422,-0.051,9.063,957.920,-1.613,0.992
1.094000,543985,1000.00,12,0,1,1148.572,-2.198,8.963,958.617,-1.078,1.000
1.095000,543986,1000.00,12,0,1,1155.370,5.394,8.714,958.137,-0.759,1.006
1.096000,543987,1000.00,12,0,1,1152.152,4.694,8.327,959.578,0.121,1.004
1.097000,543988,1000.00,12,0,1,1141.054,-5.693,8.267,959.482,0.832,1.008
1.098000,543989,1000.00,12,0,1,1134.160,-11.230,7.519,960.491,1.005,1.017
1.099000,543990,1000.00,12,0,1,1127.146,-15.028,7.610,961.307,2.099,1.057
1.100000,543991,1000.00,12,0,1,1120.708,-19.020,8.005,959.578,0.355,1.038
1.101000,543992,1000.00,12,0,1,1124.480,-14.178,8.239,960.419,0.347,1.039
1.102000,543993,1000.00,12,0,1,1134.881,-2.982,8.244,961.620,1.867,1.054
1.103000,543994,1000.00,12,0,1,1143.120,4.536,8.176,959.482,-0.301,1.051
1.104000,543995,1000.00,12,0,1,1148.981,7.890,8.214,958.521,-1.558,1.072
1.105000,543996,1000.00,12,0,1,1160.727,14.676,8.469,960.659,0.278,1.052
1.106000,543997,1000.00,12,0,1,1165.939,17.386,8.809,959.914,0.251,1.052
1.107000,543998,1000.00,12,0,1,1160.174,8.111,8.884,958.641,-1.532,1.073
1.108000,543999,1000.00,12,0,1,1158.013,2.426,8.890,959.530,-0.545,1.063
1.109000,544000,1000.00,12,0,1,1155.947,0.322,8.886,960.058,0.118,1.062
1.110000,544001,1000.00,12,0,1,1149.245,-5.807,8.900,960.010,0.012,1.057
1.111000,544002,1000.00,12,0,1,1145.258,-8.523,8.913,960.298,0.224,1.035
1.112000,544003,1000.00,12,0,1,1143.960,-7.076,8.919,960.178,0.157,1.011
1.113000,544004,1000.00,12,0,1,1147.443,-1.904,8.890,959.266,-0.608,1.013
1.114000,544005,1000.00,12,0,1,1155.466,7.416,8.935,958.857,-1.022,1.017
1.115000,544006,1000.00,12,0,1,1152.752,7.572,8.990,961.764,1.382,1.035
1.116000,544007,1000.00,12,0,1,1139.805,-3.793,8.919,960.370,1.041,1.045
1.117000,544008,1000.00,12,0,1,1131.230,-10.711,8.909,959.794,-0.648,1.049
1.118000,544009,1000.00,12,0,1,1127.146,-11.638,8.894,961.355,1.229,1.063
1.119000,544010,1000.00,12,0,1,1127.723,-9.350,8.813,961.860,1.487,1.076
1.120000,544011,1000.00,12,0,1,1129.044,-5.901,8.777,960.226,0.016,1.071
1.121000,544012,1000.00,12,0,1,1132.310,-2.959,8.777,960.250,-0.495,1.071
1.122000,544013,1000.00,12,0,1,1141.534,4.545,8.798,959.842,-0.437,1.072
1.123000,544014,1000.00,12,0,1,1149.822,10.709,8.908,960.899,0.038,1.072
1.124000,544015,1000.00,12,0,1,1157.268,13.601,8.930,959.890,-0.245,1.059
1.125000,544016,1000.00,12,0,1,1158.253,11.724,8.941,960.827,-0.243,1.058
1.126000,544017,1000.00,12,0,1,1157.100,6.034,8.928,961.259,0.772,1.006
1.127000,544018,1000.00,12,0,1,1157.172,3.678,8.903,959.818,-0.822,0.919
1.128000,544019,1000.00,12,0,1,1149.341,-3.980,8.894,958.833,-1.764,0.952
1.129000,544020,1000.00,12,0,1,1145.426,-9.172,8.969,957.920,-2.175,0.979
1.130000,544021,1000.00,12,0,1,1147.756,-5.019,8.994,957.968,-2.099,1.001
1.131000,544022,1000.00,12,0,1,1149.221,-1.882,8.990,959.890,0.016,0.994
1.132000,544023,1000.00,12,0,1,1145.282,-2.799,8.990,961.091,1.295,1.002
1.133000,544024,1000.00,12,0,1,1144.033,-2.753,8.978,958.881,-0.376,1.002
1.134000,544025,1000.00,12,0,1,1137.163,-4.625,8.910,959.242,-0.826,1.003
1.135000,544026,1000.00,12,0,1,1122.390,-15.017,8.836,961.812,1.992,1.042
1.136000,544027,1000.00,12,0,1,1127.386,-9.529,8.511,963.229,3.008,1.125
1.137000,544028,1000.00,12,0,1,1132.094,1.377,8.330,960.274,0.531,1.125
1.138000,544029,1000.00,12,0,1,1139.108,6.205,8.342,959.938,-0.887,1.117
1.139000,544030,1000.00,12,0,1,1144.921,13.238,8.532,960.923,0.653,1.120
1.140000,544031,1000.00,12,0,1,1145.642,10.936,8.601,960.250,-0.076,1.114
1.141000,544032,1000.00,12,0,1,1143.744,7.038,8.635,958.833,-1.291,1.113
1.142000,544033,1000.00,12,0,1,1141.775,2.239,8.639,960.226,-0.293,1.104
1.143000,544034,1000.00,12,0,1,1140.261,-1.457,8.641,959.386,-0.254,1.081
1.144000,544035,1000.00,12,0,1,1143.240,-1.130,8.637,959.386,-0.867,1.077
1.145000,544036,1000.00,12,0,1,1148.693,1.992,8.608,959.818,0.049,1.072
1.146000,544037,1000.00,12,0,1,1150.662,2.518,8.590,960.491,0.413,1.074
1.147000,544038,1000.00,12,0,1,1144.801,-3.921,8.570,959.602,-0.081,1.067
1.148000,544039,1000.00,12,0,1,1147.203,-3.850,8.439,959.962,-0.219,1.058
1.149000,544040,1000.00,12,0,1,1152.416,2.377,8.174,959.097,-0.472,1.018
1.150000,544041,1000.00,12,0,1,1148.813,0.120,7.719,960.611,0.223,1.017
1.151000,544042,1000.00,12,0,1,1142.687,-4.877,7.486,960.683,1.006,1.026
1.152000,544043,1000.00,12,0,1,1137.091,-7.293,7.545,958.881,-0.992,1.001
1.153000,544044,1000.00,12,0,1,1133.439,-7.980,7.602,958.449,-1.428,1.020
1.154000,544045,1000.00,12,0,1,1132.166,-5.467,7.559,958.689,-0.817,1.003
1.155000,544046,1000.00,12,0,1,1128.347,-5.307,7.307,960.827,0.833,1.009
1.156000,544047,1000.00,12,0,1,1127.843,-3.686,6.901,958.689,-0.024,1.008
1.157000,544048,1000.00,12,0,1,1130.149,0.969,6.806,958.257,-1.592,1.010
1.158000,544049,1000.00,12,0,1,1139.180,8.869,6.912,958.809,-0.002,1.007
1.159000,544050,1000.00,12,0,1,1154.361,21.442,7.548,959.482,0.173,1.008
1.160000,544051,1000.00,12,0,1,1148.837,16.143,7.843,958.569,0.003,1.008
1.161000,544052,1000.00,12,0,1,1139.829,1.421,7.752,958.497,-0.531,1.010
1.162000,544053,1000.00,12,0,1,1143.576,2.264,7.694,959.890,0.977,1.019
1.163000,544054,1000.00,12,0,1,1145.882,2.730,7.699,961.019,1.971,1.053
1.164000,544055,1000.00,12,0,1,1146.699,0.341,7.627,960.563,1.400,1.062
1.165000,544056,1000.00,12,0,1,1139.204,-6.730,7.611,961.259,1.505,1.065
1.166000,544057,1000.00,12,0,1,1133.079,-14.604,7.868,961.860,1.947,1.090
1.167000,544058,1000.00,12,0,1,1131.278,-14.308,7.982,960.058,0.249,1.087
1.168000,544059,1000.00,12,0,1,1126.329,-16.398,8.147,959.794,-0.681,1.077
1.169000,544060,1000.00,12,0,1,1125.921,-14.587,8.300,959.602,-0.337,1.057
1.170000,544061,1000.00,12,0,1,1128.227,-8.291,8.341,959.866,-0.508,1.060
1.171000,544062,1000.00,12,0,1,1138.292,2.422,8.337,960.178,0.137,1.058
1.172000,544063,1000.00,12,0,1,1150.566,16.302,8.626,959.314,-0.691,1.060
1.173000,544064,1000.00,12,0,1,1160.583,24.556,9.175,961.139,0.552,1.063
1.174000,544065,1000.00,12,0,1,1163.177,26.010,9.696,959.458,-0.030,1.063
1.175000,544066,1000.00,12,0,1,1158.805,19.175,9.930,960.370,-0.493,1.064
1.176000,544067,1000.00,12,0,1,1150.422,9.571,9.986,959.818,0.292,1.060
1.177000,544068,1000.00,12,0,1,1140.958,-0.367,9.972,959.362,-1.061,1.064
1.178000,544069,1000.00,12,0,1,1137.355,-4.691,9.979,959.049,-0.617,1.038
1.179000,544070,1000.00,12,0,1,1141.895,-0.772,9.895,959.338,-0.666,0.996
1.180000,544071,1000.00,12,0,1,1144.441,1.569,9.872,962.941,2.358,1.007
1.181000,544072,1000.00,12,0,1,1143.936,-0.573,9.868,961.499,1.908,1.043
1.182000,544073,1000.00,12,0,1,1141.967,-3.789,9.875,961.283,0.043,1.027
1.183000,544074,1000.00,12,0,1,1146.915,-1.984,9.871,959.482,-0.405,1.027
1.184000,544075,1000.00,12,0,1,1154.698,3.905,9.865,959.914,-1.341,1.038
1.185000,544076,1000.00,12,0,1,1156.139,3.317,9.645,958.929,-0.840,1.006
1.186000,544077,1000.00,12,0,1,1151.407,-3.094,9.560,959.193,-1.529,0.937
1.187000,544078,1000.00,12,0,1,1149.293,-6.799,9.607,960.923,0.722,0.939
1.188000,544079,1000.00,12,0,1,1150.206,-5.863,9.602,959.410,-0.389,0.932
1.189000,544080,1000.00,12,0,1,1148.524,-6.315,9.460,959.242,-1.144,0.942
1.190000,544081,1000.00,12,0,1,1146.459,-7.393,9.392,959.698,-0.042,0.942
1.191000,544082,1000.00,12,0,1,1146.627,-5.395,9.370,960.563,0.293,0.925
1.192000,544083,1000.00,12,0,1,1143.984,-5.191,9.393,960.178,0.515,0.927
1.193000,544084,1000.00,12,0,1,1143.792,-3.933,9.407,960.563,0.181,0.926
1.194000,544085,1000.00,12,0,1,1145.930,0.491,9.406,960.611,0.698,0.923
1.195000,544086,1000.00,12,0,1,1146.170,2.354,9.408,959.842,-0.323,0.925
1.196000,544087,1000.00,12,0,1,1142.952,0.708,9.402,958.713,-1.124,0.936
1.197000,544088,1000.00,12,0,1,1141.222,-0.611,9.386,958.040,-1.695,0.966
1.198000,544089,1000.00,12,0,1,1137.715,-2.453,9.376,957.824,-1.548,0.990
1.199000,544090,1000.00,12,0,1,1131.998,-7.227,9.426,959.722,0.159,0.988
1.200000,544091,1000.00,12,0,1,1132.743,-6.725,9.474,959.962,0.950,0.997
1.201000,544092,1000.00,12,0,1,1136.130,-2.620,9.456,961.259,1.439,1.008
1.202000,544093,1000.00,12,0,1,1140.694,0.511,9.400,960.755,1.462,1.019
1.203000,544094,1000.00,12,0,1,1143.936,2.873,9.341,960.899,0.725,1.004
1.204000,544095,1000.00,12,0,1,1146.723,3.214,9.320,960.202,0.494,1.000
1.205000,544096,1000.00,12,0,1,1152.632,6.418,9.334,959.890,-0.315,0.994
1.206000,544097,1000.00,12,0,1,1156.908,8.578,9.398,959.962,-0.042,0.994
1.207000,544098,1000.00,12,0,1,1152.392,3.107,9.407,959.842,-0.176,0.968
1.208000,544099,1000.00,12,0,1,1146.771,-3.822,9.339,959.025,-0.816,0.975
1.209000,544100,1000.00,12,0,1,1147.540,-3.242,8.844,959.097,-0.765,0.981
1.210000,544101,1000.00,12,0,1,1151.023,1.053,8.546,958.089,-1.245,0.997
1.211000,544102,1000.00,12,0,1,1152.584,3.460,8.558,958.161,-1.286,1.010
1.212000,544103,1000.00,12,0,1,1147.083,0.177,8.552,958.257,-0.677,1.005
1.213000,544104,1000.00,12,0,1,1142.807,-3.361,8.556,959.386,0.219,0.966
1.214000,544105,1000.00,12,0,1,1140.958,-2.495,8.563,960.875,1.737,0.977
1.215000,544106,1000.00,12,0,1,1138.292,-2.976,8.521,962.532,2.890,1.038
1.216000,544107,1000.00,12,0,1,1140.285,-0.067,8.267,961.740,2.126,1.045
1.217000,544108,1000.00,12,0,1,1140.742,2.407,8.022,960.803,0.558,1.047
1.218000,544109,1000.00,12,0,1,1137.091,-0.727,7.680,960.010,-0.162,1.043
1.219000,544110,1000.00,12,0,1,1141.390,1.963,7.403,959.169,-1.020,1.052
1.220000,544111,1000.00,12,0,1,1146.050,6.532,7.368,959.962,-0.443,1.051
1.221000,544112,1000.00,12,0,1,1146.026,4.489,7.388,961.211,0.917,1.059
1.222000,544113,1000.00,12,0,1,1146.146,2.300,7.026,959.410,-0.508,1.057
1.223000,544114,1000.00,12,0,1,1146.026,0.330,6.108,957.896,-2.173,1.098
1.224000,544115,1000.00,12,0,1,1146.218,-1.533,4.881,959.121,-0.919,1.106
1.225000,544116,1000.00,12,0,1,1148.693,-0.879,4.060,959.986,0.338,1.104
1.226000,544117,1000.00,12,0,1,1150.014,-0.570,3.829,959.770,0.071,1.104
1.227000,544118,1000.00,12,0,1,1149.125,-2.197,3.841,960.851,0.853,1.100
1.228000,544119,1000.00,12,0,1,1151.599,-0.883,3.786,959.818,0.308,1.097
1.229000,544120,1000.00,12,0,1,1152.464,0.846,3.786,959.626,-0.486,1.096
1.230000,544121,1000.00,12,0,1,1148.140,-2.545,3.796,958.016,-1.212,1.058
1.231000,544122,1000.00,12,0,1,1143.576,-5.604,3.877,960.058,-0.263,1.023
1.232000,544123,1000.00,12,0,1,1144.753,-3.111,3.865,958.377,-0.250,1.024
1.233000,544124,1000.00,12,0,1,1143.264,-1.225,3.859,960.419,-0.067,1.022
1.234000,544125,1000.00,12,0,1,1141.679,-1.589,3.826,958.905,0.434,1.006
1.235000,544126,1000.00,12,0,1,1139.397,-1.105,3.800,959.001,-1.111,1.012
1.236000,544127,1000.00,12,0,1,1139.276,-0.454,3.776,957.848,-0.705,0.993
1.237000,544128,1000.00,12,0,1,1139.853,1.622,3.658,957.896,-1.480,1.010
1.238000,544129,1000.00,12,0,1,1139.757,1.733,3.571,959.362,0.460,1.010
1.239000,544130,1000.00,12,0,1,1131.013,-4.896,3.527,959.097,0.471,1.000
1.240000,544131,1000.00,12,0,1,1131.974,-6.400,3.488,960.202,0.828,1.006
1.241000,544132,1000.00,12,0,1,1141.679,3.349,3.436,960.563,1.775,1.036
1.242000,544133,1000.00,12,0,1,1144.369,5.219,3.437,961.139,1.347,1.051
1.243000,544134,1000.00,12,0,1,1141.510,0.363,3.392,959.770,0.763,1.057
1.244000,544135,1000.00,12,0,1,1137.763,-4.334,3.446,958.929,-0.924,1.060
1.245000,544136,1000.00,12,0,1,1143.144,-1.909,3.440,959.193,-0.138,1.059
1.246000,544137,1000.00,12,0,1,1151.047,5.622,3.530,961.115,1.113,1.059
1.247000,544138,1000.00,12,0,1,1151.095,4.567,3.587,960.707,1.343,1.049
1.248000,544139,1000.00,12,0,1,1144.441,-1.998,3.582,958.064,-1.449,1.046
1.249000,544140,1000.00,12,0,1,1140.045,-6.436,3.551,959.458,-0.622,1.049
1.250000,544141,1000.00,12,0,1,1138.796,-5.666,3.514,959.578,0.429,1.043
1.251000,544142,1000.00,12,0,1,1141.246,-1.892,3.505,960.010,0.041,1.023
1.252000,544143,1000.00,12,0,1,1145.354,3.950,3.548,960.178,0.763,1.007
1.253000,544144,1000.00,12,0,1,1137.355,-0.111,3.525,960.683,0.590,1.005
1.254000,544145,1000.00,12,0,1,1138.123,-0.839,3.498,961.523,1.476,1.024
1.255000,544146,1000.00,12,0,1,1142.928,7.165,3.527,960.202,0.194,1.024
1.256000,544147,1000.00,12,0,1,1136.850,2.582,3.331,960.539,-0.138,1.024
1.257000,544148,1000.00,12,0,1,1131.758,-2.419,3.320,958.569,-1.124,1.036
1.258000,544149,1000.00,12,0,1,1133.536,-0.218,3.276,958.977,-1.701,1.057
1.259000,544150,1000.00,12,0,1,1137.907,3.738,3.286,958.040,-1.233,1.066
1.260000,544151,1000.00,12,0,1,1136.994,3.010,3.310,958.209,-1.820,1.082
1.261000,544152,1000.00,12,0,1,1141.414,3.743,3.317,959.890,0.423,1.069
1.262000,544153,1000.00,12,0,1,1145.738,7.209,3.470,960.539,0.958,1.073
1.263000,544154,1000.00,12,0,1,1150.686,7.735,3.607,961.499,1.537,1.094
1.264000,544155,1000.00,12,0,1,1149.173,5.216,3.665,960.731,1.048,1.077
1.265000,544156,1000.00,12,0,1,1148.404,0.380,3.641,962.124,1.295,1.013
1.266000,544157,1000.00,12,0,1,1147.419,-1.044,3.644,961.403,1.404,0.987
1.267000,544158,1000.00,12,0,1,1152.704,1.097,3.631,961.379,0.178,0.984
1.268000,544159,1000.00,12,0,1,1153.160,2.695,3.650,959.482,-0.645,0.988
1.269000,544160,1000.00,12,0,1,1143.000,-6.664,3.759,959.217,-1.807,1.011
1.270000,544161,1000.00,12,0,1,1141.943,-8.424,3.833,959.001,-1.037,1.019
1.271000,544162,1000.00,12,0,1,1141.847,-4.404,3.832,958.737,-1.497,1.033
1.272000,544163,1000.00,12,0,1,1145.162,-1.334,3.822,959.578,-0.442,1.032
1.273000,544164,1000.00,12,0,1,1144.489,2.011,3.833,960.971,0.913,0.994
1.274000,544165,1000.00,12,0,1,1141.078,-1.077,3.830,958.257,-1.029,0.996
1.275000,544166,1000.00,12,0,1,1140.213,-0.034,3.827,959.001,-1.254,1.011
1.276000,544167,1000.00,12,0,1,1138.412,-0.436,3.827,958.929,-0.175,1.011
1.277000,544168,1000.00,12,0,1,1130.077,-6.224,3.915,958.209,-1.271,1.020
1.278000,544169,1000.00,12,0,1,1128.107,-8.363,4.088,958.497,-0.680,1.023
1.279000,544170,1000.00,12,0,1,1130.629,-4.150,4.128,960.947,1.340,1.038
1.280000,544171,1000.00,12,0,1,1130.653,-3.553,4.143,961.163,1.913,1.059
1.281000,544172,1000.00,12,0,1,1132.238,-2.866,4.086,960.923,1.047,1.069
1.282000,544173,1000.00,12,0,1,1135.313,-0.330,4.063,957.296,-1.704,1.095
1.283000,544174,1000.00,12,0,1,1132.935,-2.954,4.081,958.617,-1.611,1.119
1.284000,544175,1000.00,12,0,1,1140.910,1.199,4.078,959.938,0.896,1.124
1.285000,544176,1000.00,12,0,1,1145.738,6.596,4.180,959.722,0.220,1.113
1.286000,544177,1000.00,12,0,1,1140.982,0.236,4.180,959.962,0.515,1.111
1.287000,544178,1000.00,12,0,1,1139.973,-2.224,4.185,958.737,-0.323,1.092
1.288000,544179,1000.00,12,0,1,1141.943,0.148,4.178,959.890,0.073,1.091
1.289000,544180,1000.00,12,0,1,1144.681,2.595,4.137,960.154,1.168,1.101
1.290000,544181,1000.00,12,0,1,1144.273,3.602,4.069,961.331,1.279,1.110
1.291000,544182,1000.00,12,0,1,1141.895,1.667,4.048,958.809,0.065,1.081
1.292000,544183,1000.00,12,0,1,1135.241,-2.048,3.991,957.416,-2.342,1.114
1.293000,544184,1000.00,12,0,1,1133.463,-3.208,4.016,958.497,-0.548,1.112
1.294000,544185,1000.00,12,0,1,1131.085,-1.596,3.975,959.049,0.011,1.104
1.295000,544186,1000.00,12,0,1,1134.400,1.528,3.972,958.305,-0.415,1.106
1.296000,544187,1000.00,12,0,1,1136.298,6.129,3.987,958.761,-0.211,1.095
1.297000,544188,1000.00,12,0,1,1136.034,5.164,4.002,959.410,0.579,1.081
1.298000,544189,1000.00,12,0,1,1140.045,7.974,4.148,959.962,0.956,1.070
1.299000,544190,1000.00,12,0,1,1140.285,7.850,4.196,960.298,1.089,1.078
1.300000,544191,1000.00,12,0,1,1137.691,2.884,4.139,959.650,0.489,1.078
1.301000,544192,1000.00,12,0,1,1137.763,1.195,4.134,961.331,1.271,1.093
1.302000,544193,1000.00,12,0,1,1139.733,0.898,4.098,962.869,2.917,1.163
1.303000,544194,1000.00,12,0,1,1138.556,-1.210,4.101,959.746,-0.063,1.160
1.304000,544195,1000.00,12,0,1,1139.300,-3.079,4.123,960.923,-0.200,1.142
1.305000,544196,1000.00,12,0,1,1142.471,-0.929,3.999,961.403,1.219,1.154
1.306000,544197,1000.00,12,0,1,1145.113,0.248,3.982,960.491,-0.350,1.155
1.307000,544198,1000.00,12,0,1,1145.906,0.355,3.968,960.298,-0.331,1.145
1.308000,544199,1000.00,12,0,1,1146.939,0.483,3.968,960.178,-0.480,1.122
1.309000,544200,1000.00,12,0,1,1147.588,1.219,3.936,958.545,-1.613,1.131
1.310000,544201,1000.00,12,0,1,1147.876,1.656,3.920,961.043,0.045,1.102
1.311000,544202,1000.00,12,0,1,1143.984,-0.569,3.885,962.124,1.941,1.134
1.312000,544203,1000.00,12,0,1,1140.718,-2.948,3.772,961.259,0.522,1.128
1.313000,544204,1000.00,12,0,1,1138.892,-2.532,3.628,960.491,-0.212,1.107
1.314000,544205,1000.00,12,0,1,1136.946,-2.472,3.569,960.707,-0.225,1.098
1.315000,544206,1000.00,12,0,1,1135.793,-1.888,3.579,958.329,-1.880,1.115
1.316000,544207,1000.00,12,0,1,1137.187,0.541,3.577,958.905,-1.992,1.132
1.317000,544208,1000.00,12,0,1,1138.412,2.522,3.591,959.121,-0.813,1.138
1.318000,544209,1000.00,12,0,1,1136.538,1.054,3.574,960.178,-0.355,1.135
1.319000,544210,1000.00,12,0,1,1136.658,-0.010,3.447,961.764,1.372,1.123
1.320000,544211,1000.00,12,0,1,1138.003,0.823,3.237,960.539,0.335,1.114
1.321000,544212,1000.00,12,0,1,1138.364,-0.225,3.177,957.560,-2.570,1.153
1.322000,544213,1000.00,12,0,1,1138.724,-1.288,3.176,957.896,-2.359,1.199
1.323000,544214,1000.00,12,0,1,1141.486,-0.615,3.165,958.521,-1.071,1.201
1.324000,544215,1000.00,12,0,1,1145.017,1.253,3.166,958.425,-0.974,1.200
1.325000,544216,1000.00,12,0,1,1160.319,11.191,3.540,960.058,0.433,1.189
1.326000,544217,1000.00,12,0,1,1144.897,1.063,3.542,960.539,1.378,1.204
1.327000,544218,1000.00,12,0,1,1126.185,-22.058,4.637,960.923,1.186,1.203
1.328000,544219,1000.00,12,0,1,1127.674,-17.454,5.118,961.523,1.851,1.227
1.329000,544220,1000.00,12,0,1,1125.513,-14.637,5.490,962.004,1.862,1.241
1.330000,544221,1000.00,12,0,1,1126.137,-12.181,5.732,961.499,1.394,1.227
1.331000,544222,1000.00,12,0,1,1132.262,-2.193,5.726,961.307,0.739,1.222
1.332000,544223,1000.00,12,0,1,1133.992,2.029,5.733,961.019,0.535,1.201
1.333000,544224,1000.00,12,0,1,1134.520,4.385,5.751,959.962,-0.503,1.181
1.334000,544225,1000.00,12,0,1,1139.373,9.163,5.893,959.722,-0.842,1.180
1.335000,544226,1000.00,12,0,1,1157.004,23.817,6.723,960.491,-0.017,1.180
1.336000,544227,1000.00,12,0,1,1162.745,29.413,7.906,959.121,-0.896,1.184
1.337000,544228,1000.00,12,0,1,1150.782,14.504,8.162,957.752,-2.296,1.227
1.338000,544229,1000.00,12,0,1,1138.220,-0.311,8.162,960.659,0.162,1.227
1.339000,544230,1000.00,12,0,1,1139.709,-1.580,8.156,958.881,-0.188,1.216
1.340000,544231,1000.00,12,0,1,1142.976,1.787,8.144,960.370,-0.430,1.204
1.341000,544232,1000.00,12,0,1,1146.459,2.497,8.149,960.755,1.337,1.219
1.342000,544233,1000.00,12,0,1,1150.086,4.203,8.165,959.530,-0.739,1.178
1.343000,544234,1000.00,12,0,1,1148.020,0.615,8.153,960.563,0.273,1.176
1.344000,544235,1000.00,12,0,1,1147.419,-2.846,8.160,960.491,0.439,1.178
1.345000,544236,1000.00,12,0,1,1145.906,-4.372,8.180,961.331,0.593,1.179
1.346000,544237,1000.00,12,0,1,1147.780,-4.648,8.161,962.436,1.860,1.208
1.347000,544238,1000.00,12,0,1,1146.435,-4.396,8.152,961.596,0.757,1.210
1.348000,544239,1000.00,12,0,1,1148.428,-4.146,8.095,961.091,0.072,1.202
1.349000,544240,1000.00,12,0,1,1143.456,-5.520,8.056,961.379,0.202,1.193
1.350000,544241,1000.00,12,0,1,1141.654,-8.238,8.130,960.419,-0.389,1.192
1.351000,544242,1000.00,12,0,1,1146.747,-1.067,8.129,960.034,-1.008,1.187
1.352000,544243,1000.00,12,0,1,1144.177,-0.903,8.129,960.226,-0.464,1.115
1.353000,544244,1000.00,12,0,1,1139.565,-4.715,8.155,960.250,-0.394,1.116
1.354000,544245,1000.00,12,0,1,1134.280,-6.699,8.198,959.193,-1.014,1.125
1.355000,544246,1000.00,12,0,1,1131.686,-8.032,8.276,958.257,-1.836,1.142
1.356000,544247,1000.00,12,0,1,1134.713,-2.976,8.286,957.560,-2.032,1.176
1.357000,544248,1000.00,12,0,1,1136.034,-0.167,8.286,958.809,-0.878,1.182
1.358000,544249,1000.00,12,0,1,1137.595,1.277,8.288,959.410,0.256,1.180
1.359000,544250,1000.00,12,0,1,1138.844,2.466,8.293,960.755,1.046,1.168
1.360000,544251,1000.00,12,0,1,1143.288,4.829,8.318,960.058,0.854,1.174
1.361000,544252,1000.00,12,0,1,1145.450,6.183,8.363,959.193,-0.546,1.144
1.362000,544253,1000.00,12,0,1,1145.330,3.604,8.369,958.257,-1.071,1.151
1.363000,544254,1000.00,12,0,1,1145.402,1.972,8.366,960.202,0.183,1.151
1.364000,544255,1000.00,12,0,1,1150.734,4.282,8.380,960.779,1.373,1.167
1.365000,544256,1000.00,12,0,1,1153.256,5.950,8.418,960.346,0.432,1.138
1.366000,544257,1000.00,12,0,1,1138.075,-7.465,8.484,960.755,0.723,1.107
1.367000,544258,1000.00,12,0,1,1134.112,-14.211,8.711,960.130,0.306,1.102
1.368000,544259,1000.00,12,0,1,1139.949,-5.116,8.740,960.106,-0.094,1.101
1.369000,544260,1000.00,12,0,1,1140.477,-3.040,8.751,961.884,1.591,1.107
1.370000,544261,1000.00,12,0,1,1138.868,-2.913,8.759,960.899,0.979,1.115
1.371000,544262,1000.00,12,0,1,1146.146,3.844,8.776,960.298,-0.108,1.054
1.372000,544263,1000.00,12,0,1,1144.057,5.459,8.808,960.803,0.544,1.003
1.373000,544264,1000.00,12,0,1,1136.298,-2.241,8.813,960.395,0.264,0.992
1.374000,544265,1000.00,12,0,1,1139.877,1.212,8.813,960.034,-0.196,0.983
1.375000,544266,1000.00,12,0,1,1142.615,6.067,8.712,960.082,-0.035,0.981
1.376000,544267,1000.00,12,0,1,1141.246,4.064,8.730,961.331,0.850,0.969
1.377000,544268,1000.00,12,0,1,1136.130,0.156,8.154,961.259,1.063,0.966
1.378000,544269,1000.00,12,0,1,1129.908,-6.138,7.820,960.419,-0.163,0.930
1.379000,544270,1000.00,12,0,1,1133.920,-3.071,7.553,961.379,0.455,0.894
1.380000,544271,1000.00,12,0,1,1148.909,9.717,7.481,961.187,0.448,0.874
1.381000,544272,1000.00,12,0,1,1151.047,12.098,7.668,960.539,-0.576,0.872
1.382000,544273,1000.00,12,0,1,1150.830,6.709,7.721,961.187,-0.111,0.869
1.383000,544274,1000.00,12,0,1,1154.530,8.101,7.781,960.491,-0.552,0.869
1.384000,544275,1000.00,12,0,1,1155.202,6.108,7.721,961.764,-0.025,0.861
1.385000,544276,1000.00,12,0,1,1154.770,3.162,6.962,961.692,0.506,0.864
1.386000,544277,1000.00,12,0,1,1150.854,-1.254,5.585,960.611,-0.982,0.866
1.387000,544278,1000.00,12,0,1,1152.488,-2.053,5.203,961.668,-0.084,0.803
1.388000,544279,1000.00,12,0,1,1152.968,-0.082,5.203,960.539,-0.541,0.806
1.389000,544280,1000.00,12,0,1,1152.392,-1.572,5.203,958.617,-2.516,0.881
1.390000,544281,1000.00,12,0,1,1150.902,-1.497,5.201,958.641,-2.094,0.927
1.391000,544282,1000.00,12,0,1,1149.413,-2.544,5.202,959.722,-0.748,0.914
1.392000,544283,1000.00,12,0,1,1148.140,-2.214,5.177,960.010,-0.007,0.908
1.393000,544284,1000.00,12,0,1,1147.155,-2.061,5.185,957.896,-1.540,0.933
1.394000,544285,1000.00,12,0,1,1146.170,-1.786,5.175,956.719,-2.606,1.001
1.395000,544286,1000.00,12,0,1,1145.882,-1.223,5.141,957.800,-1.140,1.011
1.396000,544287,1000.00,12,0,1,1148.500,1.179,5.101,960.010,1.100,0.988
1.397000,544288,1000.00,12,0,1,1146.819,0.640,5.064,960.731,2.004,1.022
1.398000,544289,1000.00,12,0,1,1143.648,-3.469,5.054,960.346,1.288,1.038
1.399000,544290,1000.00,12,0,1,1138.484,-7.438,5.103,958.569,-0.285,1.039
1.400000,544291,1000.00,12,0,1,1138.676,-8.516,5.112,958.137,-1.090,1.049
1.401000,544292,1000.00,12,0,1,1139.709,-6.159,5.184,959.674,0.440,1.041
1.402000,544293,1000.00,12,0,1,1143.936,-3.605,5.207,958.977,0.184,1.039
1.403000,544294,1000.00,12,0,1,1145.810,-1.108,5.167,959.193,-0.210,1.038
1.404000,544295,1000.00,12,0,1,1148.717,-0.297,5.079,958.329,-0.332,1.029
1.405000,544296,1000.00,12,0,1,1155.034,4.704,4.995,957.824,-1.217,1.011
1.406000,544297,1000.00,12,0,1,1153.425,3.394,5.000,959.001,0.208,0.969
1.407000,544298,1000.00,12,0,1,1151.095,-0.820,5.002,959.578,0.910,0.970
1.408000,544299,1000.00,12,0,1,1152.776,1.148,5.001,960.803,1.754,1.001
1.409000,544300,1000.00,12,0,1,1151.647,0.700,4.990,959.314,0.907,0.998
1.410000,544301,1000.00,12,0,1,1161.664,8.163,5.076,959.410,0.124,0.991
1.411000,544302,1000.00,12,0,1,1163.585,12.626,5.309,958.809,0.427,0.990
1.412000,544303,1000.00,12,0,1,1155.803,3.635,5.310,959.242,0.146,0.978
1.413000,544304,1000.00,12,0,1,1153.329,0.980,5.304,958.449,0.228,0.978
1.414000,544305,1000.00,12,0,1,1153.785,2.171,5.278,959.746,0.601,0.963
1.415000,544306,1000.00,12,0,1,1153.136,1.833,5.217,957.224,-0.463,0.963
1.416000,544307,1000.00,12,0,1,1149.125,-1.119,5.112,959.049,-0.348,0.959
1.417000,544308,1000.00,12,0,1,1142.015,-7.403,4.815,959.266,1.385,0.978
1.418000,544309,1000.00,12,0,1,1140.213,-8.940,4.926,958.905,-0.066,0.978
1.419000,544310,1000.00,12,0,1,1138.484,-8.800,5.062,959.650,0.869,0.959
1.420000,544311,1000.00,12,0,1,1138.003,-9.132,5.208,960.899,1.622,0.976
1.421000,544312,1000.00,12,0,1,1139.445,-7.004,5.274,961.836,2.126,1.022
1.422000,544313,1000.00,12,0,1,1145.642,-2.021,5.225,962.364,2.254,1.067
1.423000,544314,1000.00,12,0,1,1153.088,4.445,5.253,960.899,0.516,1.069
1.424000,544315,1000.00,12,0,1,1154.578,4.800,5.294,956.863,-2.984,1.149
1.425000,544316,1000.00,12,0,1,1157.580,4.675,5.265,958.281,-2.634,1.208
1.426000,544317,1000.00,12,0,1,1162.649,8.063,5.357,957.776,-1.231,1.215
1.427000,544318,1000.00,12,0,1,1160.511,5.104,5.405,958.137,-1.889,1.234
1.428000,544319,1000.00,12,0,1,1148.837,-5.746,5.396,959.626,0.541,1.237
1.429000,544320,1000.00,12,0,1,1149.966,-6.590,5.459,960.130,0.750,1.240
1.430000,544321,1000.00,12,0,1,1151.527,-1.096,5.285,960.803,1.381,1.253
1.431000,544322,1000.00,12,0,1,1154.794,1.196,5.004,959.842,0.664,1.254
1.432000,544323,1000.00,12,0,1,1143.336,-4.246,4.949,960.322,0.458,1.256
1.433000,544324,1000.00,12,0,1,1132.959,-14.591,5.239,959.722,0.547,1.256
1.434000,544325,1000.00,12,0,1,1131.518,-11.413,5.413,959.049,-0.672,1.259
1.435000,544326,1000.00,12,0,1,1132.479,-7.408,5.495,958.401,-0.763,1.262
1.436000,544327,1000.00,12,0,1,1138.412,-0.181,5.493,959.242,-0.415,1.255
1.437000,544328,1000.00,12,0,1,1139.925,3.942,5.513,961.860,2.068,1.289
1.438000,544329,1000.00,12,0,1,1137.667,0.989,5.515,961.692,1.986,1.317
1.439000,544330,1000.00,12,0,1,1139.997,2.840,5.525,962.580,1.713,1.291
1.440000,544331,1000.00,12,0,1,1149.605,9.536,5.683,962.268,1.672,1.279
1.441000,544332,1000.00,12,0,1,1150.446,10.398,5.859,960.995,-0.310,1.275
1.442000,544333,1000.00,12,0,1,1149.221,4.775,5.890,961.403,-0.129,1.275
1.443000,544334,1000.00,12,0,1,1148.909,3.288,5.901,962.004,0.337,1.257
1.444000,544335,1000.00,12,0,1,1147.780,-0.010,5.896,959.530,-1.625,1.224
1.445000,544336,1000.00,12,0,1,1156.331,5.152,5.938,958.737,-2.822,1.277
1.446000,544337,1000.00,12,0,1,1159.262,8.441,6.054,957.176,-3.177,1.345
1.447000,544338,1000.00,12,0,1,1158.277,4.437,6.086,961.211,-0.355,1.316
1.448000,544339,1000.00,12,0,1,1158.733,4.459,6.099,960.707,1.165,1.313
1.449000,544340,1000.00,12,0,1,1153.256,-0.357,6.008,960.370,-0.655,1.316
1.450000,544341,1000.00,12,0,1,1150.302,-3.464,5.906,961.091,0.878,1.313
1.451000,544342,1000.00,12,0,1,1150.542,-1.389,5.845,960.875,0.347,1.312
1.452000,544343,1000.00,12,0,1,1146.507,-3.062,5.839,959.842,-0.460,1.314
1.453000,544344,1000.00,12,0,1,1142.952,-5.011,5.880,959.650,-0.705,1.317
1.454000,544345,1000.00,12,0,1,1140.405,-4.964,5.921,958.425,-1.484,1.333
1.455000,544346,1000.00,12,0,1,1137.331,-5.827,5.941,958.161,-1.704,1.343
1.456000,544347,1000.00,12,0,1,1136.682,-4.966,5.963,960.010,0.017,1.343
1.457000,544348,1000.00,12,0,1,1138.051,-2.361,5.971,961.067,1.396,1.351
1.458000,544349,1000.00,12,0,1,1139.276,-0.713,5.970,961.091,0.961,1.335
1.459000,544350,1000.00,12,0,1,1139.493,-0.602,5.970,960.202,0.252,1.330
1.460000,544351,1000.00,12,0,1,1140.045,-0.951,5.859,962.004,1.033,1.338
1.461000,544352,1000.00,12,0,1,1140.622,-1.206,5.583,961.692,1.450,1.352
1.462000,544353,1000.00,12,0,1,1147.155,2.516,5.570,958.425,-2.026,1.382
1.463000,544354,1000.00,12,0,1,1148.236,3.596,5.592,960.298,-0.865,1.387
1.464000,544355,1000.00,12,0,1,1147.492,-0.058,5.583,960.250,0.286,1.385
1.465000,544356,1000.00,12,0,1,1147.612,-0.456,5.578,958.737,-1.667,1.403
1.466000,544357,1000.00,12,0,1,1146.579,-2.113,5.583,959.554,-0.613,1.405
1.467000,544358,1000.00,12,0,1,1144.369,-3.810,5.511,959.169,-0.486,1.393
1.468000,544359,1000.00,12,0,1,1145.978,-2.123,5.372,959.506,-0.371,1.394
1.469000,544360,1000.00,12,0,1,1144.777,-1.046,5.228,958.233,-0.757,1.393
1.470000,544361,1000.00,12,0,1,1146.435,0.681,5.067,957.944,-1.399,1.388
1.471000,544362,1000.00,12,0,1,1146.050,2.932,4.987,959.073,0.209,1.355
1.472000,544363,1000.00,12,0,1,1139.252,-1.694,4.984,956.719,-1.341,1.331
1.473000,544364,1000.00,12,0,1,1138.364,-1.957,4.952,958.089,-0.850,1.334
1.474000,544365,1000.00,12,0,1,1140.814,2.924,4.923,959.890,1.817,1.292
1.475000,544366,1000.00,12,0,1,1144.057,6.120,4.954,960.034,1.431,1.253
1.476000,544367,1000.00,12,0,1,1139.445,3.743,4.850,960.130,1.450,1.258
1.477000,544368,1000.00,12,0,1,1140.117,1.770,4.803,959.458,0.629,1.232
1.478000,544369,1000.00,12,0,1,1149.725,10.315,4.953,959.842,0.553,1.232
1.479000,544370,1000.00,12,0,1,1153.232,12.244,5.164,959.914,0.780,1.233
1.480000,544371,1000.00,12,0,1,1145.089,2.631,5.175,959.049,-0.266,1.218
1.481000,544372,1000.00,12,0,1,1141.486,-4.277,5.207,960.443,0.668,1.218
1.482000,544373,1000.00,12,0,1,1144.153,-2.747,5.187,959.650,0.474,1.218
1.483000,544374,1000.00,12,0,1,1148.164,-0.399,4.759,960.419,0.308,1.216
1.484000,544375,1000.00,12,0,1,1155.899,4.529,4.523,959.722,0.462,1.214
1.485000,544376,1000.00,12,0,1,1164.931,10.974,4.666,959.842,-0.210,1.210
1.486000,544377,1000.00,12,0,1,1135.433,-12.246,4.977,961.139,1.333,1.223
1.487000,544378,1000.00,12,0,1,1127.194,-27.130,6.259,959.602,0.127,1.188
1.488000,544379,1000.00,12,0,1,1139.949,-7.780,6.354,960.106,-0.119,1.154
1.489000,544380,1000.00,12,0,1,1150.278,2.626,6.352,959.482,0.188,1.129
1.490000,544381,1000.00,12,0,1,1153.497,7.999,6.309,959.722,-0.370,1.105
1.491000,544382,1000.00,12,0,1,1148.765,4.162,6.164,960.370,0.819,1.110
1.492000,544383,1000.00,12,0,1,1137.355,-5.146,6.170,959.097,-0.480,1.112
1.493000,544384,1000.00,12,0,1,1142.279,-1.288,6.155,959.001,-0.766,1.116
1.494000,544385,1000.00,12,0,1,1139.733,1.385,6.158,958.761,-0.618,1.096
1.495000,544386,1000.00,12,0,1,1123.087,-12.613,6.369,962.172,1.663,1.047
1.496000,544387,1000.00,12,0,1,1122.846,-13.218,6.530,962.004,2.469,1.008
1.497000,544388,1000.00,12,0,1,1126.834,-4.359,6.529,959.818,-0.716,1.012
1.498000,544389,1000.00,12,0,1,1136.010,2.421,6.507,957.968,-2.055,1.040
1.499000,544390,1000.00,12,0,1,1147.564,14.077,6.805,960.563,-0.453,1.038
1.500000,544391,1000.00,12,0,1,1157.508,19.154,7.308,961.596,1.465,1.051
1.501000,544392,1000.00,12,0,1,1158.877,17.969,7.734,960.443,-0.201,1.050
1.502000,544393,1000.00,12,0,1,1150.975,6.232,7.772,960.563,-0.257,1.049
1.503000,544394,1000.00,12,0,1,1148.188,-0.355,7.740,961.139,0.369,1.046
1.504000,544395,1000.00,12,0,1,1146.891,-2.222,7.715,961.067,0.184,1.025
1.505000,544396,1000.00,12,0,1,1142.495,-7.184,7.738,961.019,0.167,0.996
1.506000,544397,1000.00,12,0,1,1141.318,-8.227,7.793,958.425,-1.843,1.030
1.507000,544398,1000.00,12,0,1,1142.399,-6.059,7.833,958.617,-2.062,1.052
1.508000,544399,1000.00,12,0,1,1149.101,0.504,7.833,959.650,-0.289,1.044
1.509000,544400,1000.00,12,0,1,1158.349,9.841,7.955,959.217,-0.524,1.046
1.510000,544401,1000.00,12,0,1,1159.262,11.304,8.113,960.659,0.552,1.039
1.511000,544402,1000.00,12,0,1,1158.661,9.002,8.210,961.860,2.009,1.057
1.512000,544403,1000.00,12,0,1,1161.616,11.098,8.351,961.163,1.053,1.028
1.513000,544404,1000.00,12,0,1,1161.375,10.411,8.465,959.962,-0.174,1.021
1.514000,544405,1000.00,12,0,1,1152.512,2.113,8.470,959.193,-1.043,1.031
1.515000,544406,1000.00,12,0,1,1147.011,-4.448,8.493,959.482,-0.740,1.009
1.516000,544407,1000.00,12,0,1,1148.428,-2.652,8.496,959.986,-0.189,1.006
1.517000,544408,1000.00,12,0,1,1148.957,-1.727,8.483,960.298,0.072,1.004
1.518000,544409,1000.00,12,0,1,1146.098,-4.580,8.502,960.755,0.363,1.003
1.519000,544410,1000.00,12,0,1,1143.864,-7.260,8.562,962.004,1.244,1.013
1.520000,544411,1000.00,12,0,1,1147.492,-4.982,8.591,959.650,-0.455,0.996
1.521000,544412,1000.00,12,0,1,1146.290,-5.222,8.613,961.812,0.144,0.995
1.522000,544413,1000.00,12,0,1,1147.804,-6.301,8.655,962.004,1.637,1.004
1.523000,544414,1000.00,12,0,1,1147.684,-5.376,8.684,960.370,-0.836,1.004
1.524000,544415,1000.00,12,0,1,1147.924,-6.772,8.727,958.016,-2.307,1.024
1.525000,544416,1000.00,12,0,1,1148.116,-5.753,8.722,959.962,-1.180,1.018
1.526000,544417,1000.00,12,0,1,1153.785,-1.693,8.709,959.674,-0.016,0.997
1.527000,544418,1000.00,12,0,1,1156.499,2.309,8.712,958.905,-1.289,1.009
1.528000,544419,1000.00,12,0,1,1154.722,0.258,8.589,959.938,0.041,1.006
1.529000,544420,1000.00,12,0,1,1149.894,-3.141,8.424,960.058,0.495,1.003
1.530000,544421,1000.00,12,0,1,1139.300,-10.505,8.546,958.809,-0.683,1.007
1.531000,544422,1000.00,12,0,1,1140.718,-8.960,8.618,958.689,-0.704,1.007
1.532000,544423,1000.00,12,0,1,1144.681,-0.305,8.610,960.298,0.652,1.009
1.533000,544424,1000.00,12,0,1,1141.679,-1.403,8.612,959.698,0.693,1.013
1.534000,544425,1000.00,12,0,1,1136.034,-4.225,8.609,960.971,0.844,1.018
1.535000,544426,1000.00,12,0,1,1133.199,-5.448,8.503,959.290,0.339,1.019
1.536000,544427,1000.00,12,0,1,1136.010,-1.256,8.326,958.185,-1.782,1.032
1.537000,544428,1000.00,12,0,1,1133.199,-1.317,7.392,959.001,-0.417,1.034
1.538000,544429,1000.00,12,0,1,1137.211,0.544,7.310,960.779,0.883,1.041
1.539000,544430,1000.00,12,0,1,1136.058,2.152,7.307,959.842,0.535,1.043
1.540000,544431,1000.00,12,0,1,1141.871,3.369,7.234,959.746,-0.281,1.043
1.541000,544432,1000.00,12,0,1,1150.662,11.882,7.404,959.890,0.232,1.037
1.542000,544433,1000.00,12,0,1,1137.811,-0.128,7.368,959.121,-0.502,1.037
1.543000,544434,1000.00,12,0,1,1136.346,-6.921,7.430,960.731,0.592,1.035
1.544000,544435,1000.00,12,0,1,1145.162,3.095,7.441,963.349,3.197,1.126
1.545000,544436,1000.00,12,0,1,1166.035,17.593,7.640,961.692,1.711,1.127
1.546000,544437,1000.00,12,0,1,1173.434,25.677,8.250,961.235,0.408,1.074
1.547000,544438,1000.00,12,0,1,1159.021,8.040,8.305,963.493,2.360,1.120
1.548000,544439,1000.00,12,0,1,1154.409,-0.118,8.298,960.250,0.084,1.081
1.549000,544440,1000.00,12,0,1,1152.944,0.336,8.056,959.722,-1.779,1.108
1.550000,544441,1000.00,12,0,1,1152.128,-1.171,7.589,960.707,0.182,1.089
1.551000,544442,1000.00,12,0,1,1149.485,-0.997,7.152,960.563,-0.311,1.090
1.552000,544443,1000.00,12,0,1,1145.089,-4.432,7.125,960.443,-0.223,1.090
1.553000,544444,1000.00,12,0,1,1142.807,-4.401,7.152,959.602,-0.941,1.096
1.554000,544445,1000.00,12,0,1,1142.952,-2.834,7.156,958.089,-2.200,1.139
1.555000,544446,1000.00,12,0,1,1138.484,-4.364,7.111,960.202,-0.585,1.142
1.556000,544447,1000.00,12,0,1,1134.881,-7.258,7.090,960.370,0.402,1.113
1.557000,544448,1000.00,12,0,1,1137.595,-3.794,7.058,959.169,-1.166,1.087
1.558000,544449,1000.00,12,0,1,1142.015,0.871,7.059,960.154,-0.372,1.088
1.559000,544450,1000.00,12,0,1,1144.345,2.356,6.928,961.355,0.899,1.093
1.560000,544451,1000.00,12,0,1,1149.413,4.864,6.776,962.532,1.550,1.112
1.561000,544452,1000.00,12,0,1,1155.202,8.097,6.753,960.923,0.401,1.076
1.562000,544453,1000.00,12,0,1,1158.901,8.536,6.678,960.491,-0.877,1.073
1.563000,544454,1000.00,12,0,1,1157.676,4.744,6.549,958.497,-1.732,1.100
1.564000,544455,1000.00,12,0,1,1157.388,1.223,6.544,960.803,-0.700,1.095
1.565000,544456,1000.00,12,0,1,1154.049,-2.530,6.524,961.812,1.645,1.114
1.566000,544457,1000.00,12,0,1,1148.572,-8.444,6.621,958.809,-1.443,1.133
1.567000,544458,1000.00,12,0,1,1146.242,-9.963,6.765,957.416,-2.666,1.194
1.568000,544459,1000.00,12,0,1,1143.720,-9.909,6.878,959.674,-0.347,1.194
1.569000,544460,1000.00,12,0,1,1142.880,-8.821,6.915,958.569,-0.337,1.182
1.570000,544461,1000.00,12,0,1,1142.639,-5.761,6.927,959.722,-0.050,1.180
1.571000,544462,1000.00,12,0,1,1139.805,-5.527,6.932,959.578,0.844,1.186
1.572000,544463,1000.00,12,0,1,1146.723,1.689,6.878,960.082,0.533,1.165
1.573000,544464,1000.00,12,0,1,1154.866,11.842,7.038,959.770,0.789,1.165
1.574000,544465,1000.00,12,0,1,1155.346,12.172,7.182,958.809,-0.439,1.120
1.575000,544466,1000.00,12,0,1,1150.854,7.349,7.211,959.338,-0.098,1.107
1.576000,544467,1000.00,12,0,1,1141.222,-1.616,7.211,960.322,0.945,1.115
1.577000,544468,1000.00,12,0,1,1137.163,-6.606,7.264,960.731,1.014,1.110
1.578000,544469,1000.00,12,0,1,1131.230,-9.677,7.392,960.491,0.770,1.115
1.579000,544470,1000.00,12,0,1,1130.365,-11.511,7.556,961.067,0.723,1.117
1.580000,544471,1000.00,12,0,1,1140.309,-1.758,7.412,961.596,1.299,1.128
1.581000,544472,1000.00,12,0,1,1146.723,4.452,7.330,958.449,-1.432,1.142
1.582000,544473,1000.00,12,0,1,1140.213,-2.083,7.336,959.890,-1.071,1.148
1.583000,544474,1000.00,12,0,1,1138.436,-6.440,7.390,961.259,1.274,1.158
1.584000,544475,1000.00,12,0,1,1141.558,-2.949,7.377,960.659,0.257,1.153
1.585000,544476,1000.00,12,0,1,1146.483,0.853,7.338,959.266,-0.714,1.156
1.586000,544477,1000.00,12,0,1,1151.023,4.994,7.370,959.001,-1.119,1.139
1.587000,544478,1000.00,12,0,1,1154.289,7.269,7.439,959.722,-0.121,1.138
1.588000,544479,1000.00,12,0,1,1153.617,6.475,7.494,958.785,-0.515,1.133
1.589000,544480,1000.00,12,0,1,1153.016,5.254,7.525,958.329,-1.117,1.142
1.590000,544481,1000.00,12,0,1,1151.527,4.493,7.537,960.395,0.928,1.149
1.591000,544482,1000.00,12,0,1,1151.191,4.335,7.373,959.506,0.661,1.152
1.592000,544483,1000.00,12,0,1,1147.419,2.448,7.381,958.401,-0.857,1.156
1.593000,544484,1000.00,12,0,1,1138.604,-4.276,7.341,957.824,-1.020,1.162
1.594000,544485,1000.00,12,0,1,1135.145,-6.674,7.388,958.137,-0.836,1.077
1.595000,544486,1000.00,12,0,1,1133.007,-5.503,7.000,958.016,-0.562,1.053
1.596000,544487,1000.00,12,0,1,1136.346,-2.285,5.993,959.938,0.736,1.056
1.597000,544488,1000.00,12,0,1,1139.733,2.821,5.898,961.211,2.201,1.049
1.598000,544489,1000.00,12,0,1,1141.558,3.330,5.916,959.554,0.448,1.051
1.599000,544490,1000.00,12,0,1,1138.628,0.661,5.917,961.812,1.418,1.040
1.600000,544491,1000.00,12,0,1,1136.754,-3.202,5.932,961.523,2.037,1.079
1.601000,544492,1000.00,12,0,1,1141.727,0.011,5.930,961.620,0.702,1.082
1.602000,544493,1000.00,12,0,1,1149.341,5.602,5.950,961.283,1.005,1.091
1.603000,544494,1000.00,12,0,1,1160.415,12.417,6.172,960.947,-0.053,1.083
1.604000,544495,1000.00,12,0,1,1153.713,6.499,6.228,960.563,-0.055,1.038
1.605000,544496,1000.00,12,0,1,1155.611,1.193,6.199,958.857,-1.514,1.056
1.606000,544497,1000.00,12,0,1,1165.147,10.657,6.297,959.410,-1.206,1.068
1.607000,544498,1000.00,12,0,1,1161.496,5.967,6.330,960.419,0.397,1.057
1.608000,544499,1000.00,12,0,1,1156.379,-0.798,6.330,960.226,0.149,1.056
1.609000,544500,1000.00,12,0,1,1150.878,-4.529,6.354,959.314,-0.415,1.050
1.610000,544501,1000.00,12,0,1,1145.162,-8.933,6.441,958.977,-0.865,1.034
1.611000,544502,1000.00,12,0,1,1146.339,-5.776,6.391,958.761,-0.688,1.037
1.612000,544503,1000.00,12,0,1,1150.158,0.112,6.276,958.016,-1.268,1.045
1.613000,544504,1000.00,12,0,1,1148.452,0.999,6.242,960.683,0.762,1.022
1.614000,544505,1000.00,12,0,1,1143.048,-3.030,6.254,960.899,1.694,1.045
1.615000,544506,1000.00,12,0,1,1141.150,-3.822,6.267,959.290,-0.536,1.021
1.616000,544507,1000.00,12,0,1,1141.727,-2.102,6.160,959.578,-0.412,1.002
1.617000,544508,1000.00,12,0,1,1141.895,-1.385,6.000,959.290,-0.504,0.932
1.618000,544509,1000.00,12,0,1,1143.768,-0.241,5.834,959.938,-0.317,0.931
1.619000,544510,1000.00,12,0,1,1151.695,5.318,5.748,959.866,0.006,0.930
1.620000,544511,1000.00,12,0,1,1158.469,10.006,5.863,958.617,-1.321,0.949
1.621000,544512,1000.00,12,0,1,1152.920,3.013,5.827,958.857,-1.091,0.954
1.622000,544513,1000.00,12,0,1,1149.942,-3.980,5.849,959.722,-0.033,0.951
1.623000,544514,1000.00,12,0,1,1150.710,-3.901,5.631,960.106,0.438,0.946
1.624000,544515,1000.00,12,0,1,1146.363,-8.339,5.490,959.217,-0.148,0.944
1.625000,544516,1000.00,12,0,1,1143.840,-11.230,5.620,960.010,0.267,0.945
1.626000,544517,1000.00,12,0,1,1136.154,-15.307,6.018,958.881,0.034,0.936
1.627000,544518,1000.00,12,0,1,1134.160,-16.642,6.394,960.346,0.531,0.928
1.628000,544519,1000.00,12,0,1,1138.748,-8.253,6.354,960.010,1.317,0.940
1.629000,544520,1000.00,12,0,1,1139.901,-3.986,6.167,960.491,0.759,0.940
