# FW/GUI: v9.6.1-multi17-dual (PyQt5)
# StartTime: 2026-04-03 16:16:18
# Slot: 13
# DeviceID: 13
# Label: EMG13
# IP: 192.168.137.206
# TCP: 3333
# DeviceFW: EMG_FW_v9.6_MULTI17_DUALCH_RUNTIMECFG_CHEN
# IMU1_RefTime = format(imu_ms) = relative since power-on Time (IMU acquisition time)
IMU1_RefTime,ax_g,ay_g,az_g,gx_dps,gy_dps,gz_dps,mx_uT,my_uT,mz_uT,temp_C,qw,qx,qy,qz
'00:08:12.421,0.062012,0.028320,1.003906,0.243902,1.219512,-0.548781,-4.612500,19.943750,22.743750,28.351,0.58994662,-0.01006806,-0.02958390,-0.80683729
'00:08:12.426,0.062012,0.028320,1.003906,0.243902,1.219512,-0.548781,-4.612500,19.943750,22.743750,28.351,0.58993883,-0.01007424,-0.02957183,-0.80684335
'00:08:12.434,0.062500,0.029297,1.003418,0.243902,1.219512,-0.609756,-4.250000,19.475000,22.337500,28.382,0.58993544,-0.01009591,-0.02957462,-0.80684546
'00:08:12.444,0.062988,0.028320,1.002441,0.609756,1.585366,-0.548781,-4.250000,19.475000,22.337500,28.412,0.58993692,-0.01008578,-0.02958149,-0.80684425
'00:08:12.454,0.061523,0.027344,1.001465,0.731707,1.707317,-0.609756,-4.250000,19.343750,22.300001,28.397,0.58993250,-0.01005512,-0.02957592,-0.80684807
'00:08:12.464,0.060059,0.030762,1.000000,0.731707,1.768293,-0.670732,-4.250000,19.343750,22.300001,28.397,0.58992326,-0.00999656,-0.02958272,-0.80685530
'00:08:12.474,0.058594,0.031250,1.004395,0.548781,1.463415,-0.609756,-4.081250,19.175001,22.218750,28.367,0.58992589,-0.00996658,-0.02959706,-0.80685323
'00:08:12.484,0.061035,0.029785,1.005859,0.000000,0.975610,-0.548781,-4.081250,19.175001,22.218750,28.397,0.58993132,-0.01002114,-0.02959879,-0.80684851
'00:08:12.494,0.061035,0.027832,1.001465,0.121951,1.097561,-0.609756,-4.287500,19.512501,22.400000,28.397,0.58992516,-0.01006041,-0.02958264,-0.80685312
'00:08:12.504,0.059570,0.029785,1.000977,0.731707,1.707317,-0.609756,-4.287500,19.512501,22.400000,28.412,0.58992067,-0.01000729,-0.02958399,-0.80685701
'00:08:12.516,0.060059,0.030273,1.002441,0.914634,1.951220,-0.670732,-4.118750,19.293751,22.237501,28.382,0.58992030,-0.00992266,-0.02960285,-0.80685764
'00:08:12.524,0.058594,0.030273,1.004883,0.365854,1.341463,-0.548781,-4.118750,19.293751,22.237501,28.427,0.58992548,-0.00991691,-0.02960325,-0.80685391
'00:08:12.534,0.059082,0.029297,1.002930,-0.304878,0.609756,-0.487805,-3.981250,19.025000,22.168751,28.427,0.58993845,-0.01000976,-0.02959691,-0.80684351
'00:08:12.544,0.061523,0.028320,1.000977,-0.487805,0.487805,-0.548781,-3.981250,19.025000,22.168751,28.382,0.58994648,-0.01013885,-0.02958975,-0.80683629
'00:08:12.554,0.062500,0.026855,1.000488,-0.060976,0.792683,-0.548781,-4.162500,19.362501,22.306250,28.382,0.58994929,-0.01022682,-0.02958410,-0.80683333
'00:08:12.565,0.063477,0.028809,1.000488,0.548781,1.524390,-0.609756,-4.162500,19.362501,22.306250,28.397,0.58994957,-0.01022735,-0.02960180,-0.80683247
'00:08:12.574,0.061035,0.029785,1.001465,0.975610,2.012195,-0.670732,-4.250000,19.475000,22.443750,28.397,0.58994353,-0.01015583,-0.02961120,-0.80683745
'00:08:12.584,0.061035,0.029785,1.003418,0.914634,1.890244,-0.670732,-4.250000,19.475000,22.443750,28.397,0.58993661,-0.01008884,-0.02962275,-0.80684293
'00:08:12.594,0.060059,0.029785,1.002930,0.670732,1.707317,-0.609756,-3.956250,19.018751,22.118750,28.397,0.58994588,-0.01005619,-0.02963757,-0.80683601
'00:08:12.604,0.060059,0.029297,1.003906,0.365854,1.341463,-0.609756,-3.956250,19.018751,22.118750,28.412,0.58995407,-0.01006750,-0.02964597,-0.80682957
'00:08:12.614,0.059082,0.029297,1.001953,0.121951,0.975610,-0.548781,-4.325000,19.556250,22.406250,28.367,0.58994973,-0.01009425,-0.02963311,-0.80683288
'00:08:12.624,0.060059,0.029297,1.001953,0.060976,1.036585,-0.548781,-4.325000,19.556250,22.406250,28.397,0.58994543,-0.01012531,-0.02961737,-0.80683622
'00:08:12.634,0.060059,0.029785,1.002441,0.243902,1.158537,-0.548781,-4.000000,19.168751,22.225000,28.382,0.58995652,-0.01015181,-0.02962971,-0.80682732
'00:08:12.644,0.060547,0.029785,1.003906,0.304878,1.341463,-0.548781,-4.000000,19.168751,22.225000,28.397,0.58996800,-0.01016445,-0.02963813,-0.80681846
'00:08:12.654,0.061035,0.029297,1.004395,0.426829,1.463415,-0.609756,-4.231250,19.406250,22.393751,28.397,0.58996395,-0.01015474,-0.02963340,-0.80682172
'00:08:12.664,0.061035,0.029297,1.000977,0.670732,1.585366,-0.609756,-4.231250,19.406250,22.393751,28.412,0.58996043,-0.01012490,-0.02964123,-0.80682438
'00:08:12.674,0.060547,0.030762,1.001953,0.548781,1.585366,-0.609756,-4.412500,19.687500,22.550001,28.427,0.58994948,-0.01008429,-0.02963806,-0.80683301
'00:08:12.684,0.061035,0.031250,1.003418,0.243902,1.158537,-0.548781,-4.006250,19.050001,22.125000,28.397,0.58995790,-0.01010841,-0.02966065,-0.80682572
'00:08:12.694,0.062500,0.028320,1.004395,-0.243902,0.731707,-0.548781,-4.006250,19.050001,22.125000,28.427,0.58996528,-0.01020941,-0.02965807,-0.80681915
'00:08:12.704,0.062500,0.026855,1.001465,-0.121951,0.792683,-0.548781,-4.287500,19.475000,22.412500,28.397,0.58996119,-0.01029219,-0.02963849,-0.80682181
'00:08:12.714,0.063477,0.027344,1.001953,0.365854,1.341463,-0.548781,-4.287500,19.475000,22.412500,28.397,0.58995868,-0.01031344,-0.02963234,-0.80682360
'00:08:12.724,0.061035,0.028809,1.001953,0.975610,1.951220,-0.670732,-4.050000,19.112501,22.187500,28.397,0.58995927,-0.01024942,-0.02964812,-0.80682340
'00:08:12.734,0.060059,0.031738,1.002441,1.097561,2.073171,-0.670732,-4.050000,19.112501,22.187500,28.397,0.58995972,-0.01015194,-0.02967986,-0.80682313
'00:08:12.744,0.059082,0.032715,1.003418,0.731707,1.829268,-0.670732,-4.125000,19.306250,22.268751,28.427,0.58995749,-0.01007895,-0.02969684,-0.80682506
'00:08:12.754,0.058594,0.030762,1.002930,0.182927,1.219512,-0.548781,-4.125000,19.306250,22.268751,28.412,0.58996240,-0.01008472,-0.02969214,-0.80682156
'00:08:12.764,0.060059,0.029297,1.004395,-0.243902,0.670732,-0.548781,-4.225000,19.362501,22.400000,28.382,0.58995968,-0.01016068,-0.02967532,-0.80682323
'00:08:12.774,0.061523,0.028320,1.002930,-0.426829,0.487805,-0.548781,-4.225000,19.362501,22.400000,28.427,0.58995634,-0.01027132,-0.02965637,-0.80682496
'00:08:12.784,0.062500,0.028809,1.001465,-0.060976,0.853659,-0.487805,-4.056250,19.187500,22.081251,28.367,0.58996742,-0.01034813,-0.02966330,-0.80681562
'00:08:12.794,0.064453,0.028320,1.003418,0.426829,1.463415,-0.548781,-4.056250,19.187500,22.081251,28.382,0.58997602,-0.01036892,-0.02967768,-0.80680853
'00:08:12.804,0.063477,0.027832,1.003418,0.792683,1.890244,-0.609756,-4.300000,19.531250,22.393751,28.397,0.58997097,-0.01032523,-0.02967504,-0.80681288
'00:08:12.814,0.062012,0.028320,1.001465,0.853659,1.890244,-0.670732,-4.300000,19.531250,22.393751,28.397,0.58996174,-0.01026857,-0.02967430,-0.80682039
'00:08:12.826,0.058105,0.031738,1.000000,0.853659,1.890244,-0.670732,-4.350000,19.556250,22.481251,28.427,0.58994628,-0.01015219,-0.02967442,-0.80683316
'00:08:12.834,0.057617,0.032227,1.001465,0.670732,1.646341,-0.609756,-4.350000,19.556250,22.481251,28.397,0.58993892,-0.01009318,-0.02967457,-0.80683928
'00:08:12.844,0.057129,0.030273,1.006348,0.060976,1.036585,-0.548781,-4.056250,19.100000,22.156250,28.427,0.58994473,-0.01011221,-0.02966149,-0.80683527
'00:08:12.854,0.059570,0.027832,1.007324,-0.304878,0.548781,-0.487805,-4.056250,19.100000,22.156250,28.382,0.58995367,-0.01021026,-0.02964321,-0.80682817
'00:08:12.864,0.062988,0.028809,1.003418,0.000000,0.975610,-0.548781,-4.237500,19.293751,22.300001,28.382,0.58995004,-0.01026852,-0.02963695,-0.80683031
'00:08:12.874,0.063477,0.029297,0.998047,0.853659,1.890244,-0.609756,-4.237500,19.293751,22.300001,28.397,0.58994496,-0.01021946,-0.02965144,-0.80683412
'00:08:12.884,0.061523,0.028809,1.003418,0.853659,1.890244,-0.609756,-4.200000,19.306250,22.318750,28.382,0.58994287,-0.01016299,-0.02965473,-0.80683624
'00:08:12.894,0.060547,0.028320,1.002441,0.243902,1.219512,-0.609756,-4.200000,19.306250,22.318750,28.382,0.58993878,-0.01018257,-0.02964270,-0.80683943
'00:08:12.904,0.060547,0.029297,1.002441,-0.060976,0.792683,-0.548781,-4.000000,19.062500,22.093750,28.412,0.58994711,-0.01025320,-0.02964917,-0.80683221
'00:08:12.914,0.061035,0.031738,0.999023,0.243902,1.158537,-0.609756,-4.000000,19.062500,22.093750,28.397,0.58995149,-0.01027345,-0.02967725,-0.80682772
'00:08:12.924,0.059570,0.031250,1.002441,0.792683,1.829268,-0.609756,-4.056250,19.118750,22.162500,28.412,0.58995520,-0.01020740,-0.02969386,-0.80682523
'00:08:12.943,0.059570,0.028809,1.005859,0.853659,1.951220,-0.609756,-4.018750,19.068750,22.100000,28.397,0.58996786,-0.01008521,-0.02969331,-0.80681753
'00:08:12.946,0.059570,0.028809,1.004395,0.670732,1.707317,-0.609756,-4.018750,19.068750,22.100000,28.442,0.58996968,-0.01007458,-0.02969339,-0.80681632
'00:08:12.954,0.060059,0.029785,1.003418,0.487805,1.402439,-0.609756,-4.437500,19.793751,22.543751,28.336,0.58996102,-0.01005614,-0.02968750,-0.80682310
'00:08:12.964,0.061035,0.030762,1.001953,0.304878,1.219512,-0.548781,-4.437500,19.793751,22.543751,28.412,0.58995365,-0.01005766,-0.02968766,-0.80682847
'00:08:12.974,0.061035,0.032227,1.004883,0.060976,1.036585,-0.548781,-4.287500,19.487501,22.368750,28.427,0.58994988,-0.01008269,-0.02969357,-0.80683069
'00:08:12.984,0.062500,0.029297,1.003418,-0.182927,0.853659,-0.548781,-4.287500,19.487501,22.368750,28.427,0.58994599,-0.01015500,-0.02968077,-0.80683310
'00:08:12.994,0.062500,0.027832,1.001953,0.060976,1.036585,-0.609756,-4.231250,19.331251,22.343750,28.427,0.58993954,-0.01020936,-0.02966875,-0.80683757
'00:08:13.004,0.062988,0.027344,1.000977,0.609756,1.585366,-0.670732,-4.231250,19.331251,22.343750,28.382,0.58993073,-0.01020125,-0.02966689,-0.80684419
'00:08:13.014,0.062500,0.028809,0.999023,1.097561,2.134146,-0.670732,-4.518750,19.868750,22.693750,28.382,0.58991377,-0.01010933,-0.02966695,-0.80685774
'00:08:13.024,0.060059,0.029297,1.002930,1.341463,2.439024,-0.670732,-4.518750,19.868750,22.693750,28.427,0.58989804,-0.00996746,-0.02965924,-0.80687129
'00:08:13.046,0.059082,0.030762,1.003418,0.853659,1.951220,-0.670732,-4.631250,19.993750,22.862501,28.412,0.58984813,-0.00975356,-0.02961886,-0.80691188
'00:08:13.051,0.059082,0.030762,1.003418,0.853659,1.951220,-0.670732,-4.356250,19.681250,22.481251,28.412,0.58984360,-0.00971287,-0.02961803,-0.80691571
'00:08:13.054,0.059082,0.030762,1.003418,0.853659,1.951220,-0.670732,-4.356250,19.681250,22.481251,28.412,0.58984092,-0.00968866,-0.02961756,-0.80691798
'00:08:13.064,0.057617,0.031250,1.003906,0.487805,1.463415,-0.670732,-4.356250,19.681250,22.481251,28.427,0.58983040,-0.00965046,-0.02961171,-0.80692634
'00:08:13.081,0.061035,0.029297,1.001953,0.548781,1.524390,-0.609756,-4.325000,19.668751,22.500000,28.427,0.58982382,-0.00962797,-0.02961444,-0.80693132
'00:08:13.086,0.058594,0.031250,1.003418,0.426829,1.341463,-0.548781,-4.325000,19.668751,22.500000,28.367,0.58982360,-0.00961932,-0.02961589,-0.80693153
'00:08:13.094,0.058594,0.031250,1.003418,0.426829,1.341463,-0.548781,-4.031250,19.162500,22.200001,28.367,0.58983222,-0.00961548,-0.02962940,-0.80692478
'00:08:13.104,0.062012,0.028809,1.001465,0.487805,1.463415,-0.609756,-4.031250,19.162500,22.200001,28.382,0.58983936,-0.00963149,-0.02964503,-0.80691879
'00:08:13.114,0.060059,0.031738,1.004395,0.304878,1.280488,-0.609756,-4.262500,19.575001,22.412500,28.382,0.58983674,-0.00963348,-0.02965419,-0.80692035
'00:08:13.124,0.061523,0.029785,1.000977,0.426829,1.402439,-0.548781,-4.262500,19.575001,22.412500,28.367,0.58983918,-0.00963912,-0.02966148,-0.80691823
'00:08:13.134,0.062012,0.033203,1.001953,0.304878,1.280488,-0.548781,-4.131250,19.368750,22.212500,28.351,0.58984590,-0.00965237,-0.02969596,-0.80691189
'00:08:13.144,0.063965,0.028809,1.004395,0.304878,1.402439,-0.548781,-4.131250,19.368750,22.212500,28.427,0.58985379,-0.00968779,-0.02970380,-0.80690541
'00:08:13.154,0.063965,0.024414,1.005371,0.426829,1.463415,-0.548781,-3.912500,19.050001,22.125000,28.397,0.58987202,-0.00974356,-0.02970039,-0.80689153
'00:08:13.164,0.057617,0.032227,1.002930,0.548781,1.524390,-0.670732,-3.912500,19.050001,22.125000,28.367,0.58988038,-0.00971277,-0.02972427,-0.80688492
'00:08:13.174,0.058105,0.031738,0.999023,0.365854,1.341463,-0.609756,-4.093750,19.293751,22.237501,28.412,0.58988417,-0.00970209,-0.02973483,-0.80688188
'00:08:13.184,0.059082,0.031738,1.001465,0.365854,1.341463,-0.609756,-4.093750,19.293751,22.237501,28.367,0.58988793,-0.00969704,-0.02974847,-0.80687870
'00:08:13.194,0.057617,0.030762,1.004883,0.426829,1.463415,-0.609756,-4.062500,19.312500,22.293751,28.351,0.58989463,-0.00967747,-0.02974830,-0.80687403
'00:08:13.204,0.057129,0.028320,1.003906,0.487805,1.463415,-0.609756,-4.062500,19.312500,22.293751,28.397,0.58990202,-0.00966355,-0.02973525,-0.80686928
'00:08:13.214,0.057617,0.030273,1.002441,0.426829,1.463415,-0.670732,-3.931250,19.081251,22.025000,28.412,0.58991031,-0.00965274,-0.02974019,-0.80686317
'00:08:13.224,0.058594,0.030762,1.002441,0.182927,1.097561,-0.548781,-4.312500,19.656250,22.481251,28.397,0.58990921,-0.00966718,-0.02973403,-0.80686402
'00:08:13.234,0.061523,0.031738,1.002930,0.731707,1.707317,-0.670732,-4.312500,19.656250,22.481251,28.457,0.58990121,-0.00962304,-0.02975404,-0.80686967
'00:08:13.244,0.063965,0.029785,1.000977,0.121951,1.097561,-0.548781,-4.037500,19.181250,22.193750,28.442,0.58991047,-0.00969031,-0.02977512,-0.80686131
'00:08:13.254,0.059082,0.030762,1.004883,0.243902,1.341463,-0.609756,-4.037500,19.181250,22.193750,28.397,0.58991611,-0.00969764,-0.02977407,-0.80685714
'00:08:13.264,0.063477,0.027344,1.002441,0.487805,1.524390,-0.670732,-4.268750,19.581251,22.468750,28.397,0.58990969,-0.00971174,-0.02976932,-0.80686184
'00:08:13.274,0.062988,0.027832,1.001465,0.304878,1.280488,-0.609756,-4.268750,19.581251,22.468750,28.427,0.58990668,-0.00974751,-0.02976556,-0.80686375
'00:08:13.284,0.059082,0.032227,1.003418,0.487805,1.463415,-0.670732,-4.275000,19.556250,22.393751,28.442,0.58989853,-0.00971571,-0.02977337,-0.80686980
'00:08:13.294,0.059082,0.032715,1.003418,0.304878,1.341463,-0.609756,-4.275000,19.556250,22.393751,28.412,0.58989415,-0.00970039,-0.02977749,-0.80687304
'00:08:13.304,0.059082,0.032227,1.002930,0.426829,1.402439,-0.609756,-4.112500,19.337500,22.275000,28.412,0.58989731,-0.00968462,-0.02979311,-0.80687034
'00:08:13.314,0.060547,0.028320,1.002930,0.365854,1.341463,-0.548781,-4.112500,19.337500,22.275000,28.427,0.58990541,-0.00970349,-0.02978942,-0.80686433
'00:08:13.324,0.059570,0.029785,1.003418,0.304878,1.280488,-0.609756,-4.193750,19.518751,22.362501,28.382,0.58990631,-0.00971350,-0.02978617,-0.80686367
'00:08:13.336,0.059082,0.030273,1.001953,0.426829,1.402439,-0.609756,-4.193750,19.518751,22.362501,28.397,0.58990774,-0.00970168,-0.02978688,-0.80686274
'00:08:13.344,0.060059,0.031250,1.001465,0.426829,1.402439,-0.609756,-4.143750,19.381250,22.343750,28.397,0.58990912,-0.00969649,-0.02979692,-0.80686142
'00:08:13.354,0.058594,0.033203,1.002930,0.365854,1.402439,-0.609756,-4.143750,19.381250,22.343750,28.397,0.58991039,-0.00967495,-0.02980993,-0.80686027
'00:08:13.364,0.061523,0.029785,1.002930,0.365854,1.341463,-0.609756,-4.193750,19.500000,22.412500,28.412,0.58991083,-0.00968977,-0.02981592,-0.80685955
'00:08:13.374,0.062988,0.030273,1.001465,0.304878,1.341463,-0.548781,-4.193750,19.500000,22.412500,28.382,0.58991525,-0.00971453,-0.02982765,-0.80685559
'00:08:13.384,0.062500,0.032227,1.001465,0.365854,1.341463,-0.548781,-4.193750,19.406250,22.362501,28.397,0.58991762,-0.00972270,-0.02985159,-0.80685287
'00:08:13.394,0.063477,0.028809,1.002930,0.304878,1.402439,-0.548781,-4.193750,19.406250,22.362501,28.412,0.58992081,-0.00975058,-0.02985012,-0.80685025
'00:08:13.404,0.062500,0.028809,1.004883,0.548781,1.524390,-0.609756,-3.981250,19.112501,22.143751,28.397,0.58992986,-0.00976093,-0.02986604,-0.80684292
'00:08:13.414,0.059570,0.029297,1.002441,0.487805,1.463415,-0.548781,-3.981250,19.112501,22.143751,28.427,0.58994297,-0.00975904,-0.02987132,-0.80683316
'00:08:13.424,0.056641,0.032227,1.000000,0.304878,1.219512,-0.548781,-4.450000,19.818750,22.543751,28.367,0.58993535,-0.00973236,-0.02985884,-0.80683952
'00:08:13.435,0.056641,0.031738,1.000977,0.365854,1.402439,-0.609756,-4.450000,19.818750,22.543751,28.397,0.58992308,-0.00968798,-0.02983614,-0.80684986
'00:08:13.444,0.048828,0.038086,1.008789,0.060976,1.219512,-0.609756,-4.150000,19.306250,22.318750,28.397,0.58992116,-0.00961719,-0.02981977,-0.80685272
'00:08:13.456,0.056641,0.030762,1.005859,0.609756,1.707317,-0.609756,-4.150000,19.306250,22.318750,28.397,0.58992275,-0.00954882,-0.02980391,-0.80685296
'00:08:13.464,0.060059,0.026855,1.001465,0.121951,1.036585,-0.487805,-3.931250,19.006250,22.012501,28.397,0.58993801,-0.00960278,-0.02979795,-0.80684138
'00:08:13.474,0.055664,0.032227,1.003906,0.243902,1.158537,-0.548781,-4.293750,19.593750,22.437500,28.427,0.58993702,-0.00958607,-0.02978748,-0.80684269
'00:08:13.484,0.060547,0.031738,1.002930,0.487805,1.524390,-0.609756,-4.293750,19.593750,22.437500,28.412,0.58993286,-0.00956319,-0.02979480,-0.80684573
'00:08:13.495,0.064941,0.028809,1.000977,0.243902,1.219512,-0.548781,-4.087500,19.306250,22.256250,28.397,0.58994224,-0.00963097,-0.02981583,-0.80683729
'00:08:13.504,0.061035,0.031738,1.000488,0.365854,1.219512,-0.609756,-4.087500,19.306250,22.256250,28.397,0.58994556,-0.00964639,-0.02984130,-0.80683374
'00:08:13.514,0.060547,0.032715,1.002930,0.365854,1.402439,-0.609756,-4.243750,19.406250,22.331251,28.427,0.58994064,-0.00963353,-0.02985165,-0.80683711
'00:08:13.524,0.063477,0.024414,1.007324,0.304878,1.341463,-0.609756,-4.243750,19.406250,22.331251,28.382,0.58993738,-0.00968208,-0.02982063,-0.80684005
'00:08:13.536,0.061523,0.027832,1.003418,0.487805,1.341463,-0.609756,-4.150000,19.381250,22.225000,28.397,0.58994015,-0.00970380,-0.02982485,-0.80683761
'00:08:13.544,0.057617,0.032715,0.999023,0.426829,1.341463,-0.609756,-4.150000,19.381250,22.225000,28.412,0.58994110,-0.00968448,-0.02983601,-0.80683674
'00:08:13.554,0.058105,0.033203,1.000488,0.304878,1.341463,-0.609756,-4.018750,19.206251,22.162500,28.397,0.58994787,-0.00967361,-0.02985313,-0.80683129
'00:08:13.564,0.059570,0.032227,1.004395,0.182927,1.219512,-0.548781,-4.018750,19.206251,22.162500,28.397,0.58995867,-0.00969062,-0.02986621,-0.80682270
'00:08:13.574,0.061035,0.026855,1.003906,0.243902,1.158537,-0.548781,-4.525000,19.818750,22.606251,28.412,0.58994711,-0.00971716,-0.02983208,-0.80683210
'00:08:13.584,0.060547,0.027832,1.002441,0.243902,1.219512,-0.609756,-4.525000,19.818750,22.606251,28.442,0.58993125,-0.00973210,-0.02979983,-0.80684471
'00:08:13.594,0.060547,0.031250,1.002930,0.304878,1.280488,-0.609756,-4.287500,19.575001,22.431250,28.397,0.58992619,-0.00973568,-0.02980347,-0.80684822
'00:08:13.604,0.060059,0.031250,1.003906,0.365854,1.402439,-0.609756,-4.287500,19.575001,22.431250,28.397,0.58992154,-0.00972435,-0.02980245,-0.80685180
'00:08:13.615,0.060547,0.029297,1.003418,0.426829,1.402439,-0.548781,-4.418750,19.650000,22.550001,28.412,0.58991344,-0.00971400,-0.02978572,-0.80685846
'00:08:13.624,0.059570,0.031738,1.001953,0.365854,1.341463,-0.609756,-4.418750,19.650000,22.550001,28.397,0.58990233,-0.00969747,-0.02978149,-0.80686694
'00:08:13.634,0.059082,0.031250,1.001465,0.304878,1.280488,-0.548781,-4.700000,20.156250,22.818750,28.367,0.58988510,-0.00967634,-0.02975958,-0.80688060
'00:08:13.644,0.060547,0.030273,1.000488,0.365854,1.280488,-0.548781,-4.700000,20.156250,22.818750,28.382,0.58986825,-0.00966556,-0.02974341,-0.80689364
'00:08:13.660,0.060059,0.029297,1.003906,0.365854,1.341463,-0.548781,-4.143750,19.343750,22.237501,28.367,0.58987834,-0.00968101,-0.02974117,-0.80688617
'00:08:13.664,0.060059,0.030762,1.003906,0.426829,1.402439,-0.609756,-4.143750,19.343750,22.237501,28.412,0.58987907,-0.00967905,-0.02974472,-0.80688553
'00:08:13.674,0.059082,0.030762,1.002441,0.426829,1.463415,-0.609756,-4.287500,19.506250,22.437500,28.427,0.58987383,-0.00965736,-0.02973811,-0.80688986
'00:08:13.684,0.059082,0.029297,1.002441,0.426829,1.402439,-0.609756,-4.287500,19.506250,22.437500,28.397,0.58986886,-0.00964699,-0.02972576,-0.80689407
'00:08:13.695,0.060059,0.030762,1.002930,0.365854,1.280488,-0.609756,-4.143750,19.337500,22.368750,28.442,0.58986987,-0.00965567,-0.02973812,-0.80689277
'00:08:13.704,0.060547,0.029785,1.002930,0.304878,1.280488,-0.548781,-4.143750,19.337500,22.368750,28.427,0.58987466,-0.00967229,-0.02974059,-0.80688898
'00:08:13.714,0.062012,0.029785,1.003906,0.365854,1.280488,-0.609756,-3.925000,19.081251,22.087500,28.397,0.58988674,-0.00970711,-0.02976713,-0.80687875
'00:08:13.724,0.060059,0.030762,1.000977,0.426829,1.402439,-0.609756,-4.243750,19.606251,22.393751,28.442,0.58988609,-0.00969924,-0.02977373,-0.80687908
'00:08:13.734,0.060547,0.029785,0.999512,0.426829,1.402439,-0.548781,-4.243750,19.606251,22.393751,28.427,0.58988993,-0.00969934,-0.02977699,-0.80687615
'00:08:13.746,0.060547,0.031738,1.002441,0.365854,1.402439,-0.609756,-4.193750,19.412500,22.400000,28.427,0.58988831,-0.00969277,-0.02978872,-0.80687698
'00:08:13.754,0.061035,0.030762,1.002441,0.365854,1.280488,-0.609756,-4.193750,19.412500,22.400000,28.367,0.58988715,-0.00970127,-0.02979828,-0.80687737
'00:08:13.764,0.061035,0.029785,1.002441,0.365854,1.341463,-0.609756,-4.162500,19.393751,22.318750,28.442,0.58988811,-0.00971353,-0.02980315,-0.80687635
'00:08:13.774,0.062500,0.029297,1.001953,0.304878,1.280488,-0.548781,-4.162500,19.393751,22.318750,28.412,0.58989313,-0.00974431,-0.02981043,-0.80687203
'00:08:13.784,0.063965,0.028320,1.003418,0.304878,1.341463,-0.609756,-4.306250,19.618750,22.500000,28.412,0.58988818,-0.00977639,-0.02980699,-0.80687539
'00:08:13.794,0.063477,0.030762,1.003906,0.426829,1.463415,-0.609756,-4.306250,19.618750,22.500000,28.382,0.58988306,-0.00977915,-0.02981845,-0.80687868
'00:08:13.804,0.063477,0.030762,1.003906,0.426829,1.463415,-0.609756,-4.100000,19.275000,22.231251,28.382,0.58988611,-0.00979084,-0.02983997,-0.80687551
'00:08:13.814,0.060059,0.030762,1.001953,0.365854,1.402439,-0.609756,-4.100000,19.275000,22.231251,28.412,0.58988907,-0.00978947,-0.02984554,-0.80687316
'00:08:13.824,0.058105,0.030762,1.001465,0.365854,1.280488,-0.609756,-4.368750,19.618750,22.531250,28.427,0.58987935,-0.00977240,-0.02983378,-0.80688091
'00:08:13.834,0.057617,0.031250,1.001465,0.304878,1.280488,-0.548781,-4.368750,19.618750,22.531250,28.412,0.58987386,-0.00975380,-0.02981879,-0.80688570
'00:08:13.846,0.057129,0.029297,1.003418,0.304878,1.280488,-0.609756,-4.275000,19.462500,22.431250,28.367,0.58986710,-0.00974281,-0.02978820,-0.80689191
'00:08:13.854,0.056641,0.030762,1.003906,0.365854,1.341463,-0.609756,-4.275000,19.462500,22.431250,28.427,0.58986257,-0.00972195,-0.02977455,-0.80689597
'00:08:13.864,0.058105,0.032227,1.003418,0.365854,1.280488,-0.609756,-4.362500,19.568750,22.468750,28.367,0.58985259,-0.00969894,-0.02977209,-0.80690363
'00:08:13.874,0.058105,0.029785,1.002441,0.365854,1.402439,-0.548781,-4.362500,19.568750,22.468750,28.412,0.58984787,-0.00967914,-0.02974887,-0.80690818
'00:08:13.884,0.061035,0.030273,1.002441,0.365854,1.341463,-0.609756,-4.118750,19.268751,22.331251,28.442,0.58984948,-0.00969131,-0.02975885,-0.80690649
'00:08:13.894,0.062012,0.031738,1.003418,0.304878,1.280488,-0.609756,-4.118750,19.268751,22.331251,28.412,0.58985042,-0.00970964,-0.02978056,-0.80690478
'00:08:13.904,0.062500,0.029297,1.002930,0.304878,1.280488,-0.609756,-4.243750,19.431250,22.406250,28.427,0.58984634,-0.00973559,-0.02978211,-0.80690739
'00:08:13.914,0.062012,0.029785,1.002441,0.304878,1.280488,-0.609756,-4.243750,19.431250,22.406250,28.427,0.58984212,-0.00975608,-0.02978466,-0.80691014
'00:08:13.924,0.062012,0.029297,1.000977,0.426829,1.341463,-0.609756,-4.206250,19.437500,22.412500,28.427,0.58984079,-0.00977078,-0.02979330,-0.80691061
'00:08:13.934,0.059570,0.031738,1.001953,0.426829,1.402439,-0.609756,-4.206250,19.437500,22.412500,28.427,0.58983912,-0.00975475,-0.02980242,-0.80691169
'00:08:13.944,0.057617,0.030762,1.003906,0.365854,1.402439,-0.609756,-4.275000,19.525000,22.506250,28.397,0.58983451,-0.00973109,-0.02978750,-0.80691589
'00:08:13.954,0.058105,0.030273,1.002930,0.365854,1.341463,-0.670732,-4.275000,19.525000,22.506250,28.397,0.58982564,-0.00971742,-0.02977571,-0.80692298
'00:08:13.964,0.058594,0.030762,1.003418,0.365854,1.341463,-0.609756,-3.968750,19.037500,22.200001,28.412,0.58983356,-0.00971854,-0.02978466,-0.80691684
'00:08:13.974,0.059082,0.029297,1.002441,0.365854,1.341463,-0.609756,-3.968750,19.037500,22.200001,28.397,0.58984176,-0.00972971,-0.02978674,-0.80691064
'00:08:13.984,0.059570,0.029297,1.004883,0.365854,1.341463,-0.609756,-4.318750,19.462500,22.412500,28.382,0.58983367,-0.00972540,-0.02977016,-0.80691722
'00:08:13.994,0.061523,0.029297,1.003418,0.426829,1.341463,-0.609756,-4.318750,19.462500,22.412500,28.442,0.58982561,-0.00973014,-0.02976758,-0.80692314
'00:08:14.004,0.062012,0.030762,1.000000,0.487805,1.402439,-0.609756,-4.325000,19.525000,22.400000,28.412,0.58981821,-0.00972483,-0.02977976,-0.80692817
'00:08:14.014,0.062988,0.032227,1.000488,0.365854,1.341463,-0.609756,-4.206250,19.381250,22.362501,28.457,0.58981534,-0.00973517,-0.02980612,-0.80692917
'00:08:14.024,0.062988,0.028320,1.005371,0.304878,1.341463,-0.609756,-4.206250,19.381250,22.362501,28.397,0.58981336,-0.00976500,-0.02980121,-0.80693044
'00:08:14.034,0.061035,0.028809,1.002441,0.426829,1.341463,-0.548781,-4.325000,19.656250,22.500000,28.397,0.58981254,-0.00977075,-0.02979652,-0.80693114
'00:08:14.047,0.057617,0.030762,1.001953,0.487805,1.341463,-0.609756,-4.325000,19.656250,22.500000,28.442,0.58980556,-0.00973580,-0.02979229,-0.80693682
'00:08:14.057,0.054688,0.029785,1.001465,0.426829,1.402439,-0.609756,-4.543750,19.918751,22.743750,28.397,0.58979067,-0.00968553,-0.02975125,-0.80694982
'00:08:14.064,0.055664,0.032227,0.999512,0.426829,1.402439,-0.609756,-4.543750,19.918751,22.743750,28.412,0.58977997,-0.00964778,-0.02973719,-0.80695861
'00:08:14.074,0.057129,0.033203,1.000488,0.365854,1.341463,-0.609756,-4.225000,19.393751,22.331251,28.397,0.58977664,-0.00961845,-0.02974335,-0.80696117
'00:08:14.084,0.058594,0.029297,1.004395,0.365854,1.280488,-0.609756,-4.225000,19.393751,22.331251,28.427,0.58977414,-0.00961986,-0.02973313,-0.80696336
'00:08:14.094,0.060059,0.029297,1.007324,0.304878,1.280488,-0.609756,-4.356250,19.612501,22.443750,28.397,0.58976667,-0.00962699,-0.02971811,-0.80696929
'00:08:14.104,0.062012,0.031738,1.001465,0.365854,1.280488,-0.609756,-4.356250,19.612501,22.443750,28.382,0.58975858,-0.00963296,-0.02973382,-0.80697455
'00:08:14.116,0.065430,0.028320,1.004395,0.304878,1.280488,-0.609756,-4.037500,19.243750,22.300001,28.397,0.58976711,-0.00970598,-0.02976050,-0.80696645
'00:08:14.124,0.066406,0.029297,1.003906,0.365854,1.341463,-0.609756,-4.037500,19.243750,22.300001,28.382,0.58977253,-0.00974886,-0.02978722,-0.80696099
'00:08:14.134,0.061523,0.030762,1.000488,0.426829,1.341463,-0.609756,-4.100000,19.343750,22.256250,28.397,0.58977704,-0.00975994,-0.02981026,-0.80695671
'00:08:14.144,0.048828,0.033691,0.995117,0.426829,1.524390,-0.975610,-4.100000,19.343750,22.256250,28.427,0.58975604,-0.00966542,-0.02978676,-0.80697406
'00:08:14.154,0.014160,0.070801,1.012207,0.365854,1.402439,-6.097561,-4.268750,19.556250,22.468750,28.427,0.58935609,-0.00919830,-0.02982195,-0.80727037
'00:08:14.164,0.028809,0.053711,1.010254,-0.975610,-0.182927,-11.097561,-4.268750,19.556250,22.468750,28.397,0.58860608,-0.00905788,-0.02981525,-0.80781922
'00:08:14.174,0.043457,0.041016,0.994141,1.341463,1.829268,-14.268293,-4.056250,19.043751,22.087500,28.382,0.58765143,-0.00880611,-0.02987718,-0.80851444
'00:08:14.184,0.071289,0.010254,0.990723,-0.609756,0.000000,-13.719513,-4.056250,19.043751,22.087500,28.442,0.58673714,-0.00910361,-0.02983170,-0.80917657
'00:08:14.194,0.100098,-0.014648,0.982910,0.182927,0.975610,-7.926829,-4.231250,19.125000,22.187500,28.412,0.58622643,-0.00952092,-0.02976259,-0.80954439
'00:08:14.204,0.093262,0.005859,0.998535,-0.243902,0.609756,-1.646341,-4.231250,19.125000,22.187500,28.427,0.58615666,-0.00989504,-0.02976056,-0.80959050
'00:08:14.214,0.050293,0.036621,1.012207,0.365854,1.341463,-0.609756,-4.343750,19.275000,22.262501,28.427,0.58615428,-0.00980502,-0.02975328,-0.80959358
'00:08:14.224,0.063965,0.028809,0.998047,0.853659,1.890244,-0.731707,-4.343750,19.275000,22.262501,28.412,0.58614653,-0.00977401,-0.02977145,-0.80959890
'00:08:14.234,0.065430,0.028320,0.996582,0.000000,0.792683,-0.487805,-4.281250,19.193750,22.206251,28.427,0.58615524,-0.00987962,-0.02979253,-0.80959054
'00:08:14.244,0.062012,0.033691,1.006348,0.243902,1.219512,-0.548781,-4.281250,19.193750,22.206251,28.442,0.58615970,-0.00989357,-0.02982216,-0.80958604
'00:08:14.255,0.065430,0.028809,1.003418,0.609756,1.646341,-0.670732,-4.475000,19.487501,22.356251,28.427,0.58614933,-0.00989197,-0.02983286,-0.80959317
'00:08:14.264,0.059082,0.028320,1.001953,0.426829,1.463415,-0.975610,-4.175000,18.956251,22.025000,28.427,0.58613108,-0.00988955,-0.02982322,-0.80960678
'00:08:14.274,0.049316,0.039062,1.002441,0.304878,1.280488,-2.317073,-4.175000,18.956251,22.025000,28.397,0.58601331,-0.00979200,-0.02983807,-0.80969266
'00:08:14.284,0.050293,0.040527,1.004395,0.487805,1.341463,-4.207317,-4.362500,19.300001,22.200001,28.457,0.58575599,-0.00967141,-0.02986873,-0.80987915
'00:08:14.294,0.063477,0.027344,1.003418,0.060976,1.097561,-4.512195,-4.362500,19.300001,22.200001,28.382,0.58547982,-0.00973143,-0.02985987,-0.81007843
'00:08:14.304,0.053711,0.030762,1.000000,0.304878,1.158537,-4.207317,-4.268750,19.006250,22.056250,28.442,0.58522697,-0.00970364,-0.02984667,-0.81026194
'00:08:14.314,0.018555,0.029785,1.014160,0.487805,1.158537,-6.219512,-4.268750,19.006250,22.056250,28.397,0.58483312,-0.00944517,-0.02967921,-0.81055546
'00:08:14.324,-0.031738,0.019531,0.989258,1.890244,2.682927,-4.573171,-4.131250,18.887501,21.925001,28.367,0.58456651,-0.00878920,-0.02929755,-0.81076902
'00:08:14.334,0.010742,0.024414,1.014160,-0.487805,0.060976,-5.365854,-4.131250,18.887501,21.925001,28.397,0.58424300,-0.00866001,-0.02906891,-0.81101179
'00:08:14.344,0.047363,0.037598,1.027832,1.951220,2.621951,-5.853659,-4.668750,19.375000,22.218750,28.442,0.58386507,-0.00837335,-0.02909856,-0.81128586
'00:08:14.354,0.069824,0.037109,0.996094,-4.390244,-4.268293,-5.487805,-4.668750,19.375000,22.218750,28.397,0.58349158,-0.00904303,-0.02913754,-0.81154594
'00:08:14.364,0.093750,0.040527,1.076172,-0.426829,-0.121951,-4.024390,-4.506250,19.093750,22.000000,28.397,0.58323911,-0.00930891,-0.02931997,-0.81171783
'00:08:14.374,0.095703,0.037598,1.033203,5.000000,5.182927,-5.121951,-4.506250,19.093750,22.000000,28.442,0.58292652,-0.00895028,-0.02962753,-0.81193520
'00:08:14.384,0.133789,0.044922,1.013184,3.658537,4.695122,-3.109756,-4.325000,18.806250,21.618750,28.412,0.58275588,-0.00884313,-0.03002119,-0.81204441
'00:08:14.394,0.086914,0.017578,0.973145,-2.195122,-0.487805,-1.402439,-4.325000,18.806250,21.618750,28.382,0.58269889,-0.00933476,-0.02998653,-0.81208108
'00:08:14.404,0.085449,0.040527,1.005859,-3.414634,-2.560976,0.487805,-4.362500,18.750000,21.625000,28.427,0.58276050,-0.00991551,-0.03007854,-0.81202658
'00:08:14.414,0.095215,0.038574,1.012695,3.353659,4.146341,-2.073171,-4.362500,18.750000,21.625000,28.382,0.58266227,-0.00971749,-0.03032844,-0.81209017
'00:08:14.424,0.074219,0.027344,1.001465,2.134146,3.048780,-2.439024,-4.343750,18.731251,21.556250,28.427,0.58253990,-0.00960286,-0.03040607,-0.81217641
'00:08:14.434,0.062988,0.029297,1.000000,0.000000,0.792683,-1.646341,-4.343750,18.731251,21.556250,28.367,0.58246664,-0.00968776,-0.03041061,-0.81222778
'00:08:14.444,0.052734,0.035156,1.004395,0.000000,0.792683,-1.402439,-4.268750,18.568750,21.462500,28.397,0.58241195,-0.00968515,-0.03040695,-0.81226716
'00:08:14.454,0.053711,0.031250,1.001953,-0.060976,0.670732,-1.707317,-4.268750,18.568750,21.462500,28.412,0.58233641,-0.00971781,-0.03038669,-0.81232169
'00:08:14.465,0.051270,0.028809,1.001465,0.548781,1.402439,-1.768293,-4.275000,18.562500,21.443750,28.427,0.58225172,-0.00965722,-0.03034245,-0.81238477
'00:08:14.474,0.055664,0.029297,1.002930,0.609756,1.402439,-2.500000,-4.275000,18.562500,21.443750,28.427,0.58213601,-0.00962658,-0.03033175,-0.81246845
'00:08:14.484,0.082031,0.036133,1.003906,-0.365854,0.426829,-1.524390,-4.318750,18.550001,21.318750,28.427,0.58206746,-0.00983305,-0.03044746,-0.81251076
'00:08:14.494,0.068359,0.034180,1.008789,0.548781,1.463415,-1.829268,-4.318750,18.550001,21.318750,28.397,0.58198200,-0.00984642,-0.03050468,-0.81256966
'00:08:14.504,0.052734,0.034180,1.003906,0.548781,1.646341,-2.439024,-4.481250,18.818750,21.468750,28.397,0.58184854,-0.00974678,-0.03048025,-0.81266735
'00:08:14.515,0.045410,0.029785,1.000000,-0.853659,0.000000,-2.439024,-4.525000,18.868750,21.481251,28.397,0.58169546,-0.00981694,-0.03037178,-0.81278015
'00:08:14.524,0.045410,0.036621,1.002441,-1.341463,-0.914634,-3.353659,-4.525000,18.868750,21.481251,28.427,0.58150831,-0.00992510,-0.03033325,-0.81291418
'00:08:14.534,0.045410,0.036621,1.002441,-1.341463,-0.914634,-3.353659,-4.331250,18.468750,21.206251,28.427,0.58130684,-0.01004892,-0.03029841,-0.81305804
'00:08:14.544,0.074219,0.026367,1.001953,0.975610,1.829268,-3.780488,-4.331250,18.468750,21.206251,28.397,0.58108592,-0.01007545,-0.03035198,-0.81321362
'00:08:14.555,0.077637,0.026367,1.003906,0.975610,2.256098,-1.646341,-4.337500,18.418751,21.237501,28.351,0.58100916,-0.01009716,-0.03039752,-0.81326650
'00:08:14.564,0.070312,0.036133,1.000488,0.609756,1.585366,-1.280488,-4.337500,18.418751,21.237501,28.397,0.58096626,-0.01010089,-0.03046861,-0.81329443
'00:08:14.574,0.070801,0.033691,0.999512,0.548781,1.524390,-1.219512,-4.381250,18.393751,21.237501,28.427,0.58091981,-0.01012315,-0.03052876,-0.81332508
'00:08:14.584,0.066406,0.029785,1.001465,0.487805,1.646341,-0.914634,-4.381250,18.393751,21.237501,28.321,0.58089647,-0.01013132,-0.03053402,-0.81334146
'00:08:14.594,0.062500,0.029785,1.002441,0.426829,1.402439,-0.731707,-4.581250,18.768751,21.450001,28.457,0.58087921,-0.01012928,-0.03052200,-0.81335426
'00:08:14.604,0.062988,0.028809,1.001465,0.304878,1.219512,-0.670732,-4.581250,18.768751,21.450001,28.397,0.58086596,-0.01015395,-0.03050746,-0.81336396
'00:08:14.614,0.059570,0.030762,1.004883,0.182927,1.097561,-0.609756,-4.718750,19.031250,21.618750,28.412,0.58085207,-0.01015939,-0.03048132,-0.81337479
'00:08:14.624,0.061035,0.030762,1.005371,0.243902,1.219512,-0.670732,-4.718750,19.031250,21.618750,28.412,0.58083428,-0.01016138,-0.03045985,-0.81338827
'00:08:14.634,0.060547,0.030273,1.003418,0.365854,1.219512,-0.670732,-4.506250,18.725000,21.456251,28.427,0.58082510,-0.01016575,-0.03045317,-0.81339502
'00:08:14.644,0.061523,0.030273,1.000977,0.304878,1.219512,-0.670732,-4.506250,18.725000,21.456251,28.427,0.58081584,-0.01017954,-0.03044759,-0.81340168
'00:08:14.655,0.060059,0.030273,1.000977,0.365854,1.280488,-0.731707,-4.850000,19.212500,21.762501,28.442,0.58078631,-0.01016127,-0.03041857,-0.81342407
'00:08:14.666,0.051270,0.033691,1.003906,0.365854,1.402439,-1.463415,-4.850000,19.212500,21.762501,28.412,0.58069954,-0.01005854,-0.03036430,-0.81348932
'00:08:14.674,0.051270,0.033691,1.003906,0.365854,1.402439,-1.463415,-4.375000,18.462500,21.243750,28.412,0.58065129,-0.00999826,-0.03034239,-0.81352533
'00:08:14.684,0.047363,0.031250,1.005371,0.487805,1.341463,-2.012195,-4.375000,18.462500,21.243750,28.427,0.58055303,-0.00990732,-0.03029492,-0.81359833
'00:08:14.694,0.048828,0.031738,1.006348,0.000000,0.853659,-2.256098,-4.337500,18.418751,21.237501,28.427,0.58043793,-0.00988532,-0.03025015,-0.81368238
'00:08:14.704,0.058594,0.025879,1.002441,0.060976,0.792683,-2.317073,-4.337500,18.418751,21.237501,28.427,0.58031989,-0.00995172,-0.03022256,-0.81376679
'00:08:14.714,0.077148,0.027832,1.002930,1.280488,2.134146,-1.219512,-4.631250,18.768751,21.468750,28.397,0.58026988,-0.00994638,-0.03028713,-0.81380011
'00:08:14.724,0.073242,0.034668,1.005859,0.487805,1.402439,-0.914634,-4.631250,18.768751,21.468750,28.412,0.58023760,-0.00998299,-0.03035432,-0.81382018
'00:08:14.734,0.069336,0.032715,1.001465,0.365854,1.280488,-0.609756,-4.493750,18.643751,21.312500,28.412,0.58023408,-0.01002885,-0.03040106,-0.81382038
'00:08:14.745,0.059570,0.032715,1.002441,0.365854,1.280488,-0.609756,-4.493750,18.643751,21.312500,28.427,0.58023055,-0.01001536,-0.03040586,-0.81382288
'00:08:14.754,0.060547,0.030273,1.001953,0.487805,1.402439,-0.609756,-4.362500,18.418751,21.143751,28.427,0.58023299,-0.01001075,-0.03040789,-0.81382112
'00:08:14.764,0.061035,0.030273,1.001953,0.365854,1.402439,-0.548781,-4.362500,18.418751,21.143751,28.427,0.58023989,-0.01001494,-0.03040351,-0.81381632
'00:08:14.774,0.059082,0.032227,1.003418,0.243902,1.280488,-0.548781,-4.306250,18.362501,21.106251,28.397,0.58024884,-0.01001612,-0.03040301,-0.81380994
'00:08:14.784,0.059570,0.031250,1.002930,0.304878,1.280488,-0.609756,-4.306250,18.362501,21.106251,28.427,0.58025370,-0.01002136,-0.03040319,-0.81380641
'00:08:14.794,0.060547,0.030762,1.002930,0.365854,1.341463,-0.609756,-4.356250,18.462500,21.200001,28.397,0.58025706,-0.01002531,-0.03040371,-0.81380394
'00:08:14.804,0.060547,0.030273,1.002930,0.365854,1.341463,-0.609756,-4.731250,18.950001,21.506250,28.427,0.58024440,-0.01001461,-0.03038212,-0.81381390
'00:08:14.814,0.060547,0.031250,1.003906,0.426829,1.402439,-0.548781,-4.731250,18.950001,21.506250,28.397,0.58023617,-0.00999256,-0.03036754,-0.81382059
'00:08:14.825,0.061035,0.031250,1.004395,0.365854,1.341463,-0.609756,-4.562500,18.787500,21.400000,28.412,0.58023116,-0.00998858,-0.03036315,-0.81382438
'00:08:14.834,0.061035,0.031738,1.003418,0.365854,1.341463,-0.609756,-4.562500,18.787500,21.400000,28.427,0.58022697,-0.00998371,-0.03036268,-0.81382743
'00:08:14.844,0.060547,0.032227,1.003418,0.243902,1.158537,-0.548781,-4.356250,18.431250,21.225000,28.427,0.58023319,-0.01000086,-0.03037265,-0.81382242
'00:08:14.855,0.061523,0.030762,1.002930,0.243902,1.158537,-0.548781,-4.356250,18.431250,21.225000,28.382,0.58024028,-0.01003301,-0.03037832,-0.81381676
'00:08:14.865,0.060547,0.032227,1.001953,0.304878,1.158537,-0.548781,-4.481250,18.618750,21.331251,28.412,0.58024136,-0.01004112,-0.03038666,-0.81381558
'00:08:14.874,0.060547,0.031738,1.002441,0.243902,1.097561,-0.548781,-4.481250,18.618750,21.331251,28.397,0.58024221,-0.01005678,-0.03039002,-0.81381465
'00:08:14.884,0.059570,0.031250,1.002441,0.243902,1.158537,-0.548781,-4.325000,18.400000,21.081251,28.397,0.58025058,-0.01007260,-0.03039179,-0.81380842
'00:08:14.894,0.061035,0.030762,1.002441,0.243902,1.219512,-0.548781,-4.325000,18.400000,21.081251,28.397,0.58025908,-0.01009471,-0.03039370,-0.81380201
'00:08:14.904,0.060059,0.030762,1.002441,0.365854,1.280488,-0.548781,-4.625000,18.731251,21.387501,28.412,0.58025323,-0.01008594,-0.03037969,-0.81380682
'00:08:14.914,0.061523,0.028809,1.003418,0.426829,1.280488,-0.548781,-4.625000,18.731251,21.387501,28.412,0.58024791,-0.01009100,-0.03036437,-0.81381112
'00:08:14.924,0.061035,0.031738,1.004883,0.304878,1.219512,-0.670732,-4.781250,19.000000,21.550001,28.412,0.58022782,-0.01008488,-0.03035237,-0.81382597
'00:08:14.934,0.062012,0.029785,1.003418,0.487805,1.341463,-0.548781,-4.781250,19.000000,21.550001,28.442,0.58021738,-0.01007557,-0.03034056,-0.81383397
'00:08:14.945,0.061035,0.031250,1.002930,0.609756,1.646341,-0.670732,-4.381250,18.393751,21.143751,28.457,0.58021420,-0.01003958,-0.03034637,-0.81383646
'00:08:14.954,0.061035,0.031250,1.003418,0.365854,1.341463,-0.609756,-4.381250,18.393751,21.143751,28.397,0.58021464,-0.01004128,-0.03034916,-0.81383602
'00:08:14.964,0.058105,0.031738,1.001953,0.548781,1.524390,-0.609756,-4.325000,18.381250,21.206251,28.412,0.58021913,-0.01000506,-0.03035101,-0.81383320
'00:08:14.974,0.060059,0.032715,1.000000,0.426829,1.341463,-0.548781,-4.325000,18.381250,21.206251,28.367,0.58022704,-0.00999667,-0.03036887,-0.81382700
'00:08:14.985,0.060547,0.031738,1.002441,0.182927,1.097561,-0.548781,-4.318750,18.387501,21.168751,28.427,0.58023582,-0.01002800,-0.03037798,-0.81382001
'00:08:14.994,0.060547,0.030762,1.003418,0.182927,1.158537,-0.548781,-4.318750,18.387501,21.168751,28.427,0.58024328,-0.01005290,-0.03037660,-0.81381444
'00:08:15.004,0.060547,0.029785,1.002441,0.243902,1.219512,-0.548781,-4.556250,18.625000,21.381250,28.397,0.58023989,-0.01006536,-0.03035652,-0.81381745
'00:08:15.014,0.060059,0.031250,1.003906,0.670732,1.646341,-0.670732,-4.556250,18.625000,21.381250,28.427,0.58022905,-0.01001591,-0.03035171,-0.81382596
'00:08:15.028,0.061035,0.030273,1.002930,0.426829,1.463415,-0.548781,-4.612500,18.825001,21.475000,28.442,0.58022559,-0.00999704,-0.03033195,-0.81382940
'00:08:15.034,0.061035,0.031738,1.002441,0.548781,1.585366,-0.609756,-4.612500,18.825001,21.475000,28.442,0.58022161,-0.00997646,-0.03033064,-0.81383254
'00:08:15.044,0.062988,0.031250,1.001953,0.487805,1.585366,-0.609756,-4.406250,18.543751,21.225000,28.427,0.58022399,-0.00996832,-0.03034057,-0.81383058
'00:08:15.054,0.062012,0.030762,1.000977,0.426829,1.402439,-0.609756,-4.337500,18.393751,21.162500,28.442,0.58022778,-0.00997544,-0.03035096,-0.81382739
'00:08:15.066,0.062012,0.031250,1.003418,0.365854,1.341463,-0.548781,-4.337500,18.393751,21.162500,28.472,0.58023711,-0.00998963,-0.03036387,-0.81382009
'00:08:15.075,0.061035,0.032227,1.002441,0.365854,1.341463,-0.609756,-4.437500,18.487501,21.200001,28.397,0.58023544,-0.00998626,-0.03036982,-0.81382110
'00:08:15.084,0.061523,0.031250,1.003906,0.365854,1.341463,-0.609756,-4.437500,18.487501,21.200001,28.397,0.58023397,-0.00998908,-0.03037162,-0.81382205
'00:08:15.094,0.061523,0.029785,1.003418,0.365854,1.341463,-0.609756,-4.381250,18.350000,21.106251,28.427,0.58023400,-0.01000035,-0.03036655,-0.81382208
'00:08:15.104,0.061035,0.029785,1.004395,0.365854,1.341463,-0.609756,-4.381250,18.350000,21.106251,28.412,0.58023405,-0.01000831,-0.03035901,-0.81382222
'00:08:15.114,0.060547,0.029297,1.003418,0.365854,1.280488,-0.609756,-4.737500,18.925001,21.537500,28.397,0.58022060,-0.01000576,-0.03033421,-0.81383277
'00:08:15.125,0.060059,0.032227,1.002441,0.304878,1.280488,-0.548781,-4.737500,18.925001,21.537500,28.397,0.58020986,-0.00999008,-0.03032003,-0.81384115
'00:08:15.134,0.060059,0.032227,1.000000,0.304878,1.280488,-0.609756,-4.575000,18.656250,21.362501,28.397,0.58020242,-0.00998326,-0.03031604,-0.81384668
'00:08:15.146,0.059570,0.030273,1.000488,0.365854,1.341463,-0.609756,-4.575000,18.656250,21.362501,28.397,0.58019340,-0.00997199,-0.03029540,-0.81385402
'00:08:15.154,0.059082,0.031250,1.001953,0.365854,1.280488,-0.609756,-4.362500,18.425001,21.243750,28.427,0.58019519,-0.00997036,-0.03029657,-0.81385272
'00:08:15.164,0.059082,0.031738,1.003418,0.426829,1.402439,-0.670732,-4.362500,18.425001,21.243750,28.397,0.58019337,-0.00995398,-0.03029857,-0.81385414
'00:08:15.174,0.060059,0.031250,1.004883,0.365854,1.341463,-0.609756,-4.393750,18.356251,21.162500,28.457,0.58019251,-0.00995003,-0.03029597,-0.81385490
'00:08:15.185,0.060059,0.030273,1.004883,0.304878,1.280488,-0.609756,-4.393750,18.356251,21.162500,28.427,0.58019160,-0.00995862,-0.03028524,-0.81385584
'00:08:15.194,0.061035,0.030273,1.002441,0.304878,1.219512,-0.609756,-4.400000,18.481251,21.162500,28.412,0.58019267,-0.00997625,-0.03028630,-0.81385483
'00:08:15.206,0.060547,0.030762,1.001465,0.243902,1.158537,-0.609756,-4.400000,18.481251,21.162500,28.412,0.58019366,-0.01000253,-0.03028773,-0.81385375
'00:08:15.214,0.061035,0.032227,1.001953,0.243902,1.280488,-0.609756,-4.587500,18.775000,21.456251,28.382,0.58018808,-0.01000391,-0.03028497,-0.81385781
'00:08:15.225,0.061035,0.031250,1.001953,0.365854,1.341463,-0.609756,-4.587500,18.775000,21.456251,28.412,0.58018100,-0.00999890,-0.03028090,-0.81386307
'00:08:15.234,0.061035,0.031738,1.001465,0.365854,1.402439,-0.609756,-4.881250,19.175001,21.731251,28.427,0.58016462,-0.00997846,-0.03026495,-0.81387559
'00:08:15.245,0.061035,0.030762,1.002930,0.365854,1.402439,-0.609756,-4.881250,19.175001,21.731251,28.427,0.58014501,-0.00995808,-0.03023886,-0.81389079
'00:08:15.254,0.061035,0.029785,1.003418,0.365854,1.341463,-0.548781,-4.643750,18.862501,21.456251,28.442,0.58014201,-0.00995822,-0.03022582,-0.81389341
'00:08:15.265,0.060059,0.028809,1.005371,0.304878,1.280488,-0.609756,-4.643750,18.862501,21.456251,28.427,0.58013369,-0.00996422,-0.03019695,-0.81390034
'00:08:15.274,0.060059,0.028809,1.005371,0.304878,1.280488,-0.609756,-4.331250,18.362501,21.125000,28.427,0.58013774,-0.00998078,-0.03018646,-0.81389764
'00:08:15.284,0.062012,0.031250,1.002930,0.304878,1.219512,-0.609756,-4.331250,18.362501,21.125000,28.382,0.58014134,-0.01000474,-0.03020253,-0.81389418
'00:08:15.296,0.058594,0.033203,1.000488,0.365854,1.402439,-0.670732,-4.306250,18.343750,21.068750,28.427,0.58014251,-0.00998071,-0.03021578,-0.81389315
'00:08:15.306,0.058594,0.033203,1.000488,0.365854,1.402439,-0.670732,-4.581250,18.756250,21.387501,28.427,0.58013213,-0.00994979,-0.03021282,-0.81390104
'00:08:15.314,0.060547,0.032227,1.000488,0.426829,1.585366,-0.731707,-4.581250,18.756250,21.387501,28.442,0.58012101,-0.00992513,-0.03020860,-0.81390942
'00:08:15.324,0.060547,0.032227,1.001465,0.365854,1.524390,-0.792683,-4.737500,18.912500,21.475000,28.412,0.58009532,-0.00989451,-0.03019301,-0.81392868
'00:08:15.334,0.059082,0.032715,1.002930,0.304878,1.524390,-1.036585,-4.737500,18.912500,21.475000,28.412,0.58005237,-0.00985599,-0.03016985,-0.81396062
'00:08:15.348,0.055176,0.029297,1.004395,0.426829,1.463415,-1.219512,-4.400000,18.462500,21.156250,28.427,0.57999594,-0.00980756,-0.03012539,-0.81400306
'00:08:15.354,0.055176,0.029297,1.004395,0.426829,1.463415,-1.219512,-4.400000,18.462500,21.156250,28.427,0.57997196,-0.00978744,-0.03010698,-0.81402107
'00:08:15.364,0.037598,0.035156,1.003906,0.670732,1.585366,-2.073171,-4.356250,18.375000,21.106251,28.397,0.57987237,-0.00959812,-0.03004914,-0.81409640
'00:08:15.374,0.038574,0.025391,1.007324,0.792683,1.768293,-3.292683,-4.356250,18.375000,21.106251,28.397,0.57968999,-0.00943917,-0.02993584,-0.81423231
'00:08:15.386,0.050781,0.031250,1.006348,-0.182927,0.670732,-2.926829,-4.406250,18.356251,21.056250,28.427,0.57949294,-0.00946208,-0.02989050,-0.81437397
'00:08:15.394,0.051270,0.029297,1.000488,0.670732,1.768293,-3.353659,-4.406250,18.356251,21.056250,28.412,0.57934098,-0.00938998,-0.02985987,-0.81448404
'00:08:15.404,0.074707,0.028320,1.002441,0.670732,1.585366,-3.536585,-4.762500,18.906250,21.418751,28.442,0.57912382,-0.00943800,-0.02990733,-0.81463616
'00:08:15.414,0.067383,0.031738,1.004395,-0.365854,0.487805,-2.378049,-4.762500,18.906250,21.418751,28.412,0.57898527,-0.00956410,-0.02992516,-0.81473251
'00:08:15.426,0.062500,0.028809,1.010742,-0.670732,-0.121951,-2.195122,-4.868750,18.912500,21.381250,28.427,0.57882575,-0.00975627,-0.02990017,-0.81484449
'00:08:15.435,0.089355,0.035156,1.002441,0.914634,2.073171,-1.402439,-4.868750,18.912500,21.381250,28.442,0.57876108,-0.00979592,-0.03001232,-0.81488583
'00:08:15.444,0.074219,0.035645,1.004395,0.548781,1.524390,-0.853659,-4.662500,18.631250,21.225000,28.472,0.57873745,-0.00982278,-0.03008478,-0.81489962
'00:08:15.454,0.068359,0.031738,1.002930,0.487805,1.524390,-0.975610,-4.662500,18.631250,21.225000,28.427,0.57870354,-0.00983893,-0.03011427,-0.81492242
'00:08:15.464,0.062500,0.031738,1.001953,0.243902,1.280488,-0.853659,-4.368750,18.268751,20.981251,28.442,0.57869085,-0.00986512,-0.03013063,-0.81493051
'00:08:15.474,0.060547,0.031738,1.002441,0.304878,1.402439,-0.853659,-4.368750,18.268751,20.981251,28.427,0.57867860,-0.00986743,-0.03013632,-0.81493896
'00:08:15.484,0.063477,0.031250,1.002930,0.365854,1.402439,-0.853659,-4.443750,18.337500,21.000000,28.427,0.57866262,-0.00988194,-0.03015087,-0.81494960
'00:08:15.494,0.064453,0.031738,1.003418,0.426829,1.402439,-0.731707,-4.443750,18.337500,21.000000,28.442,0.57865519,-0.00989698,-0.03017624,-0.81495375
'00:08:15.504,0.061523,0.030762,1.001953,0.365854,1.341463,-0.670732,-4.393750,18.331251,21.012501,28.397,0.57865545,-0.00990993,-0.03018614,-0.81495304
'00:08:15.514,0.061523,0.030273,1.001953,0.304878,1.341463,-0.609756,-4.393750,18.331251,21.012501,28.457,0.57866006,-0.00992800,-0.03018847,-0.81494946
'00:08:15.524,0.061035,0.031250,1.002930,0.304878,1.280488,-0.609756,-4.643750,18.600000,21.187500,28.427,0.57865232,-0.00993062,-0.03018290,-0.81495513
'00:08:15.534,0.059570,0.032227,1.002441,0.304878,1.280488,-0.670732,-4.643750,18.600000,21.187500,28.427,0.57864009,-0.00992044,-0.03017740,-0.81496415
'00:08:15.544,0.061035,0.032227,1.001953,0.304878,1.341463,-0.609756,-4.818750,18.806250,21.375000,28.427,0.57862451,-0.00990747,-0.03016594,-0.81497579
'00:08:15.554,0.060547,0.030273,1.003418,0.304878,1.402439,-0.548781,-4.818750,18.806250,21.375000,28.367,0.57861399,-0.00989568,-0.03013743,-0.81498445
'00:08:15.566,0.062500,0.030762,1.002930,0.365854,1.341463,-0.548781,-4.775000,18.818750,21.312500,28.442,0.57860520,-0.00989775,-0.03013079,-0.81499092
'00:08:15.574,0.062012,0.029785,1.003418,0.365854,1.341463,-0.609756,-4.775000,18.818750,21.312500,28.412,0.57859609,-0.00989994,-0.03012012,-0.81499775
'00:08:15.587,0.061523,0.030762,1.002930,0.304878,1.280488,-0.609756,-4.575000,18.406250,21.068750,28.412,0.57858788,-0.00991278,-0.03011535,-0.81500360
'00:08:15.594,0.061523,0.031250,1.001953,0.304878,1.219512,-0.609756,-4.637500,18.612501,21.200001,28.412,0.57858305,-0.00992064,-0.03011695,-0.81500687
'00:08:15.604,0.061523,0.031738,1.003906,0.365854,1.280488,-0.609756,-4.637500,18.612501,21.200001,28.442,0.57857626,-0.00992182,-0.03012252,-0.81501147
'00:08:15.614,0.061035,0.030762,1.002441,0.426829,1.341463,-0.609756,-4.693750,18.700001,21.231251,28.427,0.57856793,-0.00991494,-0.03011959,-0.81501758
'00:08:15.624,0.061523,0.030273,1.001953,0.365854,1.341463,-0.609756,-4.693750,18.700001,21.231251,28.397,0.57855969,-0.00991629,-0.03011177,-0.81502370
'00:08:15.635,0.061523,0.030762,1.001465,0.426829,1.402439,-0.609756,-4.781250,18.750000,21.243750,28.412,0.57854557,-0.00990236,-0.03010202,-0.81503425
'00:08:15.644,0.060547,0.032227,1.003418,0.426829,1.402439,-0.670732,-4.781250,18.750000,21.243750,28.427,0.57852993,-0.00988008,-0.03009767,-0.81504578
'00:08:15.654,0.060547,0.031738,1.002930,0.365854,1.341463,-0.609756,-4.487500,18.356251,21.025000,28.457,0.57852898,-0.00987802,-0.03010368,-0.81504626
'00:08:15.666,0.061035,0.032227,1.002930,0.365854,1.280488,-0.609756,-4.487500,18.356251,21.025000,28.427,0.57852748,-0.00988171,-0.03012049,-0.81504667
'00:08:15.677,0.060547,0.031250,1.001953,0.304878,1.219512,-0.548781,-4.406250,18.300001,20.987501,28.412,0.57853585,-0.00989994,-0.03013177,-0.81504008
'00:08:15.684,0.059570,0.031250,1.002441,0.304878,1.280488,-0.609756,-4.406250,18.300001,20.987501,28.442,0.57853824,-0.00990399,-0.03013358,-0.81503827
'00:08:15.694,0.060547,0.031250,1.002441,0.426829,1.402439,-0.609756,-4.400000,18.343750,20.981251,28.397,0.57854341,-0.00990168,-0.03014432,-0.81503424
'00:08:15.704,0.062012,0.031250,1.003906,0.426829,1.463415,-0.609756,-4.400000,18.343750,20.981251,28.397,0.57854864,-0.00990336,-0.03015733,-0.81503002
'00:08:15.714,0.061523,0.030273,1.001953,0.304878,1.341463,-0.548781,-4.481250,18.387501,21.031250,28.427,0.57855311,-0.00991711,-0.03015468,-0.81502678
'00:08:15.724,0.062988,0.030762,1.002441,0.365854,1.341463,-0.609756,-4.481250,18.387501,21.031250,28.412,0.57855308,-0.00993378,-0.03016535,-0.81502620
'00:08:15.734,0.062012,0.030273,1.001465,0.243902,1.219512,-0.548781,-4.587500,18.468750,21.100000,28.442,0.57855133,-0.00995610,-0.03015980,-0.81502738
'00:08:15.744,0.062012,0.031250,1.002930,0.243902,1.219512,-0.609756,-4.587500,18.468750,21.100000,28.442,0.57854500,-0.00997340,-0.03015957,-0.81503167
'00:08:15.754,0.060547,0.031250,1.002441,0.365854,1.402439,-0.609756,-4.831250,18.843750,21.406250,28.457,0.57852996,-0.00995350,-0.03014173,-0.81504324
'00:08:15.764,0.060547,0.031250,1.001465,0.426829,1.463415,-0.670732,-4.831250,18.843750,21.406250,28.457,0.57851092,-0.00992664,-0.03012602,-0.81505767
'00:08:15.774,0.061035,0.031250,1.002441,0.365854,1.463415,-0.670732,-4.768750,18.831251,21.287500,28.457,0.57849623,-0.00990933,-0.03011281,-0.81506879
'00:08:15.787,0.060547,0.030762,1.004395,0.426829,1.402439,-0.670732,-4.550000,18.568750,21.150000,28.412,0.57848970,-0.00990012,-0.03011292,-0.81507353
'00:08:15.794,0.060547,0.031738,1.003906,0.365854,1.341463,-0.609756,-4.550000,18.568750,21.150000,28.457,0.57848894,-0.00989772,-0.03011635,-0.81507398
'00:08:15.804,0.061523,0.030273,1.002441,0.304878,1.280488,-0.609756,-4.550000,18.568750,21.150000,28.427,0.57848791,-0.00991407,-0.03011588,-0.81507452
'00:08:15.814,0.060547,0.031250,1.004395,0.243902,1.158537,-0.548781,-4.406250,18.281250,20.918751,28.427,0.57849530,-0.00993670,-0.03012372,-0.81506871
'00:08:15.824,0.060547,0.032227,1.001465,0.243902,1.280488,-0.670732,-4.406250,18.281250,20.918751,28.427,0.57849399,-0.00994633,-0.03013256,-0.81506920
'00:08:15.834,0.058594,0.033691,0.999023,0.304878,1.463415,-0.853659,-4.650000,18.637501,21.200001,28.412,0.57846980,-0.00991185,-0.03012595,-0.81508704
'00:08:15.844,0.057129,0.034180,1.000000,0.304878,1.585366,-1.280488,-4.650000,18.637501,21.200001,28.427,0.57841568,-0.00985726,-0.03011015,-0.81512668
'00:08:15.854,0.059570,0.032227,1.003418,0.426829,1.524390,-1.768293,-4.825000,18.881250,21.287500,28.427,0.57832090,-0.00981567,-0.03009603,-0.81519496
'00:08:15.867,0.061035,0.026855,1.006348,0.304878,1.219512,-1.768293,-4.406250,18.206251,20.993750,28.412,0.57821794,-0.00986108,-0.03007487,-0.81526822
'00:08:15.874,0.057129,0.031250,1.005371,0.243902,1.097561,-1.646341,-4.406250,18.206251,20.993750,28.442,0.57816787,-0.00986416,-0.03007251,-0.81530378
'00:08:15.884,0.060547,0.028320,1.006348,0.365854,1.097561,-1.646341,-4.500000,18.418751,21.043751,28.397,0.57809510,-0.00989216,-0.03007172,-0.81535507
'00:08:15.894,0.062012,0.030273,1.002441,0.426829,1.341463,-1.402439,-4.500000,18.418751,21.043751,28.457,0.57803996,-0.00990130,-0.03008268,-0.81539365
'00:08:15.904,0.057617,0.031738,1.001953,0.548781,1.402439,-1.402439,-4.450000,18.262501,20.912500,28.427,0.57798570,-0.00986856,-0.03009049,-0.81543222
'00:08:15.914,0.061035,0.034180,1.004883,0.609756,1.585366,-1.463415,-4.450000,18.262501,20.912500,28.457,0.57792713,-0.00982944,-0.03012158,-0.81547305
'00:08:15.924,0.074219,0.031250,0.997070,0.609756,1.585366,-0.975610,-4.681250,18.625000,21.187500,28.412,0.57789449,-0.00987241,-0.03018075,-0.81549348
'00:08:15.934,0.063477,0.030762,1.001465,0.426829,1.402439,-0.609756,-4.681250,18.625000,21.187500,28.427,0.57788779,-0.00987813,-0.03018625,-0.81549795
'00:08:15.944,0.060059,0.029785,1.003418,0.426829,1.280488,-0.609756,-4.668750,18.637501,21.187500,28.442,0.57788224,-0.00987721,-0.03017812,-0.81550220
'00:08:15.954,0.061035,0.030273,1.006348,0.304878,1.280488,-0.609756,-4.668750,18.637501,21.187500,28.427,0.57787649,-0.00988545,-0.03016722,-0.81550657
'00:08:15.964,0.061035,0.031250,1.005371,0.365854,1.280488,-0.609756,-4.481250,18.343750,20.962500,28.427,0.57787789,-0.00989415,-0.03017586,-0.81550516
'00:08:15.974,0.060547,0.029785,1.002441,0.365854,1.341463,-0.609756,-4.481250,18.343750,20.962500,28.442,0.57787975,-0.00990243,-0.03017160,-0.81550390
'00:08:15.984,0.060059,0.031738,1.000977,0.426829,1.341463,-0.670732,-4.481250,18.218750,20.918751,28.442,0.57787432,-0.00989460,-0.03017945,-0.81550755
'00:08:15.996,0.062012,0.032227,1.000000,0.426829,1.341463,-0.609756,-4.481250,18.218750,20.918751,28.457,0.57787277,-0.00989717,-0.03020269,-0.81550776
'00:08:16.004,0.061035,0.032715,0.999512,0.365854,1.341463,-0.548781,-4.462500,18.281250,20.931250,28.397,0.57787715,-0.00989683,-0.03021595,-0.81550417
'00:08:16.014,0.062012,0.032715,1.001465,0.365854,1.280488,-0.609756,-4.462500,18.281250,20.931250,28.412,0.57787805,-0.00990589,-0.03023861,-0.81550258
'00:08:16.024,0.061523,0.031738,1.004395,0.426829,1.402439,-0.609756,-4.418750,18.275000,20.925001,28.412,0.57788246,-0.00990645,-0.03025319,-0.81549890
'00:08:16.034,0.061523,0.031738,1.004395,0.426829,1.402439,-0.609756,-4.418750,18.275000,20.925001,28.412,0.57788684,-0.00990696,-0.03026749,-0.81549527
'00:08:16.044,0.060547,0.031250,1.002930,0.426829,1.402439,-0.548781,-4.750000,18.718750,21.162500,28.457,0.57788184,-0.00988972,-0.03025841,-0.81549936
'00:08:16.054,0.060059,0.029297,1.003906,0.304878,1.402439,-0.609756,-4.750000,18.718750,21.162500,28.427,0.57787293,-0.00988392,-0.03022695,-0.81550691
'00:08:16.064,0.059570,0.030273,1.003906,0.304878,1.402439,-0.670732,-4.718750,18.656250,21.281250,28.397,0.57785982,-0.00987251,-0.03020029,-0.81551732
'00:08:16.074,0.060547,0.029785,1.004883,0.304878,1.402439,-0.792683,-4.718750,18.656250,21.281250,28.427,0.57783825,-0.00986861,-0.03017505,-0.81553359
'00:08:16.084,0.062012,0.031250,1.002441,0.426829,1.402439,-0.731707,-4.450000,18.212500,20.893751,28.412,0.57783100,-0.00987221,-0.03018715,-0.81553823
'00:08:16.094,0.061523,0.032227,1.000977,0.365854,1.280488,-0.670732,-4.450000,18.212500,20.893751,28.427,0.57782749,-0.00988088,-0.03020535,-0.81553994
'00:08:16.104,0.060547,0.032227,1.000977,0.304878,1.280488,-0.670732,-4.375000,18.193750,20.950001,28.442,0.57782848,-0.00989146,-0.03022037,-0.81553855
'00:08:16.114,0.060059,0.031250,1.003418,0.243902,1.280488,-0.670732,-4.375000,18.193750,20.950001,28.382,0.57782967,-0.00990571,-0.03022157,-0.81553750
'00:08:16.124,0.059082,0.031250,1.003906,0.365854,1.402439,-0.670732,-4.487500,18.300001,20.956251,28.412,0.57782578,-0.00989307,-0.03021415,-0.81554068
'00:08:16.134,0.059082,0.031738,1.002441,0.365854,1.402439,-0.975610,-4.887500,18.806250,21.300001,28.442,0.57778297,-0.00986112,-0.03019048,-0.81557227
'00:08:16.144,0.050293,0.033691,1.004395,0.487805,1.524390,-1.524390,-4.887500,18.806250,21.300001,28.397,0.57770148,-0.00975371,-0.03014454,-0.81563299
'00:08:16.154,0.047363,0.028809,1.002930,0.548781,1.219512,-1.951220,-4.825000,18.731251,21.193750,28.457,0.57759347,-0.00967166,-0.03008249,-0.81571275
'00:08:16.164,0.034668,0.031738,1.005859,0.548781,1.463415,-2.682927,-4.825000,18.731251,21.193750,28.442,0.57743395,-0.00948397,-0.02997331,-0.81583190
'00:08:16.174,0.049805,0.030273,0.994141,0.792683,1.646341,-3.048780,-4.512500,18.200001,20.850000,28.457,0.57726146,-0.00938205,-0.02994684,-0.81595611
'00:08:16.184,0.064941,0.027344,0.993652,0.670732,1.646341,-2.500000,-4.512500,18.200001,20.850000,28.397,0.57712877,-0.00939320,-0.02995983,-0.81604936
'00:08:16.194,0.082520,0.040039,1.002930,0.182927,1.097561,-1.951220,-4.506250,18.250000,20.775000,28.442,0.57703136,-0.00951109,-0.03010624,-0.81611149
'00:08:16.204,0.081543,0.026367,1.000000,0.304878,1.585366,-1.280488,-4.506250,18.250000,20.775000,28.457,0.57698603,-0.00964042,-0.03015311,-0.81614029
'00:08:16.214,0.062012,0.031250,1.003418,0.426829,1.463415,-0.670732,-4.512500,18.212500,20.881250,28.457,0.57698227,-0.00964202,-0.03016052,-0.81614265
'00:08:16.224,0.062012,0.030762,1.003906,0.365854,1.341463,-0.609756,-4.512500,18.212500,20.881250,28.427,0.57698260,-0.00965748,-0.03016639,-0.81614202
'00:08:16.234,0.060547,0.030762,1.002441,0.304878,1.280488,-0.609756,-4.856250,18.675001,21.243750,28.397,0.57696827,-0.00965722,-0.03014820,-0.81615283
'00:08:16.244,0.060547,0.030762,1.003418,0.304878,1.219512,-0.609756,-4.856250,18.675001,21.243750,28.427,0.57695387,-0.00966117,-0.03013303,-0.81616352
'00:08:16.254,0.060547,0.032227,1.001465,0.304878,1.219512,-0.609756,-4.762500,18.618750,21.131250,28.457,0.57694457,-0.00966411,-0.03013390,-0.81617003
'00:08:16.264,0.061035,0.032715,1.000488,0.304878,1.280488,-0.548781,-4.762500,18.618750,21.131250,28.427,0.57693965,-0.00966384,-0.03013700,-0.81617340
'00:08:16.274,0.060059,0.033691,1.000488,0.304878,1.341463,-0.609756,-4.487500,18.218750,20.856251,28.442,0.57694138,-0.00966045,-0.03015238,-0.81617164
'00:08:16.284,0.060059,0.030273,1.002441,0.426829,1.402439,-0.609756,-4.487500,18.218750,20.856251,28.442,0.57694419,-0.00966093,-0.03015147,-0.81616969
'00:08:16.297,0.061523,0.030273,1.004395,0.426829,1.463415,-0.548781,-4.475000,18.156250,20.906250,28.427,0.57695267,-0.00966698,-0.03015238,-0.81616359
'00:08:16.304,0.060547,0.029785,1.005859,0.426829,1.402439,-0.609756,-4.475000,18.156250,20.906250,28.427,0.57695418,-0.00967027,-0.03014959,-0.81616258
'00:08:16.314,0.060059,0.030762,1.004883,0.365854,1.341463,-0.609756,-4.512500,18.237501,20.837500,28.412,0.57695539,-0.00967389,-0.03014777,-0.81616175
'00:08:16.324,0.060059,0.032227,1.002930,0.365854,1.280488,-0.548781,-4.512500,18.237501,20.837500,28.457,0.57696041,-0.00967610,-0.03015869,-0.81615777
'00:08:16.334,0.061523,0.032227,1.001465,0.304878,1.219512,-0.548781,-4.493750,18.181250,20.843750,28.412,0.57696512,-0.00969509,-0.03017516,-0.81615361
'00:08:16.344,0.060547,0.032227,1.000488,0.304878,1.280488,-0.609756,-4.493750,18.181250,20.843750,28.442,0.57696561,-0.00970366,-0.03018460,-0.81615281
'00:08:16.354,0.059082,0.031738,1.000488,0.365854,1.341463,-0.548781,-4.781250,18.618750,21.131250,28.472,0.57695971,-0.00968681,-0.03017261,-0.81615763
'00:08:16.364,0.061035,0.031250,1.002930,0.426829,1.402439,-0.609756,-4.781250,18.618750,21.131250,28.397,0.57694984,-0.00967556,-0.03016635,-0.81616497
'00:08:16.374,0.059570,0.030762,1.003906,0.426829,1.463415,-0.609756,-4.862500,18.737501,21.187500,28.397,0.57693736,-0.00965037,-0.03014429,-0.81617491
'00:08:16.384,0.060547,0.032227,1.004883,0.365854,1.341463,-0.609756,-4.806250,18.675001,21.200001,28.427,0.57692656,-0.00963927,-0.03013947,-0.81618285
'00:08:16.398,0.061035,0.031250,1.003418,0.365854,1.280488,-0.609756,-4.806250,18.675001,21.200001,28.442,0.57691160,-0.00964022,-0.03013286,-0.81619366
'00:08:16.406,0.060059,0.031738,1.001465,0.243902,1.280488,-0.609756,-4.618750,18.362501,20.912500,28.427,0.57690846,-0.00964533,-0.03012860,-0.81619597
'00:08:16.414,0.060547,0.031250,1.000488,0.304878,1.341463,-0.609756,-4.618750,18.362501,20.912500,28.427,0.57690556,-0.00964857,-0.03012504,-0.81619811
'00:08:16.424,0.061035,0.030762,1.001465,0.426829,1.402439,-0.609756,-4.462500,18.156250,20.800001,28.427,0.57690899,-0.00965398,-0.03013303,-0.81619533
'00:08:16.434,0.060547,0.030762,1.000977,0.304878,1.341463,-0.609756,-4.462500,18.156250,20.800001,28.442,0.57691213,-0.00966697,-0.03013340,-0.81619294
'00:08:16.444,0.061523,0.031738,1.004883,0.365854,1.341463,-0.548781,-4.900000,18.775000,21.187500,28.412,0.57690193,-0.00965920,-0.03012515,-0.81620055
'00:08:16.456,0.061035,0.031250,1.004883,0.365854,1.341463,-0.548781,-4.900000,18.775000,21.187500,28.457,0.57688991,-0.00964916,-0.03010969,-0.81620973
'00:08:16.464,0.061035,0.032227,1.002930,0.365854,1.341463,-0.609756,-4.662500,18.456251,21.068750,28.457,0.57688570,-0.00964759,-0.03011398,-0.81621257
'00:08:16.474,0.061035,0.030762,1.002930,0.365854,1.341463,-0.548781,-4.662500,18.456251,21.068750,28.412,0.57688512,-0.00965204,-0.03011047,-0.81621306
'00:08:16.484,0.060059,0.031250,1.001465,0.365854,1.402439,-0.609756,-4.550000,18.237501,20.868750,28.427,0.57688397,-0.00964823,-0.03010790,-0.81621401
'00:08:16.494,0.059570,0.031250,1.000488,0.426829,1.402439,-0.548781,-4.550000,18.237501,20.868750,28.442,0.57688724,-0.00963892,-0.03010804,-0.81621181
'00:08:16.504,0.060547,0.031250,1.002441,0.426829,1.402439,-0.548781,-4.456250,18.193750,20.843750,28.382,0.57689610,-0.00964055,-0.03011810,-0.81620515
'00:08:16.514,0.060547,0.031250,1.003418,0.365854,1.341463,-0.609756,-4.456250,18.193750,20.843750,28.457,0.57690037,-0.00964913,-0.03012629,-0.81620173
'00:08:16.524,0.060547,0.030273,1.004395,0.304878,1.280488,-0.548781,-4.525000,18.231251,20.875000,28.442,0.57690490,-0.00966515,-0.03012185,-0.81619850
'00:08:16.534,0.062012,0.030762,1.003906,0.304878,1.341463,-0.609756,-4.525000,18.231251,20.875000,28.457,0.57690503,-0.00968302,-0.03012374,-0.81619813
'00:08:16.544,0.061523,0.032227,1.001465,0.304878,1.280488,-0.548781,-4.625000,18.418751,20.993750,28.427,0.57690574,-0.00969286,-0.03013241,-0.81619719
'00:08:16.554,0.061035,0.031250,1.000488,0.365854,1.341463,-0.609756,-4.625000,18.418751,20.993750,28.412,0.57690252,-0.00969648,-0.03013478,-0.81619933
'00:08:16.564,0.061523,0.030762,1.001465,0.365854,1.402439,-0.609756,-4.875000,18.762501,21.200001,28.412,0.57688961,-0.00968992,-0.03012080,-0.81620906
'00:08:16.574,0.059570,0.030762,1.002441,0.426829,1.402439,-0.609756,-4.875000,18.762501,21.200001,28.427,0.57687687,-0.00966904,-0.03010301,-0.81621896
'00:08:16.585,0.060547,0.030273,1.003906,0.365854,1.341463,-0.609756,-4.475000,18.175001,20.837500,28.442,0.57688001,-0.00968092,-0.03010343,-0.81621658
'00:08:16.594,0.061035,0.030762,1.004395,0.304878,1.341463,-0.548781,-4.475000,18.175001,20.837500,28.427,0.57688629,-0.00969397,-0.03010411,-0.81621197
'00:08:16.604,0.061035,0.032227,1.001465,0.365854,1.341463,-0.609756,-4.512500,18.250000,20.837500,28.382,0.57688761,-0.00969789,-0.03011804,-0.81621047
'00:08:16.614,0.060547,0.032227,1.001953,0.365854,1.280488,-0.609756,-4.512500,18.250000,20.837500,28.412,0.57688876,-0.00970308,-0.03013251,-0.81620906
'00:08:16.624,0.060059,0.031738,1.002930,0.304878,1.280488,-0.609756,-4.443750,18.137501,20.762501,28.427,0.57689258,-0.00971302,-0.03014014,-0.81620596
'00:08:16.634,0.060547,0.030762,1.001465,0.304878,1.280488,-0.548781,-4.443750,18.137501,20.762501,28.427,0.57690089,-0.00973035,-0.03014433,-0.81619973
'00:08:16.644,0.060059,0.032227,1.002441,0.426829,1.402439,-0.609756,-4.650000,18.350000,20.987501,28.442,0.57689447,-0.00971314,-0.03014504,-0.81620445
'00:08:16.654,0.060059,0.030273,1.004395,0.426829,1.463415,-0.548781,-4.737500,18.593750,21.100000,28.442,0.57689205,-0.00969795,-0.03012874,-0.81620694
'00:08:16.664,0.054688,0.031738,1.002930,0.304878,1.463415,-0.792683,-4.737500,18.593750,21.100000,28.412,0.57687203,-0.00965122,-0.03009118,-0.81622303
'00:08:16.677,0.044434,0.041016,1.004883,0.121951,1.280488,-2.073171,-4.712500,18.587500,21.031250,28.382,0.57672672,-0.00948716,-0.03005736,-0.81632888
'00:08:16.684,0.056641,0.034668,1.001465,-0.121951,0.975610,-3.414634,-4.712500,18.587500,21.031250,28.412,0.57658240,-0.00949232,-0.03004985,-0.81643104
'00:08:16.694,0.058105,0.035645,1.001465,0.121951,1.036585,-3.902439,-4.537500,18.168751,20.800001,28.427,0.57634576,-0.00949114,-0.03007146,-0.81659732
'00:08:16.704,0.043945,0.029297,0.999023,0.243902,0.975610,-3.109756,-4.537500,18.168751,20.800001,28.427,0.57616802,-0.00943300,-0.03000605,-0.81672582
'00:08:16.715,0.057129,0.034180,1.004883,0.121951,1.097561,-3.902439,-4.518750,18.106251,20.781250,28.412,0.57590999,-0.00942966,-0.03001325,-0.81690756
'00:08:16.724,0.065918,0.021973,1.010254,0.487805,1.402439,-2.804878,-4.518750,18.106251,20.781250,28.412,0.57577302,-0.00948560,-0.02999372,-0.81700418
'00:08:16.734,0.056152,0.023438,1.006348,0.670732,1.646341,-2.560976,-4.537500,18.087500,20.731251,28.397,0.57563798,-0.00945805,-0.02994063,-0.81710159
'00:08:16.744,0.071289,0.035156,1.003418,-0.609756,0.243902,-2.134146,-4.537500,18.087500,20.731251,28.412,0.57552572,-0.00963529,-0.03000207,-0.81717635
'00:08:16.754,0.083008,0.027832,1.000977,-0.304878,0.609756,-1.707317,-5.056250,18.856251,21.225000,28.457,0.57542699,-0.00983979,-0.03004413,-0.81724189
'00:08:16.765,0.083008,0.027832,1.000977,-0.304878,0.609756,-1.707317,-5.056250,18.856251,21.225000,28.457,0.57531819,-0.01006168,-0.03008963,-0.81731411
'00:08:16.774,0.082031,0.032227,0.999023,0.060976,0.914634,-0.975610,-4.787500,18.443750,20.993750,28.412,0.57528420,-0.01019722,-0.03016654,-0.81733352
'00:08:16.784,0.063477,0.035645,1.001465,0.365854,1.280488,-0.609756,-4.787500,18.443750,20.993750,28.457,0.57527353,-0.01018784,-0.03019962,-0.81733993
'00:08:16.794,0.062500,0.031250,1.001465,0.426829,1.402439,-0.548781,-4.568750,18.056250,20.706251,28.442,0.57527602,-0.01018769,-0.03020948,-0.81733781
'00:08:16.804,0.062500,0.031250,1.001465,0.426829,1.402439,-0.548781,-4.568750,18.056250,20.706251,28.442,0.57527848,-0.01018751,-0.03021916,-0.81733573
'00:08:16.815,0.061523,0.028320,1.005371,0.365854,1.341463,-0.609756,-4.575000,18.056250,20.750000,28.412,0.57527630,-0.01020131,-0.03020175,-0.81733773
'00:08:16.824,0.061523,0.028320,1.005371,0.365854,1.341463,-0.609756,-4.575000,18.056250,20.750000,28.412,0.57527454,-0.01021244,-0.03018776,-0.81733935
'00:08:16.834,0.061035,0.029785,1.006836,0.365854,1.280488,-0.548781,-4.506250,18.025000,20.731251,28.442,0.57528060,-0.01022377,-0.03018645,-0.81733499
'00:08:16.844,0.062012,0.030762,1.000488,0.487805,1.463415,-0.548781,-4.506250,18.025000,20.731251,28.397,0.57528687,-0.01021881,-0.03019747,-0.81733023
'00:08:16.854,0.061035,0.031738,1.000000,0.304878,1.280488,-0.548781,-4.912500,18.593750,21.056250,28.427,0.57527619,-0.01020949,-0.03018690,-0.81733825
'00:08:16.864,0.061035,0.032227,1.000977,0.304878,1.280488,-0.609756,-4.912500,18.593750,21.056250,28.412,0.57526113,-0.01019797,-0.03017906,-0.81734929
'00:08:16.874,0.060547,0.031738,1.002930,0.304878,1.341463,-0.548781,-4.843750,18.593750,21.100000,28.397,0.57525511,-0.01018544,-0.03016769,-0.81735410
'00:08:16.884,0.061035,0.030273,1.002930,0.365854,1.402439,-0.609756,-4.843750,18.593750,21.100000,28.412,0.57524534,-0.01017449,-0.03015128,-0.81736172
'00:08:16.894,0.061523,0.030273,1.003418,0.365854,1.341463,-0.609756,-4.562500,18.075001,20.700001,28.457,0.57524465,-0.01018059,-0.03015104,-0.81736214
'00:08:16.904,0.062500,0.031250,1.004883,0.365854,1.341463,-0.609756,-4.562500,18.075001,20.700001,28.442,0.57524369,-0.01018782,-0.03016008,-0.81736239
'00:08:16.914,0.061523,0.030762,1.003418,0.365854,1.280488,-0.609756,-4.550000,18.031250,20.718750,28.457,0.57524248,-0.01019624,-0.03016557,-0.81736293
'00:08:16.924,0.061523,0.032227,1.000977,0.304878,1.280488,-0.548781,-4.543750,18.112501,20.681250,28.457,0.57524758,-0.01020343,-0.03017900,-0.81735876
'00:08:16.934,0.061035,0.032715,1.000488,0.304878,1.341463,-0.609756,-4.543750,18.112501,20.681250,28.412,0.57524834,-0.01020112,-0.03019029,-0.81735784
'00:08:16.944,0.061035,0.031250,1.001953,0.365854,1.341463,-0.609756,-4.768750,18.362501,20.850000,28.472,0.57523906,-0.01019133,-0.03018382,-0.81736473
'00:08:16.954,0.061523,0.030762,1.003906,0.426829,1.341463,-0.609756,-4.768750,18.362501,20.850000,28.457,0.57523001,-0.01018310,-0.03018014,-0.81737134
'00:08:16.964,0.062500,0.030762,1.003906,0.304878,1.341463,-0.609756,-4.831250,18.481251,20.981251,28.442,0.57521880,-0.01018483,-0.03016946,-0.81737960
'00:08:16.974,0.061035,0.031738,1.003418,0.365854,1.341463,-0.609756,-4.831250,18.481251,20.981251,28.442,0.57520751,-0.01017115,-0.03016331,-0.81738794
'00:08:16.984,0.061035,0.031250,1.002930,0.304878,1.341463,-0.609756,-4.906250,18.637501,21.112501,28.427,0.57519431,-0.01016082,-0.03014788,-0.81739792
'00:08:16.994,0.061035,0.030762,1.001953,0.304878,1.280488,-0.609756,-4.906250,18.637501,21.112501,28.442,0.57518115,-0.01015731,-0.03013339,-0.81740777
'00:08:17.004,0.061523,0.032227,1.000977,0.365854,1.341463,-0.548781,-4.937500,18.693750,21.150000,28.457,0.57517130,-0.01014262,-0.03013028,-0.81741499
'00:08:17.016,0.061035,0.031250,1.000488,0.365854,1.341463,-0.609756,-4.937500,18.693750,21.150000,28.367,0.57515463,-0.01012674,-0.03011777,-0.81742738
'00:08:17.024,0.061523,0.032227,1.002441,0.304878,1.280488,-0.609756,-4.600000,18.156250,20.718750,28.427,0.57515321,-0.01013097,-0.03012615,-0.81742802
'00:08:17.034,0.061523,0.030762,1.004395,0.304878,1.341463,-0.609756,-4.600000,18.156250,20.718750,28.427,0.57515194,-0.01013760,-0.03012378,-0.81742891
'00:08:17.044,0.061035,0.029785,1.006348,0.304878,1.341463,-0.609756,-4.656250,18.168751,20.750000,28.397,0.57514724,-0.01014161,-0.03010848,-0.81743274
'00:08:17.054,0.062012,0.030762,1.005371,0.304878,1.280488,-0.609756,-4.656250,18.168751,20.750000,28.427,0.57514214,-0.01015174,-0.03010679,-0.81743626
'00:08:17.064,0.061523,0.031738,1.000977,0.426829,1.341463,-0.548781,-4.868750,18.575001,20.987501,28.457,0.57513520,-0.01013843,-0.03010870,-0.81744124
'00:08:17.077,0.061035,0.031250,1.000000,0.365854,1.341463,-0.548781,-4.868750,18.575001,20.987501,28.427,0.57512632,-0.01012467,-0.03009981,-0.81744799
'00:08:17.084,0.061523,0.030762,0.999023,0.365854,1.341463,-0.609756,-4.875000,18.456251,20.962500,28.427,0.57511657,-0.01011946,-0.03009264,-0.81745518
'00:08:17.094,0.060547,0.031738,1.000000,0.365854,1.402439,-0.548781,-4.875000,18.456251,20.962500,28.442,0.57510701,-0.01009803,-0.03008076,-0.81746260
'00:08:17.104,0.060059,0.031250,1.002930,0.365854,1.402439,-0.609756,-4.525000,17.993750,20.693750,28.457,0.57510784,-0.01009024,-0.03008044,-0.81746213
'00:08:17.115,0.060547,0.030273,1.004883,0.426829,1.402439,-0.609756,-4.525000,17.993750,20.693750,28.427,0.57510908,-0.01008573,-0.03007969,-0.81746134
'00:08:17.124,0.060547,0.030273,1.005859,0.365854,1.341463,-0.609756,-4.568750,18.118750,20.662500,28.442,0.57510982,-0.01008746,-0.03007718,-0.81746089
'00:08:17.134,0.062012,0.029785,1.004395,0.304878,1.219512,-0.548781,-4.568750,18.118750,20.662500,28.427,0.57511465,-0.01011220,-0.03007994,-0.81745708
'00:08:17.144,0.061523,0.031250,1.002930,0.243902,1.219512,-0.609756,-4.531250,18.062500,20.681250,28.442,0.57511593,-0.01013245,-0.03008736,-0.81745566
'00:08:17.154,0.061523,0.031738,1.000000,0.243902,1.158537,-0.548781,-4.531250,18.062500,20.681250,28.397,0.57512119,-0.01015543,-0.03010187,-0.81745114
'00:08:17.164,0.060547,0.032715,1.000977,0.304878,1.280488,-0.609756,-4.681250,18.300001,20.868750,28.442,0.57511643,-0.01015010,-0.03010866,-0.81745430
'00:08:17.174,0.061035,0.032227,1.000000,0.426829,1.402439,-0.548781,-4.887500,18.543751,20.981251,28.412,0.57510774,-0.01012639,-0.03010674,-0.81746078
'00:08:17.184,0.060547,0.032227,1.002441,0.426829,1.402439,-0.609756,-4.887500,18.543751,20.981251,28.457,0.57509481,-0.01009959,-0.03010191,-0.81747038
'00:08:17.194,0.061523,0.031738,1.003906,0.426829,1.402439,-0.670732,-4.550000,18.100000,20.712500,28.412,0.57509173,-0.01009475,-0.03011474,-0.81747214
'00:08:17.204,0.062500,0.030273,1.004883,0.365854,1.341463,-0.548781,-4.550000,18.100000,20.712500,28.427,0.57509744,-0.01010941,-0.03012078,-0.81746772
'00:08:17.214,0.062012,0.029785,1.004883,0.365854,1.341463,-0.548781,-4.550000,18.100000,20.637501,28.397,0.57510354,-0.01012280,-0.03012194,-0.81746322
'00:08:17.224,0.062012,0.030273,1.004395,0.365854,1.402439,-0.609756,-4.550000,18.100000,20.637501,28.472,0.57510529,-0.01012949,-0.03012316,-0.81746186
'00:08:17.235,0.061523,0.030273,1.001465,0.426829,1.341463,-0.609756,-4.581250,18.043751,20.718750,28.427,0.57510294,-0.01013295,-0.03012725,-0.81746332
'00:08:17.244,0.061035,0.031738,1.000488,0.365854,1.402439,-0.609756,-4.581250,18.043751,20.718750,28.457,0.57510080,-0.01012656,-0.03013038,-0.81746479
'00:08:17.254,0.060059,0.031738,1.000488,0.365854,1.341463,-0.609756,-4.712500,18.293751,20.800001,28.412,0.57509461,-0.01011354,-0.03012804,-0.81746939
'00:08:17.264,0.061035,0.032227,1.001953,0.365854,1.341463,-0.609756,-4.712500,18.293751,20.800001,28.457,0.57508833,-0.01010407,-0.03013208,-0.81747378
'00:08:17.275,0.059570,0.032227,1.003418,0.365854,1.280488,-0.609756,-4.906250,18.593750,21.068750,28.427,0.57507326,-0.01008119,-0.03012293,-0.81748500
'00:08:17.284,0.060059,0.031250,1.003906,0.304878,1.280488,-0.609756,-4.906250,18.593750,21.068750,28.412,0.57506117,-0.01007167,-0.03010822,-0.81749416
'00:08:17.294,0.061035,0.030762,1.003418,0.365854,1.402439,-0.609756,-4.881250,18.531250,21.012501,28.457,0.57504877,-0.01005784,-0.03009236,-0.81750364
'00:08:17.304,0.061035,0.029785,1.002930,0.365854,1.402439,-0.609756,-4.881250,18.531250,21.012501,28.457,0.57503669,-0.01004844,-0.03007132,-0.81751303
'00:08:17.314,0.062500,0.030762,1.002930,0.426829,1.402439,-0.609756,-4.525000,18.093750,20.706251,28.457,0.57504009,-0.01005647,-0.03008546,-0.81751002
'00:08:17.324,0.062012,0.030762,1.000977,0.487805,1.402439,-0.548781,-4.525000,18.093750,20.706251,28.427,0.57504784,-0.01005903,-0.03010245,-0.81750391
'00:08:17.334,0.061035,0.031738,1.001465,0.365854,1.280488,-0.609756,-4.575000,18.112501,20.668751,28.442,0.57504770,-0.01006305,-0.03011466,-0.81750350
'00:08:17.344,0.061523,0.031738,1.001953,0.304878,1.280488,-0.609756,-4.575000,18.112501,20.668751,28.427,0.57504747,-0.01007279,-0.03012411,-0.81750320
'00:08:17.355,0.061035,0.031250,1.001953,0.304878,1.280488,-0.609756,-4.575000,18.093750,20.706251,28.442,0.57504668,-0.01008227,-0.03012824,-0.81750349
'00:08:17.365,0.062012,0.030762,1.002441,0.365854,1.341463,-0.548781,-4.575000,18.093750,20.706251,28.457,0.57505058,-0.01009117,-0.03013406,-0.81750042
'00:08:17.374,0.060547,0.031250,1.004883,0.365854,1.402439,-0.609756,-5.006250,18.787500,21.137501,28.472,0.57503657,-0.01007054,-0.03011628,-0.81751119
'00:08:17.384,0.062012,0.030762,1.003906,0.365854,1.341463,-0.609756,-5.006250,18.787500,21.137501,28.427,0.57502103,-0.01006287,-0.03010346,-0.81752268
'00:08:17.395,0.061035,0.031250,1.001953,0.365854,1.341463,-0.609756,-4.787500,18.450001,21.018751,28.457,0.57501206,-0.01005592,-0.03009927,-0.81752923
'00:08:17.404,0.060547,0.031738,1.000488,0.304878,1.341463,-0.609756,-4.787500,18.450001,21.018751,28.457,0.57500462,-0.01004900,-0.03009341,-0.81753477
'00:08:17.414,0.060059,0.031250,1.001465,0.365854,1.402439,-0.548781,-4.575000,18.093750,20.675001,28.457,0.57500904,-0.01004090,-0.03009231,-0.81753180
'00:08:17.424,0.061035,0.030273,1.001953,0.365854,1.341463,-0.609756,-4.575000,18.093750,20.675001,28.457,0.57500914,-0.01004688,-0.03009233,-0.81753165
'00:08:17.435,0.062012,0.029785,1.004395,0.304878,1.341463,-0.609756,-4.512500,18.018751,20.631250,28.412,0.57501241,-0.01006794,-0.03009137,-0.81752913
'00:08:17.444,0.062500,0.030762,1.005859,0.365854,1.341463,-0.548781,-4.581250,18.106251,20.693750,28.457,0.57501603,-0.01007792,-0.03009764,-0.81752623
'00:08:17.454,0.062012,0.031250,1.004883,0.365854,1.402439,-0.609756,-4.581250,18.106251,20.693750,28.442,0.57501572,-0.01007963,-0.03010279,-0.81752624
'00:08:17.464,0.061035,0.030273,1.004395,0.426829,1.341463,-0.609756,-4.950000,18.643751,21.118750,28.427,0.57500102,-0.01006655,-0.03008843,-0.81753726
'00:08:17.476,0.062012,0.031738,1.000977,0.426829,1.341463,-0.609756,-4.950000,18.643751,21.118750,28.382,0.57498305,-0.01005156,-0.03008839,-0.81755009
'00:08:17.485,0.062012,0.031738,1.000488,0.304878,1.341463,-0.609756,-4.793750,18.406250,20.906250,28.442,0.57497486,-0.01005137,-0.03008715,-0.81755590
'00:08:17.494,0.060059,0.032227,1.000977,0.304878,1.280488,-0.609756,-4.793750,18.406250,20.906250,28.397,0.57496650,-0.01004300,-0.03008389,-0.81756200
'00:08:17.504,0.060547,0.030762,1.002441,0.304878,1.219512,-0.609756,-4.631250,18.068750,20.662500,28.427,0.57496193,-0.01005183,-0.03008159,-0.81756519
'00:08:17.515,0.060059,0.031250,1.003906,0.426829,1.341463,-0.609756,-4.631250,18.068750,20.662500,28.472,0.57495728,-0.01003936,-0.03008221,-0.81756859
'00:08:17.524,0.060059,0.031250,1.003906,0.426829,1.341463,-0.609756,-4.575000,18.056250,20.662500,28.472,0.57495674,-0.01003241,-0.03008655,-0.81756890
'00:08:17.534,0.061035,0.030762,1.004883,0.365854,1.341463,-0.548781,-4.575000,18.056250,20.662500,28.427,0.57496051,-0.01003560,-0.03008762,-0.81756616
'00:08:17.544,0.060547,0.031738,1.004883,0.304878,1.341463,-0.548781,-4.562500,18.081251,20.693750,28.427,0.57496530,-0.01003598,-0.03008965,-0.81756272
'00:08:17.556,0.061523,0.031250,0.998535,0.365854,1.402439,-0.609756,-4.562500,18.081251,20.693750,28.427,0.57496606,-0.01003844,-0.03009838,-0.81756183
'00:08:17.564,0.061523,0.031250,0.998535,0.365854,1.402439,-0.609756,-4.981250,18.643751,21.025000,28.427,0.57495305,-0.01002603,-0.03008776,-0.81757152
'00:08:17.574,0.061523,0.031738,1.000488,0.365854,1.280488,-0.609756,-4.981250,18.643751,21.025000,28.442,0.57493646,-0.01001703,-0.03008286,-0.81758348
'00:08:17.584,0.062012,0.030762,1.003418,0.304878,1.280488,-0.548781,-4.862500,18.543751,20.993750,28.457,0.57493014,-0.01002326,-0.03007546,-0.81758812
'00:08:17.595,0.062500,0.030273,1.005371,0.365854,1.280488,-0.609756,-4.862500,18.543751,20.993750,28.427,0.57491861,-0.01003129,-0.03007042,-0.81759632
'00:08:17.604,0.061035,0.029297,1.005371,0.365854,1.341463,-0.548781,-4.818750,18.481251,20.993750,28.457,0.57491486,-0.01003176,-0.03005471,-0.81759953
'00:08:17.614,0.060547,0.031250,1.003906,0.365854,1.402439,-0.609756,-4.818750,18.481251,20.993750,28.457,0.57490610,-0.01001722,-0.03004467,-0.81760623
'00:08:17.627,0.060059,0.032227,0.999512,0.365854,1.341463,-0.548781,-5.537500,19.531250,21.681250,28.472,0.57486732,-0.00996501,-0.03000471,-0.81763560
'00:08:17.636,0.060059,0.032227,1.000000,0.365854,1.341463,-0.609756,-5.537500,19.531250,21.681250,28.427,0.57483681,-0.00992949,-0.02997768,-0.81765848
'00:08:17.644,0.060059,0.032227,1.000000,0.365854,1.341463,-0.609756,-4.550000,18.150000,20.681250,28.427,0.57483970,-0.00992735,-0.02998947,-0.81765604
'00:08:17.654,0.060059,0.030762,1.001465,0.304878,1.280488,-0.609756,-4.550000,18.150000,20.681250,28.427,0.57484344,-0.00993800,-0.02999324,-0.81765314
'00:08:17.664,0.061523,0.030273,1.004883,0.304878,1.219512,-0.548781,-4.550000,18.075001,20.625000,28.412,0.57484997,-0.00996170,-0.02999997,-0.81764802
'00:08:17.675,0.061035,0.030762,1.005859,0.365854,1.280488,-0.548781,-4.550000,18.075001,20.625000,28.427,0.57485721,-0.00997351,-0.03000912,-0.81764245
'00:08:17.684,0.062012,0.030273,1.004395,0.365854,1.402439,-0.609756,-4.875000,18.618750,20.950001,28.427,0.57484936,-0.00997106,-0.03000028,-0.81764832
'00:08:17.694,0.060547,0.032227,1.001465,0.426829,1.402439,-0.609756,-4.875000,18.618750,20.950001,28.397,0.57484032,-0.00994962,-0.03000170,-0.81765488
'00:08:17.704,0.061035,0.032227,1.000488,0.426829,1.402439,-0.670732,-4.662500,18.237501,20.850000,28.442,0.57483318,-0.00993904,-0.03001369,-0.81765959
'00:08:17.717,0.061523,0.031738,1.000977,0.365854,1.341463,-0.548781,-4.512500,18.062500,20.656250,28.457,0.57484449,-0.00995069,-0.03003692,-0.81765065
'00:08:17.724,0.062012,0.031250,1.000977,0.365854,1.402439,-0.609756,-4.512500,18.062500,20.656250,28.457,0.57484763,-0.00995708,-0.03004636,-0.81764801
'00:08:17.734,0.061035,0.031738,1.003418,0.304878,1.341463,-0.609756,-4.537500,18.125000,20.743750,28.472,0.57485112,-0.00996455,-0.03005535,-0.81764514
'00:08:17.744,0.062012,0.030273,1.005859,0.304878,1.280488,-0.609756,-4.537500,18.125000,20.743750,28.457,0.57485472,-0.00998761,-0.03006137,-0.81764211
'00:08:17.756,0.062012,0.029785,1.005859,0.365854,1.280488,-0.609756,-4.518750,18.056250,20.643751,28.457,0.57485940,-0.01001367,-0.03007031,-0.81763817
'00:08:17.764,0.062012,0.031250,1.001465,0.365854,1.280488,-0.609756,-4.518750,18.056250,20.643751,28.457,0.57486214,-0.01002651,-0.03008471,-0.81763555
'00:08:17.774,0.060547,0.031250,0.999023,0.426829,1.341463,-0.609756,-4.756250,18.331251,20.950001,28.427,0.57485439,-0.01001622,-0.03008529,-0.81764111
'00:08:17.784,0.061035,0.032715,0.999023,0.365854,1.402439,-0.609756,-4.756250,18.331251,20.950001,28.427,0.57484643,-0.01000150,-0.03008928,-0.81764674
'00:08:17.794,0.062500,0.032227,1.001465,0.365854,1.463415,-0.609756,-4.818750,18.368750,20.887501,28.457,0.57483570,-0.00998924,-0.03008836,-0.81765446
'00:08:17.805,0.061035,0.031250,1.003418,0.304878,1.341463,-0.609756,-4.818750,18.368750,20.887501,28.427,0.57482387,-0.00998363,-0.03007551,-0.81766332
'00:08:17.814,0.060547,0.030273,1.006348,0.365854,1.341463,-0.609756,-4.593750,18.000000,20.712500,28.472,0.57482149,-0.00998479,-0.03006942,-0.81766521
'00:08:17.824,0.061035,0.030273,1.006348,0.365854,1.280488,-0.609756,-4.593750,18.000000,20.712500,28.427,0.57481868,-0.00999329,-0.03006787,-0.81766713
'00:08:17.836,0.061035,0.031738,1.003906,0.304878,1.280488,-0.609756,-4.556250,18.068750,20.662500,28.427,0.57482001,-0.01000408,-0.03007848,-0.81766567
'00:08:17.844,0.061035,0.031250,1.003906,0.365854,1.280488,-0.548781,-4.556250,18.068750,20.662500,28.427,0.57482448,-0.01001046,-0.03008648,-0.81766216
'00:08:17.854,0.061035,0.032227,1.000977,0.487805,1.341463,-0.548781,-4.618750,18.187500,20.712500,28.442,0.57482816,-0.01000207,-0.03010670,-0.81765894
'00:08:17.864,0.060547,0.032227,1.000000,0.426829,1.402439,-0.609756,-4.618750,18.187500,20.712500,28.427,0.57482757,-0.00998967,-0.03011763,-0.81765910
'00:08:17.876,0.060059,0.031250,1.001465,0.365854,1.402439,-0.609756,-4.537500,18.075001,20.743750,28.442,0.57483068,-0.00998433,-0.03011963,-0.81765690
'00:08:17.884,0.062012,0.030762,1.003418,0.304878,1.341463,-0.548781,-4.537500,18.075001,20.743750,28.427,0.57483609,-0.00999740,-0.03012336,-0.81765280
'00:08:17.894,0.062012,0.030273,1.004395,0.365854,1.280488,-0.609756,-4.587500,18.081251,20.768751,28.442,0.57483505,-0.01001337,-0.03012800,-0.81765316
'00:08:17.904,0.061035,0.031738,1.004883,0.365854,1.341463,-0.609756,-4.587500,18.081251,20.768751,28.442,0.57483385,-0.01001266,-0.03013401,-0.81765380
'00:08:17.917,0.061035,0.031738,1.002441,0.304878,1.341463,-0.609756,-4.925000,18.712500,21.081251,28.442,0.57481924,-0.01000136,-0.03012127,-0.81766468
'00:08:17.924,0.061035,0.032227,1.002930,0.304878,1.280488,-0.609756,-4.925000,18.712500,21.081251,28.397,0.57481124,-0.00999701,-0.03011858,-0.81767045
'00:08:17.934,0.060547,0.032227,1.000488,0.304878,1.341463,-0.670732,-4.556250,18.112501,20.700001,28.427,0.57480877,-0.00999785,-0.03012692,-0.81767187
'00:08:17.944,0.060059,0.031250,1.002441,0.365854,1.341463,-0.548781,-4.556250,18.112501,20.700001,28.457,0.57481531,-0.00999679,-0.03013055,-0.81766715
'00:08:17.956,0.061523,0.030762,1.002930,0.304878,1.341463,-0.609756,-4.512500,18.106251,20.631250,28.442,0.57482174,-0.01001475,-0.03013751,-0.81766216
'00:08:17.964,0.060547,0.030762,1.001953,0.426829,1.463415,-0.609756,-4.512500,18.106251,20.631250,28.427,0.57482634,-0.01001021,-0.03014116,-0.81765884
'00:08:17.974,0.060547,0.032227,1.003418,0.426829,1.402439,-0.609756,-4.768750,18.425001,20.900000,28.442,0.57482004,-0.00999120,-0.03014314,-0.81766343
'00:08:17.984,0.061523,0.030273,1.002441,0.426829,1.463415,-0.609756,-4.537500,17.993750,20.643751,28.457,0.57482160,-0.00999053,-0.03014383,-0.81766232
'00:08:17.996,0.062012,0.030762,1.002930,0.365854,1.341463,-0.548781,-4.537500,17.993750,20.643751,28.427,0.57482807,-0.01000482,-0.03015243,-0.81765728
'00:08:18.004,0.061035,0.030273,1.003418,0.426829,1.402439,-0.609756,-4.512500,18.050001,20.637501,28.487,0.57483158,-0.01000697,-0.03015599,-0.81765465
'00:08:18.014,0.061035,0.030273,1.001465,0.304878,1.341463,-0.609756,-4.512500,18.050001,20.637501,28.427,0.57483566,-0.01002051,-0.03015559,-0.81765164
'00:08:18.024,0.061035,0.031250,1.001465,0.426829,1.402439,-0.548781,-4.618750,18.137501,20.731251,28.457,0.57483830,-0.01001390,-0.03015983,-0.81764970
'00:08:18.038,0.060059,0.031250,1.000977,0.426829,1.402439,-0.609756,-4.618750,18.137501,20.731251,28.457,0.57483595,-0.00999668,-0.03016036,-0.81765154
'00:08:18.045,0.060059,0.032227,1.000488,0.426829,1.402439,-0.609756,-4.587500,18.131250,20.737501,28.487,0.57483603,-0.00998677,-0.03016656,-0.81765138
'00:08:18.054,0.059082,0.032227,1.001465,0.426829,1.402439,-0.548781,-4.587500,18.131250,20.737501,28.427,0.57484009,-0.00996892,-0.03017033,-0.81764861
'00:08:18.064,0.061523,0.031738,1.001953,0.304878,1.402439,-0.609756,-4.587500,18.156250,20.718750,28.457,0.57484082,-0.00997195,-0.03017350,-0.81764794
'00:08:18.075,0.062012,0.031250,1.004395,0.304878,1.341463,-0.548781,-4.587500,18.156250,20.718750,28.427,0.57484633,-0.00998498,-0.03017804,-0.81764374
'00:08:18.084,0.062012,0.030273,1.004395,0.365854,1.341463,-0.548781,-4.868750,18.525000,21.081251,28.457,0.57484003,-0.00998572,-0.03016735,-0.81764855
'00:08:18.094,0.062988,0.029785,1.004395,0.426829,1.402439,-0.548781,-4.868750,18.525000,21.081251,28.457,0.57483336,-0.00998678,-0.03015809,-0.81765357
'00:08:18.104,0.061523,0.031250,1.002441,0.426829,1.341463,-0.609756,-4.806250,18.443750,20.993750,28.472,0.57482461,-0.00998053,-0.03015876,-0.81765977
'00:08:18.114,0.059082,0.032227,1.002441,0.182927,1.219512,-0.548781,-4.806250,18.443750,20.993750,28.457,0.57481956,-0.00997722,-0.03014386,-0.81766392
'00:08:18.124,0.059570,0.032715,1.002930,0.426829,1.463415,-0.548781,-4.562500,18.062500,20.681250,28.442,0.57482465,-0.00995431,-0.03015037,-0.81766037
'00:08:18.134,0.059570,0.031250,1.000977,0.426829,1.463415,-0.548781,-4.562500,18.062500,20.681250,28.487,0.57483009,-0.00993843,-0.03014881,-0.81765680
'00:08:18.144,0.060547,0.030273,1.000488,0.304878,1.341463,-0.548781,-4.550000,18.125000,20.731251,28.472,0.57483735,-0.00994941,-0.03014545,-0.81765169
'00:08:18.156,0.060059,0.031738,1.001465,0.304878,1.341463,-0.670732,-4.550000,18.125000,20.731251,28.457,0.57483521,-0.00995075,-0.03014923,-0.81765304
'00:08:18.164,0.062500,0.031250,1.002441,0.304878,1.280488,-0.609756,-4.575000,18.125000,20.700001,28.457,0.57483586,-0.00996681,-0.03015798,-0.81765206
'00:08:18.174,0.063477,0.030273,1.004883,0.243902,1.280488,-0.609756,-4.575000,18.125000,20.700001,28.472,0.57483677,-0.00999889,-0.03016148,-0.81765090
'00:08:18.184,0.062500,0.030273,1.002930,0.365854,1.280488,-0.548781,-4.725000,18.362501,20.868750,28.427,0.57483646,-0.01001325,-0.03016352,-0.81765087
'00:08:18.194,0.062500,0.030762,1.001953,0.426829,1.341463,-0.609756,-4.725000,18.362501,20.868750,28.427,0.57483185,-0.01001800,-0.03017017,-0.81765380
'00:08:18.204,0.062500,0.032227,1.000977,0.365854,1.341463,-0.548781,-5.012500,18.762501,21.093750,28.457,0.57482017,-0.01000850,-0.03016798,-0.81766221
'00:08:18.214,0.060059,0.031250,1.001465,0.182927,1.280488,-0.670732,-5.012500,18.762501,21.093750,28.427,0.57479981,-0.01000240,-0.03014030,-0.81767762
'00:08:18.224,0.061035,0.030273,1.000488,0.304878,1.341463,-0.609756,-4.806250,18.412500,20.912500,28.397,0.57479094,-0.01000323,-0.03012525,-0.81768440
'00:08:18.237,0.059082,0.030762,1.002441,0.365854,1.280488,-0.548781,-5.000000,18.681250,21.131250,28.457,0.57477495,-0.00997875,-0.03009626,-0.81769701
'00:08:18.244,0.059570,0.032227,1.003906,0.365854,1.402439,-0.670732,-5.000000,18.681250,21.131250,28.457,0.57476034,-0.00995712,-0.03008379,-0.81770800
'00:08:18.254,0.059570,0.032227,1.003906,0.365854,1.402439,-0.670732,-4.575000,18.031250,20.718750,28.457,0.57475528,-0.00994264,-0.03008518,-0.81771168
'00:08:18.265,0.061035,0.030762,1.004395,0.426829,1.402439,-0.609756,-4.575000,18.031250,20.718750,28.427,0.57475490,-0.00994005,-0.03008823,-0.81771187
'00:08:18.274,0.061035,0.030762,1.004395,0.426829,1.402439,-0.609756,-4.743750,18.412500,20.818750,28.427,0.57475151,-0.00993314,-0.03008653,-0.81771440
'00:08:18.284,0.061035,0.030762,1.002441,0.365854,1.402439,-0.609756,-4.743750,18.412500,20.818750,28.427,0.57474770,-0.00992908,-0.03008118,-0.81771732
'00:08:18.294,0.061035,0.031738,1.001465,0.304878,1.341463,-0.609756,-4.800000,18.400000,20.975000,28.487,0.57473879,-0.00992538,-0.03007572,-0.81772383
'00:08:18.304,0.062012,0.031738,1.001953,0.365854,1.341463,-0.609756,-4.800000,18.400000,20.975000,28.457,0.57472995,-0.00992426,-0.03007853,-0.81772995
'00:08:18.314,0.062500,0.031250,1.000000,0.304878,1.341463,-0.609756,-4.625000,18.143751,20.781250,28.472,0.57472807,-0.00993871,-0.03008536,-0.81773085
'00:08:18.324,0.061523,0.031250,1.000977,0.365854,1.463415,-0.609756,-4.625000,18.143751,20.781250,28.472,0.57472658,-0.00993523,-0.03008578,-0.81773192
'00:08:18.334,0.061035,0.030273,1.000488,0.365854,1.402439,-0.609756,-4.593750,18.156250,20.768751,28.427,0.57472766,-0.00993969,-0.03008441,-0.81773116
'00:08:18.344,0.061523,0.031250,1.004395,0.304878,1.341463,-0.609756,-4.593750,18.156250,20.768751,28.457,0.57472831,-0.00994931,-0.03008796,-0.81773046
'00:08:18.354,0.062012,0.029785,1.005371,0.304878,1.280488,-0.609756,-4.568750,18.100000,20.668751,28.427,0.57472998,-0.00997253,-0.03008826,-0.81772898
'00:08:18.364,0.061523,0.030273,1.003906,0.365854,1.341463,-0.609756,-4.568750,18.100000,20.668751,28.442,0.57473172,-0.00998339,-0.03009133,-0.81772752
'00:08:18.374,0.061035,0.030762,1.001953,0.304878,1.280488,-0.548781,-4.612500,18.175001,20.743750,28.427,0.57473579,-0.00999553,-0.03009278,-0.81772446
'00:08:18.385,0.061523,0.031738,1.000977,0.365854,1.341463,-0.609756,-4.612500,18.175001,20.743750,28.457,0.57473539,-0.00999916,-0.03010493,-0.81772425
'00:08:18.394,0.059570,0.031738,1.001953,0.365854,1.402439,-0.609756,-4.906250,18.618750,21.043751,28.427,0.57472524,-0.00997750,-0.03009226,-0.81773211
'00:08:18.406,0.060547,0.033691,1.001465,0.365854,1.463415,-0.609756,-4.906250,18.618750,21.043751,28.427,0.57471146,-0.00994106,-0.03009082,-0.81774229
'00:08:18.414,0.061035,0.030273,1.005371,0.426829,1.585366,-0.548781,-4.687500,18.400000,20.943750,28.472,0.57471490,-0.00992909,-0.03008233,-0.81774033
'00:08:18.424,0.060059,0.029785,1.000000,0.426829,1.402439,-0.609756,-4.687500,18.400000,20.943750,28.457,0.57471450,-0.00992480,-0.03007642,-0.81774088
'00:08:18.434,0.060059,0.029785,1.000000,0.304878,1.341463,-0.548781,-4.525000,18.106251,20.718750,28.442,0.57472380,-0.00993718,-0.03007160,-0.81773437
'00:08:18.444,0.061035,0.030273,1.005371,0.426829,1.402439,-0.609756,-4.525000,18.106251,20.718750,28.487,0.57472886,-0.00994116,-0.03007721,-0.81773056
'00:08:18.455,0.061523,0.032715,1.003418,0.365854,1.341463,-0.609756,-4.518750,18.137501,20.700001,28.442,0.57473480,-0.00994662,-0.03010261,-0.81772538
'00:08:18.464,0.062012,0.031738,1.000488,0.365854,1.341463,-0.609756,-4.518750,18.137501,20.700001,28.412,0.57473975,-0.00995786,-0.03012068,-0.81772110
'00:08:18.474,0.062988,0.031250,1.001953,0.304878,1.341463,-0.609756,-4.537500,18.112501,20.668751,28.427,0.57474348,-0.00997898,-0.03013446,-0.81771772
'00:08:18.484,0.060547,0.031250,1.001953,0.304878,1.341463,-0.548781,-4.537500,18.112501,20.668751,28.427,0.57475161,-0.00998560,-0.03013775,-0.81771180
'00:08:18.494,0.061035,0.030762,1.001953,0.365854,1.341463,-0.609756,-4.756250,18.362501,20.837500,28.457,0.57474541,-0.00998367,-0.03013248,-0.81771637
'00:08:18.504,0.061035,0.030273,1.001465,0.304878,1.280488,-0.609756,-4.850000,18.587500,20.975000,28.457,0.57473729,-0.00998890,-0.03012104,-0.81772244
'00:08:18.514,0.060059,0.030762,1.002930,0.304878,1.341463,-0.548781,-4.850000,18.587500,20.975000,28.427,0.57473365,-0.00998197,-0.03010497,-0.81772568
'00:08:18.524,0.060059,0.031250,1.002441,0.304878,1.280488,-0.609756,-4.656250,18.287500,20.881250,28.457,0.57473220,-0.00998509,-0.03010364,-0.81772671
'00:08:18.534,0.060059,0.031250,1.000488,0.365854,1.341463,-0.609756,-4.656250,18.287500,20.881250,28.472,0.57473095,-0.00998121,-0.03010448,-0.81772760
'00:08:18.544,0.060547,0.030762,1.002930,0.365854,1.280488,-0.548781,-4.531250,18.131250,20.693750,28.457,0.57473993,-0.00999175,-0.03011324,-0.81772084
'00:08:18.554,0.061035,0.031250,1.003418,0.365854,1.341463,-0.609756,-4.531250,18.131250,20.693750,28.457,0.57474453,-0.00999826,-0.03012356,-0.81771715
'00:08:18.564,0.062012,0.029785,1.003418,0.426829,1.402439,-0.609756,-4.543750,18.131250,20.693750,28.457,0.57474871,-0.01000833,-0.03012920,-0.81771388
'00:08:18.574,0.060059,0.032227,1.002441,0.365854,1.402439,-0.609756,-4.543750,18.131250,20.693750,28.472,0.57475232,-0.00999966,-0.03013735,-0.81771115
'00:08:18.584,0.061035,0.031738,1.002441,0.365854,1.341463,-0.548781,-4.731250,18.400000,20.900000,28.472,0.57475246,-0.00999566,-0.03014023,-0.81771099
'00:08:18.594,0.062012,0.031250,1.002441,0.365854,1.341463,-0.609756,-4.731250,18.400000,20.900000,28.457,0.57474834,-0.00999926,-0.03014423,-0.81771370
'00:08:18.604,0.061523,0.030762,1.003418,0.304878,1.341463,-0.609756,-4.856250,18.568750,21.043751,28.457,0.57473910,-0.00999975,-0.03013238,-0.81772062
'00:08:18.614,0.061035,0.029785,1.002930,0.304878,1.280488,-0.548781,-4.856250,18.568750,21.043751,28.442,0.57473434,-0.01000614,-0.03011623,-0.81772448
'00:08:18.624,0.061523,0.031738,1.001953,0.365854,1.280488,-0.609756,-4.593750,18.162500,20.731251,28.472,0.57473483,-0.01001436,-0.03013073,-0.81772350
'00:08:18.634,0.060547,0.031738,1.001953,0.365854,1.341463,-0.548781,-4.593750,18.162500,20.731251,28.457,0.57473982,-0.01001251,-0.03013779,-0.81771976
'00:08:18.644,0.059570,0.031250,1.002441,0.365854,1.402439,-0.548781,-4.550000,18.162500,20.712500,28.457,0.57474821,-0.01000529,-0.03013801,-0.81771394
'00:08:18.654,0.060059,0.030762,1.002930,0.304878,1.341463,-0.609756,-4.550000,18.162500,20.712500,28.442,0.57475213,-0.01001025,-0.03013585,-0.81771121
'00:08:18.664,0.060547,0.030762,1.002441,0.365854,1.341463,-0.609756,-4.593750,18.150000,20.637501,28.487,0.57475307,-0.01001187,-0.03013672,-0.81771049
'00:08:18.674,0.061035,0.031250,1.002930,0.304878,1.280488,-0.548781,-4.593750,18.150000,20.637501,28.412,0.57475801,-0.01002171,-0.03014096,-0.81770674
'00:08:18.684,0.060547,0.030273,1.003906,0.304878,1.341463,-0.548781,-4.537500,18.075001,20.681250,28.457,0.57476536,-0.01003082,-0.03013633,-0.81770164
'00:08:18.694,0.060547,0.030762,1.002930,0.365854,1.280488,-0.609756,-4.537500,18.075001,20.681250,28.487,0.57476809,-0.01003903,-0.03014256,-0.81769939
'00:08:18.704,0.061523,0.030762,1.001465,0.304878,1.341463,-0.548781,-4.862500,18.556250,21.025000,28.487,0.57476244,-0.01003885,-0.03013067,-0.81770380
'00:08:18.714,0.061523,0.031250,1.001953,0.304878,1.280488,-0.548781,-4.862500,18.556250,21.025000,28.472,0.57475657,-0.01004093,-0.03012472,-0.81770812
'00:08:18.724,0.060547,0.030762,1.002930,0.365854,1.280488,-0.609756,-4.762500,18.362501,20.837500,28.412,0.57474973,-0.01003904,-0.03011970,-0.81771313
'00:08:18.734,0.061035,0.029785,1.002441,0.304878,1.341463,-0.548781,-4.762500,18.362501,20.837500,28.457,0.57474758,-0.01004309,-0.03010377,-0.81771518
'00:08:18.744,0.060547,0.031250,1.003418,0.365854,1.280488,-0.609756,-4.543750,18.137501,20.700001,28.442,0.57475118,-0.01004951,-0.03011427,-0.81771219
'00:08:18.754,0.061035,0.032227,1.003418,0.365854,1.280488,-0.548781,-4.543750,18.137501,20.700001,28.442,0.57475882,-0.01005468,-0.03013242,-0.81770608
'00:08:18.766,0.061035,0.030273,1.003418,0.365854,1.341463,-0.609756,-4.575000,18.106251,20.718750,28.472,0.57475992,-0.01006238,-0.03013207,-0.81770523
'00:08:18.774,0.061523,0.030762,1.002441,0.365854,1.341463,-0.548781,-4.668750,18.287500,20.818750,28.427,0.57476175,-0.01006569,-0.03013330,-0.81770386
'00:08:18.784,0.061035,0.030273,1.002930,0.365854,1.341463,-0.609756,-4.668750,18.287500,20.818750,28.457,0.57475982,-0.01006870,-0.03012972,-0.81770531
'00:08:18.794,0.060059,0.031738,1.002441,0.365854,1.341463,-0.548781,-4.925000,18.612501,21.081251,28.457,0.57475096,-0.01004950,-0.03011811,-0.81771220
'00:08:18.804,0.060547,0.031250,1.002441,0.304878,1.341463,-0.609756,-4.925000,18.612501,21.081251,28.457,0.57473788,-0.01003838,-0.03010159,-0.81772213
'00:08:18.814,0.061523,0.032715,1.001465,0.365854,1.341463,-0.548781,-4.962500,18.631250,21.100000,28.518,0.57472684,-0.01002246,-0.03010023,-0.81773014
'00:08:18.825,0.061035,0.031738,1.001953,0.365854,1.341463,-0.609756,-4.962500,18.631250,21.100000,28.457,0.57471025,-0.01000633,-0.03009020,-0.81774237
'00:08:18.834,0.060547,0.031250,1.003418,0.426829,1.341463,-0.609756,-4.718750,18.400000,20.912500,28.427,0.57470754,-0.00999976,-0.03009366,-0.81774423
'00:08:18.844,0.061523,0.031250,1.002441,0.365854,1.341463,-0.609756,-4.718750,18.400000,20.912500,28.457,0.57470445,-0.01000150,-0.03009756,-0.81774624
'00:08:18.854,0.062012,0.030273,1.003418,0.426829,1.402439,-0.609756,-4.643750,18.243750,20.831251,28.442,0.57470374,-0.01000502,-0.03010096,-0.81774656
'00:08:18.864,0.059570,0.031250,1.002441,0.426829,1.341463,-0.609756,-4.643750,18.243750,20.831251,28.412,0.57470273,-0.00999464,-0.03010348,-0.81774731
'00:08:18.874,0.060547,0.030762,1.002441,0.365854,1.341463,-0.609756,-4.600000,18.131250,20.662500,28.442,0.57470297,-0.00999614,-0.03010410,-0.81774710
'00:08:18.884,0.059570,0.031738,1.002441,0.365854,1.341463,-0.548781,-4.600000,18.131250,20.662500,28.442,0.57470737,-0.00998792,-0.03010645,-0.81774402
'00:08:18.894,0.060059,0.031250,1.002930,0.426829,1.341463,-0.548781,-4.737500,18.275000,20.868750,28.457,0.57470489,-0.00997536,-0.03010388,-0.81774601
'00:08:18.904,0.061523,0.030273,1.002930,0.365854,1.341463,-0.548781,-4.737500,18.275000,20.868750,28.457,0.57470257,-0.00997869,-0.03009729,-0.81774784
'00:08:18.915,0.061523,0.030762,1.002441,0.365854,1.341463,-0.609756,-4.681250,18.368750,20.856251,28.472,0.57470163,-0.00998523,-0.03010100,-0.81774829
'00:08:18.924,0.062500,0.030273,1.002441,0.365854,1.341463,-0.548781,-4.681250,18.368750,20.856251,28.457,0.57470482,-0.00999754,-0.03010493,-0.81774575
'00:08:18.934,0.061523,0.031250,1.002930,0.426829,1.341463,-0.548781,-4.700000,18.225000,20.743750,28.427,0.57470422,-0.00999474,-0.03011057,-0.81774600
'00:08:18.944,0.061035,0.031738,1.002441,0.365854,1.341463,-0.609756,-4.700000,18.225000,20.743750,28.457,0.57469912,-0.00999010,-0.03011294,-0.81774955
'00:08:18.954,0.061523,0.030273,1.002930,0.365854,1.341463,-0.548781,-4.543750,18.062500,20.681250,28.442,0.57470605,-0.01000229,-0.03011712,-0.81774438
'00:08:18.966,0.061035,0.031250,1.002930,0.365854,1.341463,-0.548781,-4.543750,18.062500,20.681250,28.442,0.57471406,-0.01000822,-0.03012662,-0.81773833
'00:08:18.974,0.061035,0.030762,1.002441,0.304878,1.341463,-0.609756,-4.562500,18.068750,20.737501,28.487,0.57471479,-0.01001534,-0.03012594,-0.81773775
'00:08:18.984,0.059570,0.031250,1.002441,0.365854,1.402439,-0.609756,-4.562500,18.068750,20.737501,28.427,0.57471587,-0.01000598,-0.03012318,-0.81773721
'00:08:18.994,0.060547,0.031738,1.002441,0.304878,1.341463,-0.609756,-4.556250,18.075001,20.637501,28.457,0.57471759,-0.01000812,-0.03012718,-0.81773582
'00:08:19.004,0.060547,0.031738,1.002441,0.304878,1.341463,-0.609756,-4.556250,18.075001,20.637501,28.457,0.57471930,-0.01001022,-0.03013109,-0.81773445
'00:08:19.014,0.060059,0.031250,1.001465,0.365854,1.280488,-0.548781,-4.856250,18.493750,21.043751,28.457,0.57471267,-0.01000104,-0.03012282,-0.81773953
'00:08:19.024,0.061035,0.030273,1.001953,0.304878,1.341463,-0.609756,-4.856250,18.493750,21.043751,28.457,0.57470206,-0.01000020,-0.03010542,-0.81774764
'00:08:19.034,0.062012,0.031738,1.002441,0.365854,1.402439,-0.609756,-4.731250,18.293751,20.856251,28.487,0.57469604,-0.00999605,-0.03010767,-0.81775184
'00:08:19.044,0.062012,0.030762,1.000977,0.304878,1.341463,-0.609756,-4.543750,18.093750,20.675001,28.472,0.57469914,-0.01001268,-0.03011425,-0.81774921
'00:08:19.054,0.061035,0.031250,1.003906,0.365854,1.280488,-0.609756,-4.543750,18.093750,20.675001,28.427,0.57470205,-0.01002185,-0.03012566,-0.81774664
'00:08:19.064,0.061035,0.031250,1.002930,0.426829,1.402439,-0.609756,-4.543750,18.043751,20.631250,28.427,0.57470434,-0.01001852,-0.03013444,-0.81774474
'00:08:19.074,0.060547,0.030273,1.001953,0.426829,1.341463,-0.609756,-4.543750,18.043751,20.631250,28.502,0.57470670,-0.01002108,-0.03013863,-0.81774290
'00:08:19.084,0.060547,0.031250,1.002441,0.365854,1.280488,-0.548781,-4.575000,18.168751,20.737501,28.412,0.57471311,-0.01002680,-0.03014718,-0.81773801
'00:08:19.094,0.061035,0.031250,1.001953,0.426829,1.402439,-0.609756,-4.575000,18.168751,20.737501,28.472,0.57471548,-0.01002346,-0.03015609,-0.81773606
'00:08:19.104,0.061035,0.030762,1.001953,0.426829,1.341463,-0.548781,-4.993750,18.781250,21.118750,28.397,0.57470611,-0.01001004,-0.03014582,-0.81774318
'00:08:19.114,0.060547,0.030762,1.001953,0.365854,1.341463,-0.609756,-4.993750,18.781250,21.118750,28.427,0.57469243,-0.00999700,-0.03012952,-0.81775356
'00:08:19.124,0.060547,0.031738,1.002930,0.365854,1.341463,-0.548781,-4.812500,18.537500,20.925001,28.442,0.57469030,-0.00998725,-0.03012736,-0.81775525
'00:08:19.134,0.061035,0.031250,1.003418,0.365854,1.402439,-0.548781,-4.812500,18.537500,20.925001,28.457,0.57468847,-0.00997804,-0.03012113,-0.81775688
'00:08:19.144,0.061035,0.029785,1.001953,0.365854,1.341463,-0.609756,-4.743750,18.368750,20.918751,28.427,0.57468338,-0.00998160,-0.03011144,-0.81776077
'00:08:19.156,0.060059,0.031250,1.001953,0.365854,1.341463,-0.609756,-4.743750,18.368750,20.918751,28.442,0.57467695,-0.00997166,-0.03010563,-0.81776563
'00:08:19.164,0.060059,0.031250,1.003418,0.365854,1.402439,-0.609756,-4.825000,18.500000,20.925001,28.427,0.57467080,-0.00995893,-0.03009638,-0.81777045
'00:08:19.175,0.061035,0.031738,1.002441,0.365854,1.341463,-0.609756,-4.825000,18.500000,20.925001,28.457,0.57466206,-0.00995066,-0.03009526,-0.81777673
'00:08:19.184,0.059570,0.031250,1.002441,0.304878,1.280488,-0.548781,-4.675000,18.287500,20.806250,28.472,0.57466411,-0.00995052,-0.03009151,-0.81777543
'00:08:19.194,0.061035,0.030762,1.001465,0.304878,1.341463,-0.548781,-4.675000,18.287500,20.806250,28.457,0.57466658,-0.00995684,-0.03008791,-0.81777374
'00:08:19.204,0.062012,0.030273,1.003906,0.365854,1.341463,-0.609756,-4.687500,18.337500,20.837500,28.487,0.57466498,-0.00996695,-0.03008892,-0.81777471
'00:08:19.214,0.061035,0.029785,1.002441,0.365854,1.341463,-0.609756,-4.687500,18.337500,20.837500,28.427,0.57466349,-0.00997362,-0.03008360,-0.81777587
'00:08:19.225,0.061523,0.031250,1.000977,0.365854,1.280488,-0.609756,-5.012500,18.793751,21.150000,28.397,0.57464730,-0.00996815,-0.03007702,-0.81778756
'00:08:19.234,0.061035,0.030273,1.001465,0.365854,1.341463,-0.609756,-5.012500,18.793751,21.150000,28.442,0.57463447,-0.00996089,-0.03006198,-0.81779722
'00:08:19.244,0.061035,0.031250,1.003906,0.426829,1.341463,-0.609756,-4.606250,18.181250,20.768751,28.472,0.57463523,-0.00996118,-0.03007268,-0.81779628
'00:08:19.254,0.062012,0.029785,1.001465,0.426829,1.341463,-0.609756,-4.606250,18.181250,20.768751,28.457,0.57463625,-0.00997390,-0.03007951,-0.81779516
'00:08:19.264,0.060547,0.030273,1.001953,0.304878,1.341463,-0.609756,-4.562500,18.137501,20.700001,28.442,0.57463941,-0.00998383,-0.03007681,-0.81779292
'00:08:19.274,0.061035,0.032715,1.002930,0.365854,1.402439,-0.609756,-4.562500,18.137501,20.700001,28.457,0.57464217,-0.00997846,-0.03009171,-0.81779050
'00:08:19.284,0.061035,0.031250,1.002441,0.304878,1.341463,-0.609756,-4.506250,18.037500,20.681250,28.457,0.57464678,-0.00998916,-0.03009875,-0.81778687
'00:08:19.294,0.061035,0.031250,1.001953,0.365854,1.341463,-0.609756,-4.562500,18.075001,20.668751,28.442,0.57464838,-0.00999352,-0.03010652,-0.81778540
'00:08:19.304,0.061035,0.030273,1.003418,0.365854,1.341463,-0.609756,-4.562500,18.075001,20.668751,28.457,0.57465019,-0.01000160,-0.03010762,-0.81778399
'00:08:19.314,0.060059,0.031250,1.001953,0.365854,1.341463,-0.609756,-4.950000,18.575001,20.987501,28.427,0.57463554,-0.00998366,-0.03009184,-0.81779508
'00:08:19.325,0.061035,0.030273,1.003418,0.365854,1.341463,-0.609756,-4.950000,18.575001,20.987501,28.457,0.57461978,-0.00997452,-0.03007230,-0.81780699
'00:08:19.334,0.060547,0.029785,1.003418,0.365854,1.341463,-0.609756,-4.756250,18.400000,20.925001,28.442,0.57461536,-0.00997489,-0.03006197,-0.81781047
'00:08:19.344,0.060547,0.032227,1.004883,0.487805,1.402439,-0.548781,-4.756250,18.400000,20.925001,28.442,0.57461455,-0.00995450,-0.03007012,-0.81781099
'00:08:19.354,0.060059,0.030762,1.004395,0.426829,1.402439,-0.670732,-4.556250,18.062500,20.668751,28.442,0.57461258,-0.00994804,-0.03007204,-0.81781238
'00:08:19.365,0.061035,0.030762,1.002441,0.426829,1.280488,-0.609756,-4.556250,18.062500,20.668751,28.442,0.57461478,-0.00995759,-0.03008623,-0.81781020
'00:08:19.375,0.061035,0.030762,1.001953,0.365854,1.341463,-0.609756,-4.543750,18.081251,20.693750,28.472,0.57461802,-0.00996604,-0.03009305,-0.81780757
'00:08:19.384,0.062012,0.031250,1.002930,0.426829,1.402439,-0.609756,-4.543750,18.081251,20.693750,28.427,0.57462094,-0.00996991,-0.03010614,-0.81780499
'00:08:19.394,0.061035,0.030762,1.001953,0.365854,1.341463,-0.609756,-4.625000,18.118750,20.706251,28.457,0.57461928,-0.00997338,-0.03010687,-0.81780608
'00:08:19.404,0.059570,0.031738,1.002441,0.365854,1.280488,-0.609756,-4.625000,18.118750,20.706251,28.472,0.57461729,-0.00996831,-0.03011019,-0.81780742
'00:08:19.414,0.060059,0.031250,1.004395,0.304878,1.402439,-0.609756,-4.675000,18.350000,20.806250,28.487,0.57461700,-0.00996240,-0.03010248,-0.81780798
'00:08:19.424,0.061523,0.030273,1.002930,0.304878,1.341463,-0.609756,-4.675000,18.350000,20.806250,28.442,0.57461672,-0.00997386,-0.03009883,-0.81780817
'00:08:19.434,0.060059,0.031250,1.003418,0.365854,1.341463,-0.609756,-4.968750,18.600000,20.987501,28.457,0.57460159,-0.00995541,-0.03008195,-0.81781965
'00:08:19.445,0.061035,0.031250,1.002441,0.365854,1.402439,-0.609756,-4.968750,18.600000,20.987501,28.442,0.57458521,-0.00993710,-0.03006524,-0.81783199
'00:08:19.454,0.061523,0.030762,1.001953,0.365854,1.341463,-0.609756,-4.587500,18.143751,20.768751,28.442,0.57458651,-0.00994607,-0.03007162,-0.81783074
'00:08:19.464,0.062012,0.030762,1.002441,0.304878,1.341463,-0.609756,-4.587500,18.143751,20.768751,28.487,0.57458784,-0.00996167,-0.03007605,-0.81782945
'00:08:19.474,0.061523,0.031250,1.002930,0.304878,1.280488,-0.609756,-4.550000,18.056250,20.600000,28.427,0.57459024,-0.00997712,-0.03008555,-0.81782723
'00:08:19.485,0.061035,0.031250,1.002930,0.365854,1.341463,-0.609756,-4.550000,18.056250,20.600000,28.457,0.57459308,-0.00998253,-0.03009497,-0.81782482
'00:08:19.494,0.061035,0.030762,1.003906,0.365854,1.341463,-0.609756,-4.568750,18.106251,20.706251,28.472,0.57459491,-0.00998828,-0.03009890,-0.81782332
'00:08:19.504,0.061035,0.030762,1.002930,0.365854,1.341463,-0.609756,-4.568750,18.106251,20.706251,28.457,0.57459691,-0.00999478,-0.03010361,-0.81782166
'00:08:19.514,0.061035,0.031250,1.003906,0.365854,1.341463,-0.609756,-4.781250,18.343750,20.831251,28.427,0.57458910,-0.00998897,-0.03009913,-0.81782738
'00:08:19.526,0.060059,0.031250,1.002441,0.365854,1.341463,-0.609756,-4.781250,18.343750,20.831251,28.457,0.57457980,-0.00997577,-0.03008985,-0.81783442
'00:08:19.534,0.061523,0.030762,1.001953,0.365854,1.341463,-0.609756,-4.968750,18.700001,21.093750,28.427,0.57456925,-0.00997087,-0.03008115,-0.81784221
'00:08:19.544,0.061523,0.031738,1.001953,0.365854,1.280488,-0.548781,-4.968750,18.700001,21.093750,28.427,0.57456009,-0.00996537,-0.03007916,-0.81784879
'00:08:19.554,0.060547,0.031250,1.003906,0.365854,1.341463,-0.609756,-4.568750,18.112501,20.762501,28.457,0.57456210,-0.00996746,-0.03008485,-0.81784714
'00:08:19.567,0.061035,0.031250,1.001465,0.426829,1.341463,-0.609756,-4.525000,18.043751,20.643751,28.487,0.57456729,-0.00997268,-0.03010475,-0.81784270
'00:08:19.574,0.060059,0.031250,1.003418,0.365854,1.341463,-0.609756,-4.525000,18.043751,20.643751,28.457,0.57457006,-0.00997320,-0.03010870,-0.81784060
'00:08:19.585,0.060059,0.030273,1.002441,0.365854,1.341463,-0.670732,-4.556250,18.112501,20.731251,28.472,0.57456873,-0.00997765,-0.03010757,-0.81784152
'00:08:19.594,0.061035,0.030273,1.002930,0.365854,1.402439,-0.609756,-4.556250,18.112501,20.731251,28.472,0.57457166,-0.00998254,-0.03010736,-0.81783941
'00:08:19.605,0.061035,0.029785,1.001953,0.365854,1.341463,-0.609756,-4.743750,18.393751,20.887501,28.457,0.57456725,-0.00998708,-0.03009818,-0.81784279
'00:08:19.614,0.060059,0.031250,1.002441,0.365854,1.341463,-0.609756,-4.743750,18.393751,20.887501,28.442,0.57456339,-0.00998005,-0.03009484,-0.81784572
'00:08:19.624,0.061035,0.031250,1.003418,0.365854,1.341463,-0.548781,-4.812500,18.450001,20.850000,28.487,0.57456026,-0.00997443,-0.03009086,-0.81784813
'00:08:19.634,0.061523,0.030273,1.001953,0.426829,1.341463,-0.609756,-4.812500,18.450001,20.850000,28.457,0.57455306,-0.00997287,-0.03008825,-0.81785330
'00:08:19.646,0.061035,0.030273,1.002441,0.365854,1.341463,-0.609756,-4.750000,18.287500,20.850000,28.457,0.57454512,-0.00997326,-0.03007848,-0.81785923
'00:08:19.654,0.061523,0.030762,1.002441,0.365854,1.341463,-0.609756,-4.750000,18.287500,20.850000,28.472,0.57453975,-0.00997419,-0.03007605,-0.81786308
'00:08:19.664,0.062500,0.029785,1.001465,0.365854,1.341463,-0.609756,-4.587500,18.087500,20.731251,28.472,0.57454032,-0.00999280,-0.03008022,-0.81786230
'00:08:19.674,0.061523,0.030273,1.001465,0.365854,1.280488,-0.609756,-4.587500,18.087500,20.731251,28.457,0.57454062,-0.01000766,-0.03008621,-0.81786169
'00:08:19.686,0.061035,0.030762,1.003418,0.365854,1.341463,-0.609756,-4.550000,18.093750,20.706251,28.457,0.57454444,-0.01001645,-0.03009353,-0.81785863
'00:08:19.694,0.060547,0.031738,1.002441,0.365854,1.341463,-0.548781,-4.550000,18.093750,20.706251,28.457,0.57455025,-0.01001685,-0.03010167,-0.81785424
'00:08:19.704,0.060547,0.030273,1.003418,0.365854,1.341463,-0.548781,-4.568750,18.250000,20.775000,28.487,0.57455973,-0.01002436,-0.03010439,-0.81784739
'00:08:19.714,0.060547,0.031250,1.002441,0.365854,1.341463,-0.609756,-4.568750,18.250000,20.775000,28.457,0.57456457,-0.01002763,-0.03011337,-0.81784362
'00:08:19.727,0.061035,0.031738,1.002441,0.365854,1.402439,-0.609756,-4.775000,18.443750,20.918751,28.442,0.57455743,-0.01001413,-0.03011136,-0.81784888
'00:08:19.734,0.062012,0.030273,1.001953,0.426829,1.341463,-0.609756,-4.775000,18.443750,20.918751,28.427,0.57455375,-0.01001623,-0.03011241,-0.81785140
'00:08:19.744,0.062012,0.030273,1.001953,0.426829,1.341463,-0.609756,-4.837500,18.587500,21.018751,28.427,0.57454709,-0.01001749,-0.03011216,-0.81785607
'00:08:19.754,0.060547,0.031250,1.002930,0.365854,1.341463,-0.548781,-4.837500,18.587500,21.018751,28.457,0.57454459,-0.01000927,-0.03010688,-0.81785812
'00:08:19.764,0.060547,0.030762,1.001953,0.365854,1.341463,-0.548781,-4.950000,18.593750,21.068750,28.487,0.57453478,-0.00999691,-0.03009071,-0.81786576
'00:08:19.780,0.061523,0.030273,1.002930,0.365854,1.341463,-0.609756,-5.081250,18.862501,21.262501,28.502,0.57450707,-0.00998315,-0.03006022,-0.81788651
'00:08:19.786,0.060547,0.032227,1.001953,0.365854,1.341463,-0.548781,-5.081250,18.862501,21.262501,28.472,0.57449912,-0.00997032,-0.03005380,-0.81789249
'00:08:19.794,0.060547,0.032227,1.001953,0.365854,1.341463,-0.548781,-5.081250,18.862501,21.262501,28.472,0.57448858,-0.00995340,-0.03004536,-0.81790041
'00:08:19.804,0.060547,0.032227,1.001953,0.365854,1.341463,-0.548781,-4.556250,18.143751,20.768751,28.427,0.57449653,-0.00995364,-0.03006039,-0.81789427
'00:08:19.814,0.061523,0.031250,1.002441,0.365854,1.341463,-0.609756,-4.556250,18.143751,20.768751,28.472,0.57450027,-0.00996347,-0.03007312,-0.81789105
'00:08:19.824,0.060547,0.031738,1.003418,0.365854,1.341463,-0.609756,-4.800000,18.387501,20.850000,28.442,0.57449243,-0.00995327,-0.03007018,-0.81789679
'00:08:19.834,0.061035,0.030762,1.001953,0.365854,1.341463,-0.609756,-4.843750,18.556250,20.962500,28.457,0.57448517,-0.00995029,-0.03006449,-0.81790214
'00:08:19.844,0.062012,0.031250,1.002441,0.426829,1.341463,-0.548781,-4.843750,18.556250,20.962500,28.472,0.57448222,-0.00994797,-0.03006986,-0.81790404
'00:08:19.854,0.061035,0.030762,1.002930,0.365854,1.341463,-0.609756,-4.575000,18.100000,20.700001,28.442,0.57448417,-0.00995503,-0.03007493,-0.81790240
'00:08:19.864,0.061523,0.030762,1.002930,0.304878,1.341463,-0.609756,-4.575000,18.100000,20.700001,28.457,0.57448601,-0.00996788,-0.03007758,-0.81790085
'00:08:19.874,0.060547,0.031250,1.002441,0.304878,1.341463,-0.548781,-4.587500,18.093750,20.693750,28.442,0.57449112,-0.00997207,-0.03007804,-0.81789720
'00:08:19.884,0.061523,0.031250,1.001953,0.365854,1.341463,-0.609756,-4.587500,18.093750,20.693750,28.457,0.57449185,-0.00997880,-0.03008715,-0.81789626
'00:08:19.894,0.061035,0.030273,1.003418,0.304878,1.341463,-0.548781,-4.593750,18.137501,20.743750,28.457,0.57449745,-0.00998987,-0.03008352,-0.81789233
'00:08:19.904,0.060547,0.030273,1.002930,0.365854,1.341463,-0.609756,-4.593750,18.137501,20.743750,28.472,0.57449874,-0.00999479,-0.03008249,-0.81789140
'00:08:19.914,0.060059,0.031738,1.003418,0.365854,1.341463,-0.609756,-4.581250,18.175001,20.681250,28.442,0.57450166,-0.00999161,-0.03009010,-0.81788911
'00:08:19.924,0.061523,0.031738,1.002930,0.365854,1.341463,-0.609756,-4.581250,18.175001,20.681250,28.472,0.57450450,-0.00999712,-0.03010385,-0.81788654
'00:08:19.934,0.061035,0.031738,1.002441,0.365854,1.341463,-0.548781,-4.831250,18.525000,20.987501,28.427,0.57450122,-0.00998974,-0.03010309,-0.81788896
'00:08:19.944,0.060059,0.030762,1.002930,0.365854,1.341463,-0.609756,-4.831250,18.525000,20.987501,28.457,0.57449388,-0.00998065,-0.03009246,-0.81789462
'00:08:19.954,0.061523,0.030762,1.002930,0.365854,1.341463,-0.609756,-4.656250,18.306250,20.843750,28.457,0.57449407,-0.00998784,-0.03009700,-0.81789423
'00:08:19.964,0.061035,0.030762,1.001953,0.365854,1.341463,-0.548781,-4.656250,18.306250,20.843750,28.427,0.57449860,-0.00999245,-0.03009979,-0.81789089
'00:08:19.974,0.062500,0.030273,1.002930,0.365854,1.341463,-0.609756,-4.531250,18.156250,20.718750,28.457,0.57450459,-0.01001296,-0.03011216,-0.81788598
'00:08:19.984,0.061035,0.030762,1.002441,0.426829,1.341463,-0.609756,-4.531250,18.156250,20.718750,28.442,0.57451051,-0.01001951,-0.03012565,-0.81788124
'00:08:19.994,0.060547,0.031250,1.003418,0.365854,1.280488,-0.609756,-4.550000,18.087500,20.712500,28.427,0.57451327,-0.01002599,-0.03013494,-0.81787888
'00:08:20.004,0.061035,0.031738,1.002930,0.304878,1.341463,-0.609756,-4.550000,18.087500,20.712500,28.442,0.57451596,-0.01003195,-0.03014185,-0.81787667
'00:08:20.014,0.061035,0.031250,1.000977,0.365854,1.341463,-0.609756,-4.525000,18.118750,20.706251,28.487,0.57452121,-0.01003928,-0.03015366,-0.81787245
'00:08:20.024,0.061035,0.031738,1.002441,0.426829,1.341463,-0.548781,-4.525000,18.118750,20.706251,28.457,0.57453072,-0.01004114,-0.03017183,-0.81786508
'00:08:20.034,0.061035,0.031738,1.001953,0.365854,1.402439,-0.609756,-4.737500,18.443750,20.950001,28.457,0.57452757,-0.01003301,-0.03017243,-0.81786737
'00:08:20.044,0.061035,0.030762,1.001465,0.365854,1.341463,-0.609756,-4.737500,18.443750,20.950001,28.427,0.57452450,-0.01003358,-0.03017050,-0.81786959
'00:08:20.054,0.061523,0.029785,1.002441,0.304878,1.341463,-0.548781,-4.831250,18.493750,20.918751,28.472,0.57452095,-0.01003882,-0.03015410,-0.81787263
'00:08:20.064,0.060547,0.031250,1.002930,0.304878,1.341463,-0.548781,-4.831250,18.493750,20.918751,28.487,0.57451712,-0.01003224,-0.03014238,-0.81787583
'00:08:20.074,0.060547,0.031738,1.002930,0.304878,1.280488,-0.548781,-4.550000,18.056250,20.612501,28.472,0.57452371,-0.01003904,-0.03014963,-0.81787085
'00:08:20.084,0.060059,0.031250,1.002441,0.365854,1.402439,-0.609756,-4.550000,18.056250,20.612501,28.412,0.57452641,-0.01003310,-0.03015024,-0.81786900
'00:08:20.094,0.061523,0.031738,1.003418,0.365854,1.341463,-0.548781,-4.575000,18.075001,20.700001,28.472,0.57453144,-0.01003691,-0.03016063,-0.81786504
'00:08:20.104,0.059570,0.030273,1.001953,0.365854,1.402439,-0.609756,-4.562500,18.112501,20.712500,28.442,0.57453431,-0.01003254,-0.03015332,-0.81786334
'00:08:20.114,0.061035,0.031250,1.002930,0.365854,1.341463,-0.609756,-4.562500,18.112501,20.712500,28.472,0.57453674,-0.01003683,-0.03016079,-0.81786131
'00:08:20.124,0.061035,0.030273,1.002441,0.365854,1.341463,-0.609756,-4.762500,18.362501,20.893751,28.412,0.57453056,-0.01003639,-0.03015200,-0.81786598
'00:08:20.134,0.060059,0.030762,1.002441,0.365854,1.341463,-0.609756,-4.762500,18.362501,20.893751,28.487,0.57452433,-0.01002827,-0.03014226,-0.81787082
'00:08:20.144,0.061035,0.031738,1.003906,0.304878,1.341463,-0.609756,-4.987500,18.800001,21.093750,28.472,0.57451183,-0.01001748,-0.03013006,-0.81788018
'00:08:20.154,0.061035,0.030273,1.003418,0.365854,1.341463,-0.609756,-4.987500,18.800001,21.093750,28.487,0.57449979,-0.01000995,-0.03011420,-0.81788931
'00:08:20.164,0.060547,0.031250,1.002441,0.365854,1.341463,-0.548781,-4.550000,18.137501,20.712500,28.472,0.57450824,-0.01001334,-0.03012225,-0.81788304
'00:08:20.174,0.061035,0.030273,1.003906,0.365854,1.341463,-0.609756,-4.550000,18.137501,20.712500,28.457,0.57451252,-0.01002316,-0.03012569,-0.81787979
'00:08:20.184,0.060547,0.031250,1.001953,0.426829,1.341463,-0.609756,-4.543750,18.093750,20.706251,28.442,0.57451607,-0.01002297,-0.03013758,-0.81787686
'00:08:20.195,0.060059,0.031738,1.002930,0.426829,1.341463,-0.548781,-4.543750,18.093750,20.706251,28.457,0.57452462,-0.01001721,-0.03015088,-0.81787043
'00:08:20.204,0.061523,0.030762,1.001953,0.426829,1.280488,-0.548781,-4.562500,18.112501,20.668751,28.457,0.57453093,-0.01002718,-0.03016399,-0.81786539
'00:08:20.214,0.061035,0.030762,1.001953,0.365854,1.341463,-0.609756,-4.562500,18.112501,20.668751,28.427,0.57453366,-0.01003373,-0.03016891,-0.81786322
