# FW/GUI: v9.6.1-multi17-dual (PyQt5)
# StartTime: 2026-04-03 16:16:18
# Slot: 13
# DeviceID: 13
# Label: EMG13
# IP: 192.168.137.206
# TCP: 3333
# DeviceFW: EMG_FW_v9.6_MULTI17_DUALCH_RUNTIMECFG_CHEN
# EMG column notes: EMG_t_s=seconds since this Start; sample_idx=device sample index (ADS frame index); fs=sample rate (SPS); gain=gain; flags=0x01(TEST) 0x02(SHORT) 0x04(RLD); emg_valid=1 valid / 0 invalid (spike-guard decision); ch1_raw_uV=raw uV (after spike guard); ch1_filt_uV=filtered uV; ch1_env_uV=envelope (RMS) uV
EMG_t_s,sample_idx,fs,gain,flags,emg_valid,ch1_raw_uV,ch1_filt_uV,ch1_env_uV,ch2_raw_uV,ch2_filt_uV,ch2_env_uV
0.000000,435691,1000.00,12,0,1,363.217,-6.676,7.182,914.539,-0.021,1.004
0.001000,435692,1000.00,12,0,1,359.109,-10.746,7.331,914.491,-0.311,1.005
0.002000,435693,1000.00,12,0,1,359.637,-8.909,7.426,913.050,-1.218,1.000
0.003000,435694,1000.00,12,0,1,363.817,-3.870,7.443,914.419,-0.429,1.002
0.004000,435695,1000.00,12,0,1,363.817,-1.234,7.399,914.419,0.393,1.003
0.005000,435696,1000.00,12,0,1,363.000,-1.564,7.014,916.076,1.112,1.009
0.006000,435697,1000.00,12,0,1,364.586,1.648,6.820,915.812,1.535,1.029
0.007000,435698,1000.00,12,0,1,362.328,1.290,6.804,914.611,-0.211,1.008
0.008000,435699,1000.00,12,0,1,361.583,1.008,6.798,913.338,-1.156,1.020
0.009000,435700,1000.00,12,0,1,361.559,2.507,6.746,913.842,-0.885,1.028
0.010000,435701,1000.00,12,0,1,366.099,6.017,6.761,913.098,-0.984,1.031
0.011000,435702,1000.00,12,0,1,368.741,9.153,6.595,913.338,-1.030,1.039
0.012000,435703,1000.00,12,0,1,372.465,9.976,6.437,914.587,0.356,1.037
0.013000,435704,1000.00,12,0,1,366.507,4.839,6.409,917.446,2.614,1.088
0.014000,435705,1000.00,12,0,1,360.358,-4.232,6.274,917.446,2.768,1.129
0.015000,435706,1000.00,12,0,1,363.769,-2.089,6.174,916.893,1.339,1.128
0.016000,435707,1000.00,12,0,1,364.922,-0.949,6.039,915.932,0.385,1.111
0.017000,435708,1000.00,12,0,1,367.781,-0.800,5.989,915.356,-0.533,1.111
0.018000,435709,1000.00,12,0,1,371.288,2.041,5.991,915.260,-0.611,1.112
0.019000,435710,1000.00,12,0,1,372.152,0.973,5.986,914.779,-0.896,1.118
0.020000,435711,1000.00,12,0,1,369.774,-1.711,5.990,913.963,-1.599,1.141
0.021000,435712,1000.00,12,0,1,369.462,-3.382,6.004,915.932,0.046,1.140
0.022000,435713,1000.00,12,0,1,368.141,-3.522,6.025,916.100,0.818,1.143
0.023000,435714,1000.00,12,0,1,363.913,-6.765,6.091,914.059,-1.226,1.154
0.024000,435715,1000.00,12,0,1,364.658,-5.364,6.114,913.458,-1.822,1.182
0.025000,435716,1000.00,12,0,1,368.933,0.450,6.099,914.083,-0.874,1.154
0.026000,435717,1000.00,12,0,1,370.807,3.445,6.091,915.188,0.199,1.153
0.027000,435718,1000.00,12,0,1,367.853,1.908,6.073,913.578,-0.665,1.154
0.028000,435719,1000.00,12,0,1,383.034,12.644,6.247,913.890,-1.064,1.161
0.029000,435720,1000.00,12,0,1,372.416,9.125,6.378,916.965,2.052,1.190
0.030000,435721,1000.00,12,0,1,351.975,-14.527,6.647,914.515,0.400,1.190
0.031000,435722,1000.00,12,0,1,349.885,-14.330,6.943,913.794,-1.442,1.199
0.032000,435723,1000.00,12,0,1,345.561,-14.208,7.221,916.365,1.334,1.212
0.033000,435724,1000.00,12,0,1,353.608,-7.939,7.306,916.052,1.164,1.206
0.034000,435725,1000.00,12,0,1,370.351,9.876,7.437,916.653,0.936,1.181
0.035000,435726,1000.00,12,0,1,374.266,12.402,7.641,916.413,1.037,1.182
0.036000,435727,1000.00,12,0,1,377.149,11.090,7.798,915.067,-0.665,1.185
0.037000,435728,1000.00,12,0,1,373.666,6.436,7.837,912.713,-2.414,1.229
0.038000,435729,1000.00,12,0,1,358.244,-9.196,7.921,912.041,-3.142,1.305
0.039000,435730,1000.00,12,0,1,358.965,-11.791,8.093,912.882,-1.665,1.315
0.040000,435731,1000.00,12,0,1,367.300,-1.383,8.018,915.356,0.644,1.317
0.041000,435732,1000.00,12,0,1,369.630,0.631,7.845,914.011,0.324,1.305
0.042000,435733,1000.00,12,0,1,368.909,0.241,7.129,913.218,-1.110,1.312
0.043000,435734,1000.00,12,0,1,365.018,-2.674,7.086,914.779,0.704,1.313
0.044000,435735,1000.00,12,0,1,359.686,-6.461,6.845,913.578,0.093,1.297
0.045000,435736,1000.00,12,0,1,356.058,-7.753,6.886,913.963,-0.225,1.240
0.046000,435737,1000.00,12,0,1,355.770,-5.793,6.925,915.644,1.778,1.265
0.047000,435738,1000.00,12,0,1,362.208,1.846,6.923,914.035,0.363,1.220
0.048000,435739,1000.00,12,0,1,364.946,6.802,6.953,916.269,1.396,1.236
0.049000,435740,1000.00,12,0,1,366.652,7.728,7.038,914.899,1.270,1.247
0.050000,435741,1000.00,12,0,1,365.234,7.095,7.047,914.059,-0.871,1.253
0.051000,435742,1000.00,12,0,1,363.457,4.122,6.905,913.866,-0.269,1.253
0.052000,435743,1000.00,12,0,1,359.854,0.997,6.791,915.140,0.231,1.242
0.053000,435744,1000.00,12,0,1,370.279,7.083,6.843,914.635,0.448,1.242
0.054000,435745,1000.00,12,0,1,371.288,10.037,6.986,915.332,0.293,1.241
0.055000,435746,1000.00,12,0,1,359.662,-3.819,7.004,915.908,1.189,1.243
0.056000,435747,1000.00,12,0,1,360.406,-5.783,7.047,914.203,-0.413,1.225
0.057000,435748,1000.00,12,0,1,364.298,-1.095,7.047,912.930,-1.822,1.251
0.058000,435749,1000.00,12,0,1,366.892,-0.501,7.046,913.218,-1.185,1.252
0.059000,435750,1000.00,12,0,1,369.606,1.790,7.041,915.212,0.516,1.248
0.060000,435751,1000.00,12,0,1,369.174,0.356,6.990,914.539,0.683,1.244
0.061000,435752,1000.00,12,0,1,371.960,1.717,6.873,915.140,0.295,1.236
0.062000,435753,1000.00,12,0,1,374.963,4.402,6.755,915.980,1.654,1.257
0.063000,435754,1000.00,12,0,1,372.344,2.021,6.727,914.611,0.114,1.201
0.064000,435755,1000.00,12,0,1,368.357,-1.922,6.706,913.722,-0.835,1.142
0.065000,435756,1000.00,12,0,1,368.789,-1.146,6.701,913.626,-0.785,1.131
0.066000,435757,1000.00,12,0,1,365.643,-1.899,6.705,912.281,-1.661,1.154
0.067000,435758,1000.00,12,0,1,377.701,6.739,6.772,915.067,0.297,1.153
0.068000,435759,1000.00,12,0,1,369.318,5.145,6.804,914.803,1.212,1.162
0.069000,435760,1000.00,12,0,1,342.679,-20.818,7.413,916.509,1.306,1.170
0.070000,435761,1000.00,12,0,1,350.438,-14.978,7.706,914.515,0.743,1.153
0.071000,435762,1000.00,12,0,1,370.135,8.488,7.784,916.004,0.211,1.153
0.072000,435763,1000.00,12,0,1,358.533,0.470,7.768,914.683,0.578,1.150
0.073000,435764,1000.00,12,0,1,356.251,-6.528,7.764,913.122,-2.081,1.174
0.074000,435765,1000.00,12,0,1,369.654,6.953,7.789,914.803,-0.172,1.146
0.075000,435766,1000.00,12,0,1,371.960,8.865,7.889,915.380,0.717,1.144
0.076000,435767,1000.00,12,0,1,373.882,6.457,7.927,914.491,-0.368,1.145
0.077000,435768,1000.00,12,0,1,376.476,7.559,7.994,913.290,-1.121,1.152
0.078000,435769,1000.00,12,0,1,371.047,0.506,7.792,915.404,0.143,1.142
0.079000,435770,1000.00,12,0,1,379.070,3.638,7.702,916.220,1.867,1.136
0.080000,435771,1000.00,12,0,1,386.877,11.317,7.593,916.413,1.098,1.145
0.081000,435772,1000.00,12,0,1,368.429,-5.109,7.353,915.884,1.024,1.136
0.082000,435773,1000.00,12,0,1,361.103,-15.923,7.423,913.602,-1.348,1.136
0.083000,435774,1000.00,12,0,1,368.309,-5.556,7.380,913.987,-1.224,1.137
0.084000,435775,1000.00,12,0,1,371.288,-1.070,7.248,913.530,-0.877,1.136
0.085000,435776,1000.00,12,0,1,364.826,-4.504,7.061,914.323,-0.650,1.131
0.086000,435777,1000.00,12,0,1,360.742,-7.772,6.972,915.956,1.307,1.142
0.087000,435778,1000.00,12,0,1,356.227,-8.287,7.011,916.773,1.710,1.116
0.088000,435779,1000.00,12,0,1,357.572,-6.047,6.942,913.866,-0.573,1.027
0.089000,435780,1000.00,12,0,1,356.010,-3.566,6.758,914.443,-1.162,1.013
0.090000,435781,1000.00,12,0,1,354.569,-4.421,6.784,915.572,0.751,1.015
0.091000,435782,1000.00,12,0,1,356.491,-1.176,6.785,914.947,-0.174,1.014
0.092000,435783,1000.00,12,0,1,364.177,5.457,6.829,916.293,0.712,1.007
0.093000,435784,1000.00,12,0,1,369.822,10.430,6.976,914.635,-0.126,1.002
0.094000,435785,1000.00,12,0,1,373.305,11.064,7.091,916.629,0.300,1.003
0.095000,435786,1000.00,12,0,1,379.983,13.607,7.265,917.061,1.929,1.039
0.096000,435787,1000.00,12,0,1,381.400,12.773,7.441,915.452,-0.534,1.011
0.097000,435788,1000.00,12,0,1,371.432,0.770,7.438,914.755,-0.890,1.017
0.098000,435789,1000.00,12,0,1,373.017,-2.032,7.381,916.148,0.046,0.998
0.099000,435790,1000.00,12,0,1,372.513,-0.892,7.301,917.566,1.613,1.008
0.100000,435791,1000.00,12,0,1,362.544,-10.622,7.386,916.052,0.320,1.001
0.101000,435792,1000.00,12,0,1,360.070,-12.872,7.584,914.851,-1.267,1.016
0.102000,435793,1000.00,12,0,1,364.057,-6.611,7.640,914.179,-1.407,1.035
0.103000,435794,1000.00,12,0,1,363.985,-4.239,7.598,915.140,-0.795,1.039
0.104000,435795,1000.00,12,0,1,363.241,-3.397,7.480,915.572,0.240,1.039
0.105000,435796,1000.00,12,0,1,368.285,2.182,7.467,914.203,-1.092,1.037
0.106000,435797,1000.00,12,0,1,369.462,5.656,7.465,914.251,-1.120,1.047
0.107000,435798,1000.00,12,0,1,365.258,1.947,7.468,914.731,-0.359,1.016
0.108000,435799,1000.00,12,0,1,363.505,0.681,7.468,916.148,0.694,1.007
0.109000,435800,1000.00,12,0,1,361.823,0.154,7.464,914.611,-0.108,1.005
0.110000,435801,1000.00,12,0,1,363.865,1.560,7.467,913.650,-1.683,1.028
0.111000,435802,1000.00,12,0,1,366.051,4.103,7.486,914.731,-0.321,1.028
0.112000,435803,1000.00,12,0,1,366.267,3.185,7.474,914.371,-0.388,1.003
0.113000,435804,1000.00,12,0,1,368.837,3.964,7.489,914.803,-0.286,1.003
0.114000,435805,1000.00,12,0,1,374.098,6.943,7.548,915.116,0.374,0.998
0.115000,435806,1000.00,12,0,1,378.205,8.564,7.643,913.794,-0.828,0.998
0.116000,435807,1000.00,12,0,1,378.518,6.410,7.692,915.067,0.009,0.970
0.117000,435808,1000.00,12,0,1,372.465,-0.918,7.634,916.172,1.497,0.992
0.118000,435809,1000.00,12,0,1,367.060,-7.690,7.677,915.860,0.962,0.987
0.119000,435810,1000.00,12,0,1,364.418,-9.719,7.222,915.140,0.279,0.970
0.120000,435811,1000.00,12,0,1,384.979,6.015,6.956,915.572,0.433,0.966
0.121000,435812,1000.00,12,0,1,385.532,12.012,7.059,914.923,0.195,0.966
0.122000,435813,1000.00,12,0,1,363.505,-11.093,7.231,916.653,1.108,0.976
0.123000,435814,1000.00,12,0,1,359.085,-15.687,7.507,916.245,1.465,0.953
0.124000,435815,1000.00,12,0,1,360.574,-9.342,7.559,913.074,-1.787,0.986
0.125000,435816,1000.00,12,0,1,364.562,-4.635,7.483,915.860,0.027,0.980
0.126000,435817,1000.00,12,0,1,369.942,3.441,7.443,913.506,-0.315,0.980
0.127000,435818,1000.00,12,0,1,367.372,2.234,7.373,913.506,-2.069,1.010
0.128000,435819,1000.00,12,0,1,363.649,-0.884,7.373,914.491,0.347,1.011
0.129000,435820,1000.00,12,0,1,360.262,-2.986,7.367,914.011,-0.671,0.981
0.130000,435821,1000.00,12,0,1,359.974,-2.996,7.204,915.356,0.601,0.972
0.131000,435822,1000.00,12,0,1,360.166,-1.774,7.172,916.965,2.035,1.004
0.132000,435823,1000.00,12,0,1,362.544,-0.185,6.809,914.203,-0.267,0.986
0.133000,435824,1000.00,12,0,1,366.579,3.216,6.779,914.611,-0.901,0.979
0.134000,435825,1000.00,12,0,1,366.243,2.291,6.785,915.572,0.672,0.976
0.135000,435826,1000.00,12,0,1,365.018,-0.581,6.756,914.899,-0.150,0.972
0.136000,435827,1000.00,12,0,1,369.174,1.699,6.670,913.218,-1.535,0.978
0.137000,435828,1000.00,12,0,1,374.218,5.420,6.611,912.329,-2.230,0.999
0.138000,435829,1000.00,12,0,1,374.434,4.521,6.586,913.770,-0.812,1.002
0.139000,435830,1000.00,12,0,1,372.152,0.993,6.569,913.482,-0.191,0.989
0.140000,435831,1000.00,12,0,1,375.948,2.926,6.552,915.380,0.767,0.989
0.141000,435832,1000.00,12,0,1,382.457,8.678,6.664,913.722,0.588,0.993
0.142000,435833,1000.00,12,0,1,376.692,4.194,6.645,915.620,0.664,0.992
0.143000,435834,1000.00,12,0,1,374.891,0.017,6.480,916.052,2.492,1.052
0.144000,435835,1000.00,12,0,1,371.504,-0.343,6.288,913.530,-0.663,1.056
0.145000,435836,1000.00,12,0,1,364.105,-6.835,6.064,916.653,1.540,1.043
0.146000,435837,1000.00,12,0,1,359.349,-9.069,5.929,916.701,2.611,1.104
0.147000,435838,1000.00,12,0,1,358.412,-7.764,6.029,915.644,0.306,1.097
0.148000,435839,1000.00,12,0,1,357.163,-6.257,6.087,915.956,0.890,1.105
0.149000,435840,1000.00,12,0,1,357.163,-4.741,6.122,915.956,0.413,1.082
0.150000,435841,1000.00,12,0,1,356.851,-3.456,5.955,914.611,-0.575,1.084
0.151000,435842,1000.00,12,0,1,353.320,-5.414,5.722,913.458,-1.927,1.104
0.152000,435843,1000.00,12,0,1,358.340,-2.037,5.652,915.116,-0.453,1.088
0.153000,435844,1000.00,12,0,1,364.874,5.122,5.667,915.644,0.535,1.084
0.154000,435845,1000.00,12,0,1,367.781,5.818,5.706,916.100,0.431,1.086
0.155000,435846,1000.00,12,0,1,367.300,4.148,5.728,915.524,0.251,1.075
0.156000,435847,1000.00,12,0,1,368.021,2.242,5.680,918.142,1.610,1.087
0.157000,435848,1000.00,12,0,1,375.227,6.706,5.752,916.581,1.289,1.101
0.158000,435849,1000.00,12,0,1,392.354,19.037,6.351,916.725,-0.238,1.098
0.159000,435850,1000.00,12,0,1,372.392,4.317,6.380,915.572,-0.123,1.098
0.160000,435851,1000.00,12,0,1,356.082,-18.206,6.876,917.205,0.037,1.072
0.161000,435852,1000.00,12,0,1,367.348,-5.112,6.890,917.494,1.351,1.087
0.162000,435853,1000.00,12,0,1,363.937,-3.241,6.890,916.028,-0.657,1.090
0.163000,435854,1000.00,12,0,1,358.965,-8.878,6.981,918.671,1.199,1.102
0.164000,435855,1000.00,12,0,1,360.815,-3.275,6.927,917.422,1.085,1.112
0.165000,435856,1000.00,12,0,1,363.841,0.621,6.821,913.939,-3.045,1.186
0.166000,435857,1000.00,12,0,1,362.208,2.210,6.768,916.989,-0.447,1.188
0.167000,435858,1000.00,12,0,1,360.214,0.272,6.767,916.365,0.158,1.169
0.168000,435859,1000.00,12,0,1,361.127,2.458,6.688,914.875,-2.007,1.196
0.169000,435860,1000.00,12,0,1,358.148,0.693,6.546,914.779,-1.577,1.216
0.170000,435861,1000.00,12,0,1,355.002,-2.449,6.499,915.644,-0.850,1.220
0.171000,435862,1000.00,12,0,1,358.509,0.388,6.274,916.605,0.266,1.220
0.172000,435863,1000.00,12,0,1,363.048,4.419,6.107,914.131,-1.514,1.229
0.173000,435864,1000.00,12,0,1,366.387,5.875,5.750,914.851,-1.704,1.235
0.174000,435865,1000.00,12,0,1,371.191,7.819,5.704,916.365,0.645,1.212
0.175000,435866,1000.00,12,0,1,378.638,11.681,5.902,916.293,0.226,1.213
0.176000,435867,1000.00,12,0,1,376.860,8.362,6.000,914.467,-1.040,1.221
0.177000,435868,1000.00,12,0,1,369.630,-1.514,5.995,914.659,-1.351,1.201
0.178000,435869,1000.00,12,0,1,367.973,-4.753,6.031,916.196,0.549,1.202
0.179000,435870,1000.00,12,0,1,360.983,-9.392,6.162,915.332,0.034,1.198
0.180000,435871,1000.00,12,0,1,360.839,-10.642,6.328,914.707,-0.822,1.201
0.181000,435872,1000.00,12,0,1,365.763,-2.963,6.337,914.947,-0.245,1.167
0.182000,435873,1000.00,12,0,1,365.643,-1.499,6.341,916.293,0.799,1.171
0.183000,435874,1000.00,12,0,1,365.547,-0.535,6.325,917.205,1.908,1.195
0.184000,435875,1000.00,12,0,1,366.748,2.065,6.323,915.428,0.266,1.192
0.185000,435876,1000.00,12,0,1,360.382,-1.473,6.326,913.794,-1.437,1.209
0.186000,435877,1000.00,12,0,1,358.220,-3.519,6.341,915.140,-0.257,1.190
0.187000,435878,1000.00,12,0,1,359.782,0.256,6.295,916.052,1.049,1.157
0.188000,435879,1000.00,12,0,1,362.544,3.167,6.278,916.004,0.775,1.157
0.189000,435880,1000.00,12,0,1,362.328,3.786,6.300,914.659,-0.276,1.157
0.190000,435881,1000.00,12,0,1,361.319,1.928,6.292,914.395,-0.856,1.158
0.191000,435882,1000.00,12,0,1,360.646,0.766,6.172,916.172,0.833,1.161
0.192000,435883,1000.00,12,0,1,365.234,3.156,6.160,917.205,1.859,1.187
0.193000,435884,1000.00,12,0,1,362.976,1.397,6.163,913.963,-0.881,1.140
0.194000,435885,1000.00,12,0,1,367.997,1.817,6.168,914.443,-1.426,1.154
0.195000,435886,1000.00,12,0,1,383.442,14.214,6.415,914.611,-0.163,1.134
0.196000,435887,1000.00,12,0,1,381.088,11.554,6.494,915.932,0.253,1.072
0.197000,435888,1000.00,12,0,1,351.158,-16.940,6.834,915.164,0.442,1.073
0.198000,435889,1000.00,12,0,1,361.103,-14.846,7.095,914.059,-1.194,1.079
0.199000,435890,1000.00,12,0,1,370.735,2.902,7.075,916.269,0.786,1.083
0.200000,435891,1000.00,12,0,1,366.507,-3.745,7.078,917.926,2.599,1.141
0.201000,435892,1000.00,12,0,1,362.256,-5.289,7.076,916.533,1.065,1.118
0.202000,435893,1000.00,12,0,1,363.145,-4.124,7.094,914.995,-0.587,1.119
0.203000,435894,1000.00,12,0,1,375.227,7.382,7.134,915.260,-0.546,1.120
0.204000,435895,1000.00,12,0,1,377.605,12.701,7.310,915.116,-0.208,1.118
0.205000,435896,1000.00,12,0,1,375.179,7.560,7.365,915.380,-0.254,1.118
0.206000,435897,1000.00,12,0,1,358.605,-3.865,7.378,914.419,-0.557,1.098
0.207000,435898,1000.00,12,0,1,348.228,-16.110,7.663,913.578,-1.580,1.105
0.208000,435899,1000.00,12,0,1,356.419,-5.362,7.215,914.059,-0.790,1.110
0.209000,435900,1000.00,12,0,1,365.138,4.323,7.215,915.092,0.240,1.111
0.210000,435901,1000.00,12,0,1,365.138,4.801,6.774,915.092,0.459,1.113
0.211000,435902,1000.00,12,0,1,366.075,3.492,6.753,915.260,0.357,1.097
0.212000,435903,1000.00,12,0,1,365.523,2.423,6.747,914.419,-0.185,1.094
0.213000,435904,1000.00,12,0,1,364.466,-0.472,6.629,914.203,-0.679,1.085
0.214000,435905,1000.00,12,0,1,365.739,-0.758,6.614,915.620,0.626,1.077
0.215000,435906,1000.00,12,0,1,368.693,0.767,6.614,915.788,0.981,0.997
0.216000,435907,1000.00,12,0,1,368.958,0.009,6.607,916.581,1.111,1.008
0.217000,435908,1000.00,12,0,1,363.985,-4.856,6.642,917.133,1.735,1.037
0.218000,435909,1000.00,12,0,1,369.030,-2.590,6.643,918.022,1.870,1.032
0.219000,435910,1000.00,12,0,1,374.218,4.121,6.668,916.965,1.107,1.019
0.220000,435911,1000.00,12,0,1,372.777,1.917,6.664,915.932,-0.511,1.015
0.221000,435912,1000.00,12,0,1,366.267,-3.059,6.678,916.653,0.168,1.014
0.222000,435913,1000.00,12,0,1,358.605,-9.215,6.775,918.358,1.560,1.016
0.223000,435914,1000.00,12,0,1,357.644,-8.377,6.828,917.157,0.747,0.992
0.224000,435915,1000.00,12,0,1,377.101,9.332,6.866,915.860,-0.992,0.998
0.225000,435916,1000.00,12,0,1,368.982,8.786,6.779,916.653,-0.241,0.998
0.226000,435917,1000.00,12,0,1,362.136,-3.407,6.692,915.452,-0.810,0.994
0.227000,435918,1000.00,12,0,1,361.535,0.357,6.689,914.083,-2.323,1.029
0.228000,435919,1000.00,12,0,1,359.613,-2.187,6.662,915.452,-0.870,1.034
0.229000,435920,1000.00,12,0,1,360.863,-0.235,6.529,916.821,0.667,1.038
0.230000,435921,1000.00,12,0,1,366.027,4.160,6.380,915.980,0.032,1.031
0.231000,435922,1000.00,12,0,1,360.166,-0.367,6.367,915.260,-0.947,1.040
0.232000,435923,1000.00,12,0,1,363.913,-0.602,6.364,915.956,-0.295,1.034
0.233000,435924,1000.00,12,0,1,366.171,2.811,6.376,915.884,-0.190,0.999
0.234000,435925,1000.00,12,0,1,368.669,1.968,6.375,916.461,-0.004,0.998
0.235000,435926,1000.00,12,0,1,369.222,1.988,6.378,916.917,0.553,0.980
0.236000,435927,1000.00,12,0,1,363.937,-3.874,6.382,916.749,0.155,0.980
0.237000,435928,1000.00,12,0,1,361.103,-7.881,6.478,915.740,-0.696,0.974
0.238000,435929,1000.00,12,0,1,363.745,-4.631,6.496,916.220,-0.585,0.971
0.239000,435930,1000.00,12,0,1,365.619,-2.340,6.482,916.629,0.159,0.970
0.240000,435931,1000.00,12,0,1,368.333,0.745,6.477,916.869,0.182,0.963
0.241000,435932,1000.00,12,0,1,368.141,1.477,6.480,917.133,0.504,0.959
0.242000,435933,1000.00,12,0,1,361.655,-2.960,6.478,916.148,-0.260,0.923
0.243000,435934,1000.00,12,0,1,354.881,-8.131,6.576,915.692,-0.843,0.922
0.244000,435935,1000.00,12,0,1,358.436,-3.413,6.589,915.860,-0.366,0.901
0.245000,435936,1000.00,12,0,1,362.856,3.576,6.295,915.380,-0.624,0.905
0.246000,435937,1000.00,12,0,1,364.370,5.621,6.131,915.812,-0.231,0.905
0.247000,435938,1000.00,12,0,1,364.418,6.070,5.709,915.043,-0.453,0.905
0.248000,435939,1000.00,12,0,1,358.388,1.220,5.311,915.740,-0.217,0.890
0.249000,435940,1000.00,12,0,1,355.170,-2.814,5.311,914.971,-0.182,0.883
0.250000,435941,1000.00,12,0,1,359.229,1.114,5.286,917.133,0.831,0.811
0.251000,435942,1000.00,12,0,1,360.502,2.596,5.246,915.812,0.814,0.806
0.252000,435943,1000.00,12,0,1,357.620,-0.962,5.215,916.172,-0.318,0.803
0.253000,435944,1000.00,12,0,1,357.163,-2.605,5.123,915.428,0.060,0.799
0.254000,435945,1000.00,12,0,1,358.821,-1.539,4.803,914.443,-1.568,0.829
0.255000,435946,1000.00,12,0,1,360.070,-1.029,4.685,914.467,-1.145,0.844
0.256000,435947,1000.00,12,0,1,365.931,2.740,4.669,915.308,-0.366,0.841
0.257000,435948,1000.00,12,0,1,378.302,12.316,4.432,916.028,0.386,0.813
0.258000,435949,1000.00,12,0,1,362.136,0.421,4.367,915.644,0.240,0.806
0.259000,435950,1000.00,12,0,1,354.425,-12.783,4.686,914.059,-1.272,0.825
0.260000,435951,1000.00,12,0,1,365.354,0.449,4.637,915.860,0.133,0.823
0.261000,435952,1000.00,12,0,1,372.945,8.147,4.753,915.548,0.662,0.827
0.262000,435953,1000.00,12,0,1,371.768,7.509,4.858,915.380,-0.052,0.826
0.263000,435954,1000.00,12,0,1,363.072,-0.057,4.857,915.404,0.414,0.823
0.264000,435955,1000.00,12,0,1,361.055,-2.874,4.873,915.836,0.604,0.822
0.265000,435956,1000.00,12,0,1,360.935,-0.049,4.872,914.515,-0.147,0.811
0.266000,435957,1000.00,12,0,1,363.265,1.601,4.877,914.779,-0.342,0.797
0.267000,435958,1000.00,12,0,1,370.759,9.195,5.001,915.980,1.112,0.774
0.268000,435959,1000.00,12,0,1,361.703,2.691,5.002,916.004,1.137,0.745
0.269000,435960,1000.00,12,0,1,359.373,-3.301,4.990,917.446,1.866,0.775
0.270000,435961,1000.00,12,0,1,360.694,0.168,4.982,917.013,1.830,0.814
0.271000,435962,1000.00,12,0,1,364.346,1.152,4.966,915.932,0.023,0.814
0.272000,435963,1000.00,12,0,1,364.538,1.995,4.800,915.692,-0.110,0.783
0.273000,435964,1000.00,12,0,1,365.018,-0.264,4.652,916.317,0.109,0.776
0.274000,435965,1000.00,12,0,1,366.916,0.631,4.462,916.653,0.534,0.767
0.275000,435966,1000.00,12,0,1,367.588,-0.105,4.285,915.140,-0.868,0.776
0.276000,435967,1000.00,12,0,1,368.189,-1.080,4.261,915.812,-0.757,0.775
0.277000,435968,1000.00,12,0,1,368.982,-0.955,4.263,915.884,-0.076,0.702
0.278000,435969,1000.00,12,0,1,366.748,-3.436,4.279,917.806,0.883,0.703
0.279000,435970,1000.00,12,0,1,365.907,-4.395,4.324,914.659,-0.709,0.703
0.280000,435971,1000.00,12,0,1,375.251,3.166,4.307,914.899,-2.082,0.763
0.281000,435972,1000.00,12,0,1,376.020,6.457,4.403,915.284,-0.160,0.751
0.282000,435973,1000.00,12,0,1,372.272,1.002,4.404,915.404,-0.712,0.757
0.283000,435974,1000.00,12,0,1,373.425,2.609,4.402,915.644,0.099,0.756
0.284000,435975,1000.00,12,0,1,383.730,10.721,4.647,915.067,-0.405,0.758
0.285000,435976,1000.00,12,0,1,376.764,7.440,4.756,915.524,-0.133,0.755
0.286000,435977,1000.00,12,0,1,375.611,1.432,4.729,915.260,0.156,0.755
0.287000,435978,1000.00,12,0,1,385.868,11.695,4.884,914.971,-0.482,0.751
0.288000,435979,1000.00,12,0,1,358.653,-8.711,4.995,916.196,0.826,0.756
0.289000,435980,1000.00,12,0,1,347.051,-26.092,6.201,915.452,0.306,0.757
0.290000,435981,1000.00,12,0,1,353.608,-12.949,6.465,914.947,-0.466,0.759
0.291000,435982,1000.00,12,0,1,363.409,-4.661,6.495,915.404,0.010,0.756
0.292000,435983,1000.00,12,0,1,366.772,1.427,6.485,914.347,-0.682,0.761
0.293000,435984,1000.00,12,0,1,366.507,-1.118,6.384,916.773,0.738,0.759
0.294000,435985,1000.00,12,0,1,369.846,0.949,6.367,917.133,1.950,0.806
0.295000,435986,1000.00,12,0,1,372.585,2.609,6.358,915.572,-0.301,0.802
0.296000,435987,1000.00,12,0,1,372.609,0.872,6.309,914.827,-0.856,0.810
0.297000,435988,1000.00,12,0,1,367.108,-4.058,6.276,914.515,-1.136,0.824
0.298000,435989,1000.00,12,0,1,367.132,-6.211,6.335,913.050,-2.018,0.871
0.299000,435990,1000.00,12,0,1,377.629,3.848,6.346,912.521,-2.414,0.935
0.300000,435991,1000.00,12,0,1,377.605,5.200,6.387,914.323,-0.477,0.930
0.301000,435992,1000.00,12,0,1,373.353,-0.165,6.376,915.980,1.480,0.947
0.302000,435993,1000.00,12,0,1,375.275,1.627,6.379,916.485,1.790,0.979
0.303000,435994,1000.00,12,0,1,376.140,3.653,6.389,916.773,1.885,1.015
0.304000,435995,1000.00,12,0,1,370.375,-0.626,6.386,914.779,0.162,0.990
0.305000,435996,1000.00,12,0,1,362.736,-6.529,6.451,915.428,0.028,0.977
0.306000,435997,1000.00,12,0,1,364.129,-4.562,6.471,915.140,0.528,0.978
0.307000,435998,1000.00,12,0,1,365.258,-0.389,6.233,913.074,-1.603,1.003
0.308000,435999,1000.00,12,0,1,360.622,-3.590,6.253,916.100,0.637,1.006
0.309000,436000,1000.00,12,0,1,363.529,-1.249,5.989,917.085,2.501,1.051
0.310000,436001,1000.00,12,0,1,366.796,3.314,6.007,915.428,0.196,1.052
0.311000,436002,1000.00,12,0,1,373.353,7.077,5.980,914.779,-0.420,1.049
0.312000,436003,1000.00,12,0,1,368.789,4.143,5.914,915.740,0.185,1.049
0.313000,436004,1000.00,12,0,1,361.919,-5.658,5.968,916.269,0.866,1.055
0.314000,436005,1000.00,12,0,1,362.352,-5.471,6.004,914.851,-0.467,1.053
0.315000,436006,1000.00,12,0,1,371.264,1.210,6.006,914.659,-1.000,1.063
0.316000,436007,1000.00,12,0,1,377.749,7.091,6.085,916.220,0.558,1.065
0.317000,436008,1000.00,12,0,1,381.664,8.054,6.053,916.220,0.712,1.058
0.318000,436009,1000.00,12,0,1,368.621,-2.966,6.055,915.500,-0.180,1.046
0.319000,436010,1000.00,12,0,1,353.320,-18.794,6.596,914.299,-1.126,1.024
0.320000,436011,1000.00,12,0,1,358.172,-13.509,6.867,914.107,-1.374,1.010
0.321000,436012,1000.00,12,0,1,368.429,-0.038,6.866,916.701,0.951,1.019
0.322000,436013,1000.00,12,0,1,369.894,2.930,6.872,917.494,2.121,1.062
0.323000,436014,1000.00,12,0,1,359.686,-3.954,6.895,914.587,-0.670,1.066
0.324000,436015,1000.00,12,0,1,359.325,-5.294,6.935,916.220,-0.065,1.063
0.325000,436016,1000.00,12,0,1,367.588,5.553,6.979,915.980,0.847,1.063
0.326000,436017,1000.00,12,0,1,367.636,7.075,7.049,915.668,-0.396,1.059
0.327000,436018,1000.00,12,0,1,365.210,4.441,7.075,914.419,-0.751,1.064
0.328000,436019,1000.00,12,0,1,372.993,10.162,7.204,913.698,-1.860,1.089
0.329000,436020,1000.00,12,0,1,378.518,15.382,7.499,915.668,0.131,1.085
0.330000,436021,1000.00,12,0,1,372.657,8.254,7.576,916.220,1.053,1.055
0.331000,436022,1000.00,12,0,1,369.630,2.111,7.527,915.524,0.036,1.054
0.332000,436023,1000.00,12,0,1,371.071,2.447,7.534,915.860,0.281,1.050
0.333000,436024,1000.00,12,0,1,366.195,-2.657,7.534,915.404,-0.094,1.050
0.334000,436025,1000.00,12,0,1,361.607,-8.410,7.475,914.563,-0.902,1.057
0.335000,436026,1000.00,12,0,1,364.442,-6.353,7.455,915.980,0.095,1.056
0.336000,436027,1000.00,12,0,1,364.826,-4.867,7.484,916.004,0.663,1.060
0.337000,436028,1000.00,12,0,1,371.360,-0.867,7.300,917.277,1.005,1.068
0.338000,436029,1000.00,12,0,1,376.116,4.784,7.227,914.611,-0.418,1.063
0.339000,436030,1000.00,12,0,1,377.437,4.098,6.241,916.004,-0.715,1.067
0.340000,436031,1000.00,12,0,1,372.416,0.162,5.966,915.740,0.642,1.069
0.341000,436032,1000.00,12,0,1,365.643,-6.626,6.003,913.578,-2.095,1.109
0.342000,436033,1000.00,12,0,1,362.928,-7.788,6.100,915.067,-0.621,1.108
0.343000,436034,1000.00,12,0,1,368.837,-1.386,6.101,915.740,0.656,1.107
0.344000,436035,1000.00,12,0,1,373.113,4.846,6.138,915.236,-0.124,1.073
0.345000,436036,1000.00,12,0,1,374.266,5.912,6.184,916.004,0.669,1.076
0.346000,436037,1000.00,12,0,1,368.117,1.458,6.186,913.050,-1.485,1.089
0.347000,436038,1000.00,12,0,1,362.568,-4.137,6.187,915.644,-0.274,1.078
0.348000,436039,1000.00,12,0,1,361.103,-4.314,6.155,916.821,2.201,1.085
0.349000,436040,1000.00,12,0,1,359.517,-4.414,6.162,915.932,0.458,1.032
0.350000,436041,1000.00,12,0,1,357.932,-5.262,6.163,915.908,0.484,1.032
0.351000,436042,1000.00,12,0,1,361.511,-1.842,6.169,916.509,0.781,1.017
0.352000,436043,1000.00,12,0,1,362.808,0.150,6.164,915.620,0.058,0.985
0.353000,436044,1000.00,12,0,1,365.066,0.825,6.144,916.124,0.059,0.948
0.354000,436045,1000.00,12,0,1,367.252,2.429,6.153,914.947,-0.546,0.951
0.355000,436046,1000.00,12,0,1,375.179,7.015,6.164,915.548,-0.611,0.955
0.356000,436047,1000.00,12,0,1,387.525,16.258,6.547,915.019,-0.374,0.954
0.357000,436048,1000.00,12,0,1,369.510,1.538,6.550,915.596,-0.404,0.928
0.358000,436049,1000.00,12,0,1,361.463,-12.998,6.784,916.581,0.874,0.932
0.359000,436050,1000.00,12,0,1,366.676,-4.214,6.808,915.500,-0.033,0.862
0.360000,436051,1000.00,12,0,1,371.864,-0.069,6.792,914.611,-1.114,0.876
0.361000,436052,1000.00,12,0,1,371.864,1.987,6.724,914.611,-0.777,0.881
0.362000,436053,1000.00,12,0,1,371.864,1.266,6.700,914.611,-0.718,0.886
0.363000,436054,1000.00,12,0,1,371.600,2.166,6.659,915.620,0.315,0.879
0.364000,436055,1000.00,12,0,1,360.815,-5.330,6.657,917.542,1.929,0.918
0.365000,436056,1000.00,12,0,1,356.179,-10.242,6.811,917.662,2.161,0.957
0.366000,436057,1000.00,12,0,1,354.497,-7.217,6.813,915.524,-0.118,0.954
0.367000,436058,1000.00,12,0,1,354.449,-6.433,6.779,914.899,-1.033,0.960
0.368000,436059,1000.00,12,0,1,363.529,3.392,6.783,915.740,-0.120,0.960
0.369000,436060,1000.00,12,0,1,367.420,8.406,6.353,917.950,1.648,0.975
0.370000,436061,1000.00,12,0,1,366.147,5.754,6.113,915.884,0.377,0.956
0.371000,436062,1000.00,12,0,1,368.381,6.058,6.173,916.965,-0.056,0.947
0.372000,436063,1000.00,12,0,1,373.497,8.897,6.286,916.581,0.741,0.904
0.373000,436064,1000.00,12,0,1,378.398,11.004,6.452,914.443,-1.936,0.940
0.374000,436065,1000.00,12,0,1,373.425,4.991,6.447,913.987,-2.065,0.984
0.375000,436066,1000.00,12,0,1,365.715,-5.021,6.438,915.092,-0.898,0.985
0.376000,436067,1000.00,12,0,1,367.036,-5.231,6.403,915.404,-0.240,0.984
0.377000,436068,1000.00,12,0,1,371.264,-1.022,6.373,916.124,0.307,0.979
0.378000,436069,1000.00,12,0,1,376.740,2.973,6.224,916.461,0.712,0.949
0.379000,436070,1000.00,12,0,1,373.233,0.925,5.832,917.542,1.394,0.969
0.380000,436071,1000.00,12,0,1,370.014,-3.825,5.740,914.707,-0.632,0.962
0.381000,436072,1000.00,12,0,1,370.735,-1.799,5.738,914.419,-1.818,0.995
0.382000,436073,1000.00,12,0,1,376.092,2.928,5.742,914.875,-0.469,0.997
0.383000,436074,1000.00,12,0,1,386.108,12.124,5.981,915.428,-0.234,0.997
0.384000,436075,1000.00,12,0,1,384.955,11.908,6.099,914.851,-0.265,0.990
0.385000,436076,1000.00,12,0,1,363.169,-7.554,6.126,913.458,-1.536,1.013
0.386000,436077,1000.00,12,0,1,365.475,-9.481,6.233,912.737,-2.003,1.048
0.387000,436078,1000.00,12,0,1,374.602,4.119,6.259,912.497,-1.715,1.066
0.388000,436079,1000.00,12,0,1,376.260,4.298,6.252,914.707,0.141,1.065
0.389000,436080,1000.00,12,0,1,362.208,-6.228,6.287,916.437,2.327,1.110
0.390000,436081,1000.00,12,0,1,353.921,-16.311,6.697,916.845,2.162,1.147
0.391000,436082,1000.00,12,0,1,359.806,-9.050,6.753,914.923,0.608,1.112
0.392000,436083,1000.00,12,0,1,369.510,0.726,6.664,913.458,-1.320,1.124
0.393000,436084,1000.00,12,0,1,374.290,4.742,6.695,913.818,-0.723,1.125
0.394000,436085,1000.00,12,0,1,372.729,2.332,6.668,915.524,0.782,1.130
0.395000,436086,1000.00,12,0,1,371.552,-1.206,6.617,915.404,1.043,1.136
0.396000,436087,1000.00,12,0,1,371.336,-1.575,6.618,916.293,1.200,1.129
0.397000,436088,1000.00,12,0,1,373.521,-1.172,6.594,917.926,2.713,1.192
0.398000,436089,1000.00,12,0,1,374.674,0.490,6.566,916.317,1.251,1.164
0.399000,436090,1000.00,12,0,1,375.875,0.461,6.537,914.179,-1.242,1.175
0.400000,436091,1000.00,12,0,1,373.618,-0.457,6.494,914.995,-0.550,1.176
0.401000,436092,1000.00,12,0,1,367.612,-5.618,6.538,914.779,-0.236,1.171
0.402000,436093,1000.00,12,0,1,370.255,-3.018,6.551,914.443,-0.733,1.176
0.403000,436094,1000.00,12,0,1,369.006,-0.663,6.551,913.770,-0.944,1.183
0.404000,436095,1000.00,12,0,1,366.411,-2.985,6.556,915.812,0.479,1.183
0.405000,436096,1000.00,12,0,1,364.033,-2.542,6.490,914.419,0.243,1.180
0.406000,436097,1000.00,12,0,1,361.511,-3.733,6.092,913.338,-1.610,1.201
0.407000,436098,1000.00,12,0,1,364.009,-0.335,6.088,915.524,0.655,1.203
0.408000,436099,1000.00,12,0,1,359.421,-1.786,5.810,914.083,-0.009,1.197
0.409000,436100,1000.00,12,0,1,356.779,-5.156,5.825,914.875,-0.351,1.198
0.410000,436101,1000.00,12,0,1,370.495,6.889,5.906,916.461,1.822,1.215
0.411000,436102,1000.00,12,0,1,381.664,17.467,6.396,915.980,0.886,1.216
0.412000,436103,1000.00,12,0,1,365.402,2.582,6.403,915.356,0.200,1.212
0.413000,436104,1000.00,12,0,1,352.335,-14.130,6.701,915.668,0.173,1.212
0.414000,436105,1000.00,12,0,1,355.338,-10.223,6.814,915.788,0.371,1.182
0.415000,436106,1000.00,12,0,1,362.664,-2.822,6.670,916.581,0.757,1.147
0.416000,436107,1000.00,12,0,1,370.423,4.175,6.618,915.812,0.311,1.147
0.417000,436108,1000.00,12,0,1,373.425,6.658,6.622,915.860,-0.174,1.138
0.418000,436109,1000.00,12,0,1,377.557,7.932,6.699,915.956,0.222,1.139
0.419000,436110,1000.00,12,0,1,374.050,5.433,6.638,916.701,0.563,1.117
0.420000,436111,1000.00,12,0,1,363.505,-5.384,6.631,917.157,1.111,1.127
0.421000,436112,1000.00,12,0,1,370.495,-0.518,6.576,916.773,0.576,1.130
0.422000,436113,1000.00,12,0,1,374.650,7.022,6.531,916.004,-0.236,1.126
0.423000,436114,1000.00,12,0,1,370.831,2.609,6.353,915.764,-0.508,1.094
0.424000,436115,1000.00,12,0,1,368.093,0.901,6.315,914.971,-1.042,1.065
0.425000,436116,1000.00,12,0,1,360.694,-4.115,6.302,916.845,0.265,1.058
0.426000,436117,1000.00,12,0,1,359.517,-5.291,6.303,918.526,2.142,1.100
0.427000,436118,1000.00,12,0,1,361.727,-0.566,6.302,916.437,0.169,1.099
0.428000,436119,1000.00,12,0,1,364.730,2.179,6.295,915.019,-1.725,1.121
0.429000,436120,1000.00,12,0,1,370.711,7.600,6.385,914.347,-1.898,1.136
0.430000,436121,1000.00,12,0,1,373.353,9.226,6.495,915.644,-1.013,1.142
0.431000,436122,1000.00,12,0,1,370.135,4.627,6.523,915.116,-0.650,1.116
0.432000,436123,1000.00,12,0,1,362.808,-3.432,6.527,914.419,-1.747,1.141
0.433000,436124,1000.00,12,0,1,364.129,-4.636,6.332,915.860,-0.211,1.141
0.434000,436125,1000.00,12,0,1,363.120,-4.058,6.131,916.797,0.823,1.146
0.435000,436126,1000.00,12,0,1,356.611,-10.783,6.227,917.205,0.949,1.134
0.436000,436127,1000.00,12,0,1,357.043,-10.493,6.259,915.932,-0.020,1.098
0.437000,436128,1000.00,12,0,1,365.162,-2.328,6.241,916.317,-0.297,1.071
0.438000,436129,1000.00,12,0,1,366.123,0.298,6.211,916.917,0.735,1.076
0.439000,436130,1000.00,12,0,1,365.475,-1.234,6.151,916.028,-0.230,1.025
0.440000,436131,1000.00,12,0,1,369.174,2.493,5.713,916.869,0.288,0.979
0.441000,436132,1000.00,12,0,1,371.600,5.364,5.619,917.085,0.844,0.983
0.442000,436133,1000.00,12,0,1,373.594,6.697,5.698,914.659,-1.301,0.982
0.443000,436134,1000.00,12,0,1,368.669,3.557,5.680,916.413,-0.338,0.978
0.444000,436135,1000.00,12,0,1,370.855,3.420,5.691,917.373,1.472,0.994
0.445000,436136,1000.00,12,0,1,357.428,-3.674,5.713,916.076,-0.139,0.983
0.446000,436137,1000.00,12,0,1,340.949,-19.975,6.369,916.989,0.412,0.970
0.447000,436138,1000.00,12,0,1,359.758,-2.663,6.378,916.461,0.385,0.893
0.448000,436139,1000.00,12,0,1,366.579,10.796,6.558,915.620,-0.873,0.884
0.449000,436140,1000.00,12,0,1,363.265,3.741,6.579,915.500,-0.707,0.872
0.450000,436141,1000.00,12,0,1,367.540,7.651,6.667,917.470,0.663,0.873
0.451000,436142,1000.00,12,0,1,359.878,0.971,6.621,916.245,0.315,0.874
0.452000,436143,1000.00,12,0,1,355.722,-5.872,6.659,915.067,-1.594,0.896
0.453000,436144,1000.00,12,0,1,359.734,-1.634,6.662,916.653,0.053,0.887
0.454000,436145,1000.00,12,0,1,358.100,-2.890,6.661,917.926,1.284,0.902
0.455000,436146,1000.00,12,0,1,359.157,-3.400,6.669,916.389,-0.041,0.902
0.456000,436147,1000.00,12,0,1,366.195,2.623,6.658,915.019,-1.598,0.901
0.457000,436148,1000.00,12,0,1,373.738,8.544,6.767,916.749,-0.159,0.897
0.458000,436149,1000.00,12,0,1,373.449,7.589,6.847,916.605,0.431,0.899
0.459000,436150,1000.00,12,0,1,370.062,2.443,6.817,914.875,-1.455,0.921
0.460000,436151,1000.00,12,0,1,365.667,-1.591,6.751,914.563,-1.507,0.909
0.461000,436152,1000.00,12,0,1,366.579,-1.433,6.286,915.452,-0.506,0.904
0.462000,436153,1000.00,12,0,1,360.406,-4.017,6.301,914.059,-1.069,0.916
0.463000,436154,1000.00,12,0,1,350.173,-12.567,6.234,914.155,-1.343,0.935
0.464000,436155,1000.00,12,0,1,356.467,-5.946,6.122,914.707,-0.093,0.933
0.465000,436156,1000.00,12,0,1,360.742,2.748,6.122,915.043,0.127,0.927
0.466000,436157,1000.00,12,0,1,358.653,0.899,6.094,914.059,-0.336,0.928
0.467000,436158,1000.00,12,0,1,358.917,2.100,6.028,914.971,0.064,0.927
0.468000,436159,1000.00,12,0,1,360.959,4.054,5.951,916.941,2.111,0.974
0.469000,436160,1000.00,12,0,1,364.129,6.607,5.975,915.284,0.823,0.977
0.470000,436161,1000.00,12,0,1,375.275,14.204,6.257,915.428,0.001,0.965
0.471000,436162,1000.00,12,0,1,369.846,10.260,6.423,914.131,-0.289,0.962
0.472000,436163,1000.00,12,0,1,348.876,-11.751,6.559,914.419,-0.946,0.971
0.473000,436164,1000.00,12,0,1,355.962,-9.455,6.684,915.524,0.790,0.975
0.474000,436165,1000.00,12,0,1,364.874,3.078,6.697,912.786,-1.488,0.986
0.475000,436166,1000.00,12,0,1,364.970,0.373,6.672,914.803,-0.533,0.988
0.476000,436167,1000.00,12,0,1,366.507,1.268,6.632,915.380,1.363,0.960
0.477000,436168,1000.00,12,0,1,361.319,-3.498,6.650,914.851,-0.001,0.960
0.478000,436169,1000.00,12,0,1,357.764,-7.846,6.735,915.019,0.607,0.932
0.479000,436170,1000.00,12,0,1,358.629,-5.621,6.696,914.971,0.354,0.894
0.480000,436171,1000.00,12,0,1,359.517,-3.743,6.589,914.923,0.424,0.885
0.481000,436172,1000.00,12,0,1,363.769,0.951,6.558,915.140,0.575,0.884
0.482000,436173,1000.00,12,0,1,363.601,2.643,6.551,915.428,0.808,0.856
0.483000,436174,1000.00,12,0,1,357.259,-2.300,6.526,913.554,-0.531,0.859
0.484000,436175,1000.00,12,0,1,358.653,-1.152,6.503,912.329,-1.970,0.895
0.485000,436176,1000.00,12,0,1,359.589,2.466,6.331,914.851,0.449,0.888
0.486000,436177,1000.00,12,0,1,360.670,3.032,6.169,917.686,3.199,0.996
0.487000,436178,1000.00,12,0,1,359.950,3.771,6.184,916.509,2.171,1.042
0.488000,436179,1000.00,12,0,1,364.706,6.294,6.247,916.293,0.918,1.045
0.489000,436180,1000.00,12,0,1,362.328,5.742,6.297,915.620,0.629,1.048
0.490000,436181,1000.00,12,0,1,360.694,1.182,6.290,915.212,-0.380,1.048
0.491000,436182,1000.00,12,0,1,373.353,10.693,6.424,915.452,-0.006,1.042
0.492000,436183,1000.00,12,0,1,352.407,-3.744,6.376,916.004,0.272,1.026
0.493000,436184,1000.00,12,0,1,345.393,-18.712,6.885,915.932,0.255,1.025
0.494000,436185,1000.00,12,0,1,348.228,-9.328,6.994,915.019,-0.640,1.008
0.495000,436186,1000.00,12,0,1,353.969,-6.626,7.037,916.052,-0.079,1.008
0.496000,436187,1000.00,12,0,1,353.560,-3.016,6.459,916.989,1.122,1.019
0.497000,436188,1000.00,12,0,1,355.338,-3.653,6.469,917.638,1.230,1.032
0.498000,436189,1000.00,12,0,1,366.339,6.659,6.356,918.502,1.892,1.059
0.499000,436190,1000.00,12,0,1,373.257,13.302,6.608,917.085,0.524,1.057
0.500000,436191,1000.00,12,0,1,367.588,6.836,6.590,916.124,-0.853,1.060
0.501000,436192,1000.00,12,0,1,360.214,-0.849,6.589,915.164,-1.373,1.076
0.502000,436193,1000.00,12,0,1,353.704,-6.381,6.599,916.245,-0.743,1.058
0.503000,436194,1000.00,12,0,1,346.907,-10.155,6.749,915.308,-0.716,1.063
0.504000,436195,1000.00,12,0,1,347.243,-8.759,6.850,914.755,-1.749,1.076
0.505000,436196,1000.00,12,0,1,352.335,-0.734,6.834,915.164,-0.831,1.082
0.506000,436197,1000.00,12,0,1,355.002,3.040,6.837,914.683,-1.112,1.070
0.507000,436198,1000.00,12,0,1,358.004,6.250,6.788,915.164,-0.751,1.075
0.508000,436199,1000.00,12,0,1,370.975,15.957,7.072,914.299,-0.951,1.082
0.509000,436200,1000.00,12,0,1,354.185,4.915,7.098,915.260,-0.662,1.066
0.510000,436201,1000.00,12,0,1,337.178,-16.556,7.470,916.725,1.226,1.059
0.511000,436202,1000.00,12,0,1,357.692,1.626,7.471,915.500,-0.002,1.056
0.512000,436203,1000.00,12,0,1,364.177,12.286,7.649,915.164,-0.669,1.050
0.513000,436204,1000.00,12,0,1,354.665,-0.603,7.441,915.332,-0.278,1.033
0.514000,436205,1000.00,12,0,1,363.289,4.296,7.418,914.803,-0.735,1.038
0.515000,436206,1000.00,12,0,1,372.392,12.635,7.620,913.410,-1.716,1.066
0.516000,436207,1000.00,12,0,1,373.666,10.769,7.770,914.923,-0.641,1.069
0.517000,436208,1000.00,12,0,1,370.855,5.875,7.808,914.899,0.291,1.070
0.518000,436209,1000.00,12,0,1,371.792,3.787,7.806,915.764,0.398,1.029
0.519000,436210,1000.00,12,0,1,366.243,-0.681,7.750,915.620,0.983,1.031
0.520000,436211,1000.00,12,0,1,357.836,-9.443,7.604,915.260,0.156,1.032
0.521000,436212,1000.00,12,0,1,340.205,-21.618,8.066,915.380,0.504,1.033
0.522000,436213,1000.00,12,0,1,344.216,-19.108,8.342,916.100,1.000,1.034
0.523000,436214,1000.00,12,0,1,363.289,3.866,8.253,914.299,-0.214,1.029
0.524000,436215,1000.00,12,0,1,366.531,9.443,8.349,914.395,-0.709,1.012
0.525000,436216,1000.00,12,0,1,363.529,5.107,8.380,915.212,0.560,1.012
0.526000,436217,1000.00,12,0,1,359.109,1.965,8.382,915.356,0.577,0.997
0.527000,436218,1000.00,12,0,1,360.478,1.371,8.370,914.587,-0.057,0.997
0.528000,436219,1000.00,12,0,1,367.612,8.347,8.380,916.172,0.916,1.002
0.529000,436220,1000.00,12,0,1,356.683,-0.292,8.342,913.626,-0.516,1.003
0.530000,436221,1000.00,12,0,1,355.074,-6.102,8.370,913.578,-1.715,1.030
0.531000,436222,1000.00,12,0,1,360.670,1.100,8.370,914.947,0.405,1.029
0.532000,436223,1000.00,12,0,1,358.989,-1.170,8.364,914.443,-0.150,1.023
0.533000,436224,1000.00,12,0,1,360.406,-1.545,8.360,914.971,0.058,1.020
0.534000,436225,1000.00,12,0,1,368.021,4.447,8.382,913.987,-0.287,0.982
0.535000,436226,1000.00,12,0,1,379.935,12.855,8.570,914.971,-0.184,0.980
0.536000,436227,1000.00,12,0,1,356.803,-4.541,8.583,912.257,-1.257,0.888
0.537000,436228,1000.00,12,0,1,345.850,-22.121,9.120,913.242,-1.776,0.870
0.538000,436229,1000.00,12,0,1,358.412,-5.843,9.114,915.332,1.569,0.888
0.539000,436230,1000.00,12,0,1,371.312,6.343,9.122,915.284,1.035,0.896
0.540000,436231,1000.00,12,0,1,370.711,7.534,9.182,916.653,2.055,0.940
0.541000,436232,1000.00,12,0,1,366.820,1.988,9.061,915.092,1.069,0.952
0.542000,436233,1000.00,12,0,1,358.965,-3.789,9.062,913.170,-1.380,0.971
0.543000,436234,1000.00,12,0,1,355.386,-7.084,8.725,916.124,1.196,0.985
0.544000,436235,1000.00,12,0,1,360.598,-1.067,8.626,916.941,2.482,1.042
0.545000,436236,1000.00,12,0,1,363.937,4.238,8.595,917.686,2.238,1.089
0.546000,436237,1000.00,12,0,1,365.499,4.812,8.612,917.037,1.816,1.108
0.547000,436238,1000.00,12,0,1,363.096,3.668,8.612,915.212,-0.426,1.095
0.548000,436239,1000.00,12,0,1,362.808,1.386,8.562,916.341,0.146,1.062
0.549000,436240,1000.00,12,0,1,368.982,6.658,8.406,915.500,0.016,1.060
0.550000,436241,1000.00,12,0,1,355.890,-3.324,8.364,913.242,-2.485,1.110
0.551000,436242,1000.00,12,0,1,351.014,-12.056,8.535,914.323,-1.491,1.113
0.552000,436243,1000.00,12,0,1,354.761,-5.626,8.524,914.563,-0.637,1.112
0.553000,436244,1000.00,12,0,1,363.265,0.554,8.403,914.971,-0.563,1.110
0.554000,436245,1000.00,12,0,1,358.605,-0.926,8.312,913.866,-0.981,1.091
0.555000,436246,1000.00,12,0,1,361.943,-2.394,8.318,916.341,0.378,1.086
0.556000,436247,1000.00,12,0,1,379.527,13.573,8.526,915.668,0.991,1.084
0.557000,436248,1000.00,12,0,1,394.684,25.115,9.194,914.851,-0.886,1.086
0.558000,436249,1000.00,12,0,1,368.381,2.740,8.921,914.923,-0.242,1.078
0.559000,436250,1000.00,12,0,1,348.468,-22.481,9.445,916.172,0.477,1.076
0.560000,436251,1000.00,12,0,1,357.596,-11.323,9.289,915.524,0.389,1.063
0.561000,436252,1000.00,12,0,1,359.253,-4.733,9.310,914.563,-0.856,1.070
0.562000,436253,1000.00,12,0,1,359.181,-5.346,9.178,914.299,-0.919,1.074
0.563000,436254,1000.00,12,0,1,357.740,-2.754,9.186,915.908,0.481,1.075
0.564000,436255,1000.00,12,0,1,360.887,-0.901,9.167,913.722,-0.731,1.075
0.565000,436256,1000.00,12,0,1,363.649,4.733,9.016,913.722,-1.518,1.069
0.566000,436257,1000.00,12,0,1,363.529,3.671,8.901,915.428,0.711,1.070
0.567000,436258,1000.00,12,0,1,360.118,1.647,8.866,915.692,0.970,1.078
0.568000,436259,1000.00,12,0,1,350.846,-6.506,8.897,917.446,2.002,1.113
0.569000,436260,1000.00,12,0,1,353.080,-5.681,8.933,916.869,1.931,1.138
0.570000,436261,1000.00,12,0,1,369.582,9.654,8.937,915.356,-0.317,1.138
0.571000,436262,1000.00,12,0,1,369.342,10.864,8.537,915.260,-0.286,1.137
0.572000,436263,1000.00,12,0,1,356.923,-3.520,8.114,916.413,0.455,1.130
0.573000,436264,1000.00,12,0,1,348.972,-11.579,8.259,917.085,1.232,1.143
0.574000,436265,1000.00,12,0,1,359.565,-3.404,8.165,915.812,-0.079,1.139
0.575000,436266,1000.00,12,0,1,367.853,6.622,8.187,913.098,-2.487,1.189
0.576000,436267,1000.00,12,0,1,368.861,5.439,8.218,913.674,-2.248,1.228
0.577000,436268,1000.00,12,0,1,378.782,11.573,8.377,915.572,0.130,1.228
0.578000,436269,1000.00,12,0,1,359.205,-1.958,8.298,916.893,1.261,1.234
0.579000,436270,1000.00,12,0,1,341.166,-23.607,8.944,914.227,-0.661,1.236
0.580000,436271,1000.00,12,0,1,347.243,-13.860,9.116,915.884,-0.343,1.213
0.581000,436272,1000.00,12,0,1,360.214,0.604,9.115,917.301,2.015,1.244
0.582000,436273,1000.00,12,0,1,355.962,1.161,9.115,915.380,-0.164,1.244
0.583000,436274,1000.00,12,0,1,356.082,-0.961,9.113,916.629,0.373,1.245
0.584000,436275,1000.00,12,0,1,368.813,11.872,9.245,916.269,0.813,1.250
0.585000,436276,1000.00,12,0,1,374.026,17.298,9.389,916.341,-0.052,1.250
0.586000,436277,1000.00,12,0,1,369.822,11.153,9.499,916.076,0.345,1.238
0.587000,436278,1000.00,12,0,1,355.410,-1.764,8.973,917.085,0.464,1.214
0.588000,436279,1000.00,12,0,1,343.904,-14.016,9.152,915.356,-0.228,1.194
0.589000,436280,1000.00,12,0,1,352.864,-5.505,9.141,914.659,-1.762,1.211
0.590000,436281,1000.00,12,0,1,352.359,-1.786,9.082,916.749,0.532,1.178
0.591000,436282,1000.00,12,0,1,352.239,-4.463,9.100,915.932,0.204,1.169
0.592000,436283,1000.00,12,0,1,353.224,-1.548,9.086,913.842,-2.022,1.187
0.593000,436284,1000.00,12,0,1,357.812,0.719,9.032,917.325,0.707,1.179
0.594000,436285,1000.00,12,0,1,362.328,5.300,9.061,918.526,2.636,1.186
0.595000,436286,1000.00,12,0,1,362.448,4.107,9.060,917.301,0.736,1.148
0.596000,436287,1000.00,12,0,1,357.500,-1.045,9.036,916.196,-0.366,1.120
0.597000,436288,1000.00,12,0,1,359.397,-0.989,9.022,915.548,-1.069,1.128
0.598000,436289,1000.00,12,0,1,364.394,4.073,9.038,915.692,-0.922,1.136
0.599000,436290,1000.00,12,0,1,364.490,4.253,9.009,915.596,-0.702,1.140
0.600000,436291,1000.00,12,0,1,356.539,-2.704,9.005,916.124,-0.399,1.086
0.601000,436292,1000.00,12,0,1,357.211,-3.173,8.854,917.277,0.838,1.072
0.602000,436293,1000.00,12,0,1,363.913,4.570,8.841,915.140,-0.771,1.074
0.603000,436294,1000.00,12,0,1,368.813,9.207,8.936,914.011,-2.226,1.116
0.604000,436295,1000.00,12,0,1,371.456,10.827,9.066,914.251,-1.429,1.126
0.605000,436296,1000.00,12,0,1,353.224,-3.378,9.072,913.939,-1.402,1.142
0.606000,436297,1000.00,12,0,1,355.770,-6.798,8.919,914.251,-0.957,1.141
0.607000,436298,1000.00,12,0,1,357.356,1.438,8.183,913.987,-0.707,1.139
0.608000,436299,1000.00,12,0,1,340.541,-14.376,8.423,915.284,0.194,1.138
0.609000,436300,1000.00,12,0,1,348.252,-9.291,7.910,916.629,1.822,1.165
0.610000,436301,1000.00,12,0,1,362.136,7.611,7.821,916.821,1.665,1.188
0.611000,436302,1000.00,12,0,1,379.551,19.052,8.245,918.022,2.315,1.226
0.612000,436303,1000.00,12,0,1,360.646,6.450,8.260,915.620,0.498,1.221
0.613000,436304,1000.00,12,0,1,348.444,-14.571,8.505,915.980,-0.413,1.220
0.614000,436305,1000.00,12,0,1,358.725,-2.088,8.509,915.716,0.346,1.217
0.615000,436306,1000.00,12,0,1,359.253,-0.861,8.483,916.220,-0.085,1.198
0.616000,436307,1000.00,12,0,1,359.998,-2.119,8.473,914.299,-0.837,1.200
0.617000,436308,1000.00,12,0,1,361.511,0.429,8.470,914.659,-1.433,1.209
0.618000,436309,1000.00,12,0,1,355.626,-5.126,8.451,915.188,0.039,1.175
0.619000,436310,1000.00,12,0,1,353.392,-6.857,8.468,914.131,-1.008,1.152
0.620000,436311,1000.00,12,0,1,352.407,-6.041,8.401,913.722,-1.269,1.165
0.621000,436312,1000.00,12,0,1,351.663,-5.014,8.290,916.725,1.347,1.180
0.622000,436313,1000.00,12,0,1,350.293,-4.410,8.298,914.563,0.400,1.179
0.623000,436314,1000.00,12,0,1,351.230,-2.063,8.140,914.515,-0.882,1.173
0.624000,436315,1000.00,12,0,1,354.233,2.045,8.131,916.293,1.446,1.191
0.625000,436316,1000.00,12,0,1,347.675,-1.270,8.079,914.899,0.262,1.138
0.626000,436317,1000.00,12,0,1,336.986,-10.539,8.179,914.947,-0.332,1.094
0.627000,436318,1000.00,12,0,1,351.086,1.141,8.015,915.980,1.035,1.104
0.628000,436319,1000.00,12,0,1,364.874,17.361,8.378,915.980,0.718,1.094
0.629000,436320,1000.00,12,0,1,336.530,-5.811,7.728,915.980,0.689,1.094
0.630000,436321,1000.00,12,0,1,335.160,-15.114,7.775,916.845,1.061,1.103
0.631000,436322,1000.00,12,0,1,346.018,2.240,7.781,915.404,0.143,1.066
0.632000,436323,1000.00,12,0,1,363.625,13.326,8.005,916.004,-0.222,1.066
0.633000,436324,1000.00,12,0,1,373.017,23.743,8.679,914.731,-0.414,1.067
0.634000,436325,1000.00,12,0,1,337.563,-8.175,8.593,914.011,-1.801,1.091
0.635000,436326,1000.00,12,0,1,333.023,-21.538,8.783,915.067,-0.299,1.091
0.636000,436327,1000.00,12,0,1,367.180,14.093,8.867,915.692,0.352,1.091
0.637000,436328,1000.00,12,0,1,378.350,25.328,9.560,914.539,-0.473,1.091
0.638000,436329,1000.00,12,0,1,353.921,2.049,9.357,913.650,-1.345,1.107
0.639000,436330,1000.00,12,0,1,350.149,-8.293,9.398,913.506,-1.232,1.093
0.640000,436331,1000.00,12,0,1,358.749,3.884,9.410,916.004,0.934,1.098
0.641000,436332,1000.00,12,0,1,376.428,16.456,9.673,916.797,2.124,1.138
0.642000,436333,1000.00,12,0,1,371.600,15.939,9.930,916.485,1.293,1.117
0.643000,436334,1000.00,12,0,1,357.356,-2.245,9.935,916.076,0.798,1.118
0.644000,436335,1000.00,12,0,1,348.396,-9.054,9.989,915.019,-0.255,1.055
0.645000,436336,1000.00,12,0,1,339.244,-15.358,10.206,914.515,-0.907,1.057
0.646000,436337,1000.00,12,0,1,329.756,-21.186,10.635,915.067,-0.276,1.057
0.647000,436338,1000.00,12,0,1,342.391,-8.777,10.707,915.092,-0.144,1.046
0.648000,436339,1000.00,12,0,1,350.317,3.692,10.704,915.164,-0.128,1.038
0.649000,436340,1000.00,12,0,1,363.313,12.017,10.821,915.380,0.079,1.034
0.650000,436341,1000.00,12,0,1,356.130,8.760,10.885,914.731,-0.369,1.033
0.651000,436342,1000.00,12,0,1,340.949,-9.724,10.962,913.530,-1.440,1.047
0.652000,436343,1000.00,12,0,1,345.802,-6.604,10.983,915.980,0.433,1.043
0.653000,436344,1000.00,12,0,1,360.574,7.612,10.959,915.164,0.710,0.999
0.654000,436345,1000.00,12,0,1,362.592,8.985,10.925,916.052,0.307,0.979
0.655000,436346,1000.00,12,0,1,366.940,8.926,10.988,915.572,0.872,0.967
0.656000,436347,1000.00,12,0,1,378.758,16.771,11.200,913.818,-1.352,0.976
0.657000,436348,1000.00,12,0,1,370.639,9.734,11.282,915.212,-0.120,0.971
0.658000,436349,1000.00,12,0,1,366.700,-0.469,11.098,914.731,0.155,0.971
0.659000,436350,1000.00,12,0,1,359.565,-3.621,11.031,914.491,-0.671,0.941
0.660000,436351,1000.00,12,0,1,350.029,-14.058,11.157,913.674,-0.664,0.916
0.661000,436352,1000.00,12,0,1,349.837,-11.602,10.951,914.659,-0.398,0.857
0.662000,436353,1000.00,12,0,1,343.472,-13.115,11.069,916.220,1.614,0.884
0.663000,436354,1000.00,12,0,1,368.117,5.667,10.905,916.725,1.673,0.914
0.664000,436355,1000.00,12,0,1,359.662,9.411,10.982,916.220,1.146,0.927
0.665000,436356,1000.00,12,0,1,340.973,-15.224,11.190,917.470,1.586,0.953
0.666000,436357,1000.00,12,0,1,348.684,-4.989,11.209,916.509,1.084,0.958
0.667000,436358,1000.00,12,0,1,356.179,4.005,11.223,915.764,-0.394,0.938
0.668000,436359,1000.00,12,0,1,358.965,5.825,11.230,916.341,0.234,0.939
0.669000,436360,1000.00,12,0,1,367.300,11.663,11.309,914.995,-0.763,0.934
0.670000,436361,1000.00,12,0,1,362.424,6.980,11.319,914.083,-1.902,0.955
0.671000,436362,1000.00,12,0,1,353.320,-4.501,11.315,915.524,-0.374,0.938
0.672000,436363,1000.00,12,0,1,357.572,-3.061,11.306,916.965,1.056,0.948
0.673000,436364,1000.00,12,0,1,355.986,-2.357,11.307,917.085,1.175,0.954
0.674000,436365,1000.00,12,0,1,356.659,-5.200,11.328,917.253,0.907,0.941
0.675000,436366,1000.00,12,0,1,358.773,-1.524,11.328,915.980,-0.053,0.940
0.676000,436367,1000.00,12,0,1,362.208,-0.409,11.230,916.677,-0.123,0.939
0.677000,436368,1000.00,12,0,1,371.215,7.448,11.278,916.845,0.589,0.931
0.678000,436369,1000.00,12,0,1,387.429,19.465,11.346,915.692,-0.795,0.933
0.679000,436370,1000.00,12,0,1,351.567,-6.526,11.354,914.227,-1.901,0.966
0.680000,436371,1000.00,12,0,1,339.724,-28.063,11.836,913.002,-2.826,1.034
0.681000,436372,1000.00,12,0,1,346.594,-10.795,11.930,912.810,-2.646,1.100
0.682000,436373,1000.00,12,0,1,341.214,-13.758,11.940,914.251,-0.989,1.108
0.683000,436374,1000.00,12,0,1,343.159,-9.420,11.535,915.884,0.778,1.112
0.684000,436375,1000.00,12,0,1,350.438,1.003,11.478,914.707,0.089,1.083
0.685000,436376,1000.00,12,0,1,347.051,0.093,11.067,915.644,0.170,1.082
0.686000,436377,1000.00,12,0,1,341.694,-3.704,10.898,916.317,1.407,1.099
0.687000,436378,1000.00,12,0,1,349.140,1.960,10.297,914.851,-0.253,1.098
0.688000,436379,1000.00,12,0,1,355.650,10.482,10.399,915.932,0.328,1.082
0.689000,436380,1000.00,12,0,1,357.524,9.277,10.415,917.542,2.016,1.105
0.690000,436381,1000.00,12,0,1,375.875,21.859,10.850,915.524,0.245,1.098
0.691000,436382,1000.00,12,0,1,366.507,15.284,10.816,917.470,0.915,1.064
0.692000,436383,1000.00,12,0,1,342.631,-12.783,10.732,917.494,1.900,1.082
0.693000,436384,1000.00,12,0,1,332.686,-21.701,11.158,914.995,-1.087,1.087
0.694000,436385,1000.00,12,0,1,333.431,-18.894,11.401,915.860,-0.521,1.089
0.695000,436386,1000.00,12,0,1,331.749,-16.426,11.431,918.406,1.985,1.117
0.696000,436387,1000.00,12,0,1,333.839,-12.648,11.176,915.716,0.037,1.116
0.697000,436388,1000.00,12,0,1,347.795,1.565,11.109,915.980,-0.885,1.123
0.698000,436389,1000.00,12,0,1,352.936,9.803,11.183,916.941,0.845,1.129
0.699000,436390,1000.00,12,0,1,346.738,3.348,11.063,913.722,-1.939,1.162
0.700000,436391,1000.00,12,0,1,341.286,-0.911,10.994,913.963,-2.332,1.207
0.701000,436392,1000.00,12,0,1,344.937,2.376,10.913,914.659,-0.575,1.192
0.702000,436393,1000.00,12,0,1,350.486,9.445,10.955,915.476,-0.288,1.192
0.703000,436394,1000.00,12,0,1,354.017,12.193,11.037,913.890,-0.819,1.193
0.704000,436395,1000.00,12,0,1,356.659,13.949,11.140,915.836,-0.183,1.192
0.705000,436396,1000.00,12,0,1,355.938,12.207,11.202,918.743,3.226,1.271
0.706000,436397,1000.00,12,0,1,351.951,7.119,10.994,917.133,1.465,1.273
0.707000,436398,1000.00,12,0,1,351.134,4.642,10.927,915.332,-0.830,1.279
0.708000,436399,1000.00,12,0,1,352.095,4.718,10.947,915.452,-0.711,1.282
0.709000,436400,1000.00,12,0,1,356.659,6.899,10.979,916.749,0.328,1.280
0.710000,436401,1000.00,12,0,1,355.890,5.727,10.828,916.293,0.323,1.277
0.711000,436402,1000.00,12,0,1,358.364,4.345,10.720,916.220,-0.305,1.276
0.712000,436403,1000.00,12,0,1,373.425,15.022,10.770,916.413,0.233,1.256
0.713000,436404,1000.00,12,0,1,364.946,8.563,10.808,916.581,0.139,1.234
0.714000,436405,1000.00,12,0,1,333.167,-23.179,11.216,915.596,-0.403,1.225
0.715000,436406,1000.00,12,0,1,331.653,-27.318,11.666,915.332,-0.904,1.211
0.716000,436407,1000.00,12,0,1,345.369,-8.872,11.712,915.067,-0.672,1.205
0.717000,436408,1000.00,12,0,1,362.808,6.571,11.735,912.834,-2.313,1.247
0.718000,436409,1000.00,12,0,1,359.493,7.434,11.753,913.170,-2.167,1.284
0.719000,436410,1000.00,12,0,1,356.491,-0.249,11.637,915.788,0.821,1.284
0.720000,436411,1000.00,12,0,1,330.524,-16.936,11.840,916.293,1.526,1.274
0.721000,436412,1000.00,12,0,1,329.131,-23.898,12.296,917.013,1.686,1.295
0.722000,436413,1000.00,12,0,1,340.637,-4.120,12.302,915.980,0.968,1.294
0.723000,436414,1000.00,12,0,1,349.525,3.774,12.309,915.740,0.012,1.283
0.724000,436415,1000.00,12,0,1,350.414,7.166,12.329,916.413,0.774,1.282
0.725000,436416,1000.00,12,0,1,347.219,3.375,12.336,914.251,-1.010,1.290
0.726000,436417,1000.00,12,0,1,350.341,4.708,12.354,914.851,-1.192,1.300
0.727000,436418,1000.00,12,0,1,356.419,10.709,12.402,917.422,1.614,1.318
0.728000,436419,1000.00,12,0,1,364.586,14.721,12.271,917.013,1.238,1.324
0.729000,436420,1000.00,12,0,1,333.623,-8.006,12.288,915.884,-0.195,1.297
0.730000,436421,1000.00,12,0,1,334.080,-18.984,11.935,915.980,-0.218,1.234
0.731000,436422,1000.00,12,0,1,341.454,-1.325,11.839,914.803,-0.942,1.184
0.732000,436423,1000.00,12,0,1,352.095,2.190,11.682,916.413,-0.029,1.176
0.733000,436424,1000.00,12,0,1,358.653,12.196,11.733,915.092,-0.093,1.171
0.734000,436425,1000.00,12,0,1,364.586,12.323,11.861,913.626,-2.114,1.208
0.735000,436426,1000.00,12,0,1,354.161,4.513,11.878,913.770,-1.288,1.221
0.736000,436427,1000.00,12,0,1,351.158,-3.370,11.876,913.866,-0.949,1.213
0.737000,436428,1000.00,12,0,1,355.122,1.684,11.875,914.323,-0.307,1.213
0.738000,436429,1000.00,12,0,1,352.696,0.194,11.783,914.227,-0.020,1.212
0.739000,436430,1000.00,12,0,1,347.891,-4.997,11.731,916.413,1.454,1.196
0.740000,436431,1000.00,12,0,1,348.372,-3.160,11.325,914.827,0.992,1.203
0.741000,436432,1000.00,12,0,1,361.367,7.004,11.161,915.404,0.062,1.197
0.742000,436433,1000.00,12,0,1,355.410,6.568,11.052,916.533,1.920,1.197
0.743000,436434,1000.00,12,0,1,352.575,-1.883,10.621,913.939,-0.727,1.192
0.744000,436435,1000.00,12,0,1,354.041,3.018,10.288,916.437,0.536,1.192
0.745000,436436,1000.00,12,0,1,377.989,18.304,10.352,915.884,1.324,1.173
0.746000,436437,1000.00,12,0,1,361.559,11.561,10.326,915.404,-0.547,1.176
0.747000,436438,1000.00,12,0,1,343.448,-15.759,10.562,914.899,-0.136,1.169
0.748000,436439,1000.00,12,0,1,350.606,-6.209,10.507,915.260,-0.547,1.166
0.749000,436440,1000.00,12,0,1,359.421,2.077,10.500,914.611,-0.390,1.134
0.750000,436441,1000.00,12,0,1,335.545,-15.476,10.725,915.452,-0.223,1.086
0.751000,436442,1000.00,12,0,1,345.850,-13.826,10.897,915.404,0.413,1.084
0.752000,436443,1000.00,12,0,1,350.101,-0.217,10.815,916.581,0.888,1.091
0.753000,436444,1000.00,12,0,1,353.584,-2.591,10.683,916.148,1.040,1.095
0.754000,436445,1000.00,12,0,1,354.473,1.619,10.501,915.884,0.244,1.095
0.755000,436446,1000.00,12,0,1,346.426,-6.481,10.399,917.662,1.724,1.025
0.756000,436447,1000.00,12,0,1,338.836,-13.295,10.520,916.413,1.056,1.015
0.757000,436448,1000.00,12,0,1,336.602,-12.558,10.648,916.797,0.280,1.009
0.758000,436449,1000.00,12,0,1,335.136,-12.107,10.764,917.133,1.263,1.019
0.759000,436450,1000.00,12,0,1,324.567,-16.098,10.959,917.422,0.687,1.023
0.760000,436451,1000.00,12,0,1,332.518,-10.612,11.032,914.971,-0.860,1.029
0.761000,436452,1000.00,12,0,1,347.819,9.725,11.100,914.539,-2.207,1.075
0.762000,436453,1000.00,12,0,1,352.936,13.535,11.062,916.629,0.242,1.075
0.763000,436454,1000.00,12,0,1,361.823,19.902,11.350,916.677,0.413,1.076
0.764000,436455,1000.00,12,0,1,355.050,14.411,11.056,914.563,-1.580,1.098
0.765000,436456,1000.00,12,0,1,350.029,4.846,10.381,914.707,-1.721,1.117
0.766000,436457,1000.00,12,0,1,361.415,13.959,10.493,915.019,-0.943,1.121
0.767000,436458,1000.00,12,0,1,365.354,17.204,10.731,917.854,1.137,1.084
0.768000,436459,1000.00,12,0,1,367.108,14.306,10.869,917.013,1.202,1.054
0.769000,436460,1000.00,12,0,1,355.578,4.091,10.885,917.205,0.149,1.047
0.770000,436461,1000.00,12,0,1,328.459,-21.665,11.051,917.686,1.106,1.037
0.771000,436462,1000.00,12,0,1,336.073,-18.110,10.829,916.941,0.055,1.009
0.772000,436463,1000.00,12,0,1,350.774,2.182,10.817,917.133,0.028,1.000
0.773000,436464,1000.00,12,0,1,362.136,9.707,10.891,917.734,0.691,1.004
0.774000,436465,1000.00,12,0,1,353.824,5.190,10.869,916.413,-0.450,1.000
0.775000,436466,1000.00,12,0,1,346.186,-6.781,10.900,916.725,-0.477,0.993
0.776000,436467,1000.00,12,0,1,336.578,-11.812,11.008,916.245,-0.408,0.980
0.777000,436468,1000.00,12,0,1,323.534,-22.805,11.370,915.332,-1.332,0.971
0.778000,436469,1000.00,12,0,1,332.446,-13.989,11.351,916.869,-0.025,0.955
0.779000,436470,1000.00,12,0,1,348.420,5.366,11.320,916.365,0.221,0.955
0.780000,436471,1000.00,12,0,1,354.017,10.386,11.095,915.332,-1.216,0.970
0.781000,436472,1000.00,12,0,1,338.307,-1.607,11.096,915.404,-0.812,0.968
0.782000,436473,1000.00,12,0,1,332.350,-11.027,11.200,914.443,-1.471,0.990
0.783000,436474,1000.00,12,0,1,338.307,-1.776,11.070,915.740,-0.558,0.993
0.784000,436475,1000.00,12,0,1,351.615,9.078,11.007,916.076,0.385,0.949
0.785000,436476,1000.00,12,0,1,360.742,18.485,11.295,915.644,-0.406,0.933
0.786000,436477,1000.00,12,0,1,359.710,14.905,11.480,915.452,-0.405,0.925
0.787000,436478,1000.00,12,0,1,350.918,5.107,11.500,918.550,1.768,0.957
0.788000,436479,1000.00,12,0,1,349.477,0.964,11.501,917.494,1.697,0.987
0.789000,436480,1000.00,12,0,1,353.248,4.313,11.496,915.572,-1.155,0.979
0.790000,436481,1000.00,12,0,1,347.651,-0.008,11.487,915.668,-0.760,0.975
0.791000,436482,1000.00,12,0,1,330.116,-15.469,11.651,915.668,-0.608,0.978
0.792000,436483,1000.00,12,0,1,348.516,-2.962,11.622,916.437,0.033,0.940
0.793000,436484,1000.00,12,0,1,347.147,5.231,11.642,918.791,2.176,0.984
0.794000,436485,1000.00,12,0,1,358.653,6.069,11.666,918.887,2.369,1.036
0.795000,436486,1000.00,12,0,1,357.043,12.019,11.501,914.371,-1.567,1.043
0.796000,436487,1000.00,12,0,1,324.279,-20.303,11.741,915.260,-1.865,1.073
0.797000,436488,1000.00,12,0,1,335.665,-15.164,11.725,915.764,0.187,1.073
0.798000,436489,1000.00,12,0,1,357.163,12.747,11.831,916.485,-0.016,1.070
0.799000,436490,1000.00,12,0,1,349.068,4.129,11.841,915.380,-0.004,1.069
0.800000,436491,1000.00,12,0,1,332.975,-10.538,11.732,916.004,-0.357,1.070
0.801000,436492,1000.00,12,0,1,333.431,-11.888,11.690,918.262,2.114,1.109
0.802000,436493,1000.00,12,0,1,342.487,-0.141,11.690,917.590,1.479,1.122
0.803000,436494,1000.00,12,0,1,354.377,9.579,11.762,916.845,0.082,1.112
0.804000,436495,1000.00,12,0,1,359.421,14.726,11.943,916.220,-0.277,1.112
0.805000,436496,1000.00,12,0,1,351.254,5.503,11.933,916.605,-0.468,1.087
0.806000,436497,1000.00,12,0,1,349.693,0.832,11.785,915.620,-0.760,1.082
0.807000,436498,1000.00,12,0,1,354.401,5.335,11.675,917.974,0.331,1.083
0.808000,436499,1000.00,12,0,1,348.228,0.084,11.548,917.830,1.322,1.084
0.809000,436500,1000.00,12,0,1,352.527,0.741,11.322,917.205,-0.390,1.081
0.810000,436501,1000.00,12,0,1,342.247,-3.963,11.236,916.365,-0.561,1.077
0.811000,436502,1000.00,12,0,1,350.966,-2.451,11.157,915.212,-1.841,1.063
0.812000,436503,1000.00,12,0,1,363.169,13.583,11.158,915.404,-1.433,1.082
0.813000,436504,1000.00,12,0,1,362.544,9.866,10.887,917.037,0.273,1.081
0.814000,436505,1000.00,12,0,1,364.177,8.910,10.769,915.092,-0.808,1.064
0.815000,436506,1000.00,12,0,1,355.098,1.336,10.749,918.046,0.781,1.041
0.816000,436507,1000.00,12,0,1,343.159,-12.115,10.704,918.334,2.436,1.089
0.817000,436508,1000.00,12,0,1,343.039,-11.038,10.540,915.404,-1.026,1.087
0.818000,436509,1000.00,12,0,1,349.044,-4.639,10.365,914.803,-1.575,1.096
0.819000,436510,1000.00,12,0,1,347.603,-3.329,10.359,915.140,-0.829,1.102
0.820000,436511,1000.00,12,0,1,342.823,-8.273,9.965,915.236,-0.678,1.095
0.821000,436512,1000.00,12,0,1,355.698,2.227,9.635,915.500,-0.161,1.095
0.822000,436513,1000.00,12,0,1,365.234,12.866,9.801,915.908,0.082,1.095
0.823000,436514,1000.00,12,0,1,362.136,7.721,9.765,916.076,0.413,1.093
0.824000,436515,1000.00,12,0,1,338.259,-12.578,9.899,917.662,1.320,1.107
0.825000,436516,1000.00,12,0,1,313.638,-35.616,11.065,916.773,1.009,1.114
0.826000,436517,1000.00,12,0,1,325.672,-23.413,11.428,916.845,0.052,1.112
0.827000,436518,1000.00,12,0,1,328.507,-10.568,11.065,916.941,0.608,1.100
0.828000,436519,1000.00,12,0,1,338.091,-4.914,10.909,917.686,0.626,1.103
0.829000,436520,1000.00,12,0,1,333.503,-0.810,10.883,917.181,0.544,1.105
0.830000,436521,1000.00,12,0,1,345.105,3.008,10.792,915.572,-1.204,1.105
0.831000,436522,1000.00,12,0,1,347.003,12.137,10.925,917.373,0.078,1.099
0.832000,436523,1000.00,12,0,1,338.235,-0.203,10.814,917.902,1.300,1.095
0.833000,436524,1000.00,12,0,1,342.078,3.149,10.820,919.079,1.481,1.112
0.834000,436525,1000.00,12,0,1,347.291,9.051,10.819,918.358,1.470,1.130
0.835000,436526,1000.00,12,0,1,343.111,4.608,10.519,916.989,-0.544,1.131
0.836000,436527,1000.00,12,0,1,337.947,-0.109,10.306,917.782,0.255,1.130
0.837000,436528,1000.00,12,0,1,338.043,-0.929,10.281,916.845,-0.231,1.103
0.838000,436529,1000.00,12,0,1,335.953,-0.322,10.280,916.196,-1.178,1.089
0.839000,436530,1000.00,12,0,1,338.187,0.099,10.262,916.365,-0.645,1.081
0.840000,436531,1000.00,12,0,1,342.871,6.293,10.301,914.491,-2.022,1.113
0.841000,436532,1000.00,12,0,1,349.813,10.605,10.177,915.019,-1.821,1.139
0.842000,436533,1000.00,12,0,1,350.077,11.538,10.298,917.061,0.527,1.141
0.843000,436534,1000.00,12,0,1,353.416,10.525,10.379,917.518,0.972,1.107
0.844000,436535,1000.00,12,0,1,358.893,14.702,10.550,916.581,-0.034,1.056
0.845000,436536,1000.00,12,0,1,356.755,10.611,10.520,917.013,-0.042,1.032
0.846000,436537,1000.00,12,0,1,357.332,7.556,10.177,916.893,0.075,0.998
0.847000,436538,1000.00,12,0,1,378.157,21.978,10.423,916.028,-0.910,1.006
0.848000,436539,1000.00,12,0,1,362.160,11.302,10.389,917.854,0.390,1.007
0.849000,436540,1000.00,12,0,1,330.308,-24.277,10.926,918.767,1.636,1.034
0.850000,436541,1000.00,12,0,1,344.192,-14.118,11.007,916.869,-0.325,1.033
0.851000,436542,1000.00,12,0,1,352.239,1.254,10.879,915.908,-1.414,1.009
0.852000,436543,1000.00,12,0,1,356.683,0.560,10.879,916.581,-0.613,0.991
0.853000,436544,1000.00,12,0,1,333.647,-12.915,10.948,916.725,-0.130,0.991
0.854000,436545,1000.00,12,0,1,320.700,-30.494,11.581,915.764,-0.812,0.997
0.855000,436546,1000.00,12,0,1,352.912,1.541,11.557,916.533,-0.224,0.995
0.856000,436547,1000.00,12,0,1,379.214,29.039,12.264,915.524,-0.363,0.991
0.857000,436548,1000.00,12,0,1,358.605,10.173,12.325,914.731,-1.391,1.009
0.858000,436549,1000.00,12,0,1,359.806,1.077,12.326,917.325,1.076,1.003
0.859000,436550,1000.00,12,0,1,368.933,12.735,12.457,919.199,3.058,1.091
0.860000,436551,1000.00,12,0,1,364.778,5.610,12.469,916.869,0.883,1.095
0.861000,436552,1000.00,12,0,1,318.754,-30.914,13.209,916.893,-0.047,1.064
0.862000,436553,1000.00,12,0,1,309.530,-46.217,14.612,917.542,0.951,1.053
0.863000,436554,1000.00,12,0,1,333.791,-13.569,14.671,916.100,-0.545,1.055
0.864000,436555,1000.00,12,0,1,345.393,1.228,14.618,915.092,-1.651,1.075
0.865000,436556,1000.00,12,0,1,346.114,2.317,14.621,916.052,-0.761,1.074
0.866000,436557,1000.00,12,0,1,349.597,5.448,14.540,917.734,0.815,1.024
0.867000,436558,1000.00,12,0,1,360.094,12.719,14.568,916.389,-0.045,1.014
0.868000,436559,1000.00,12,0,1,367.012,19.246,14.805,914.563,-2.137,1.034
0.869000,436560,1000.00,12,0,1,362.880,12.045,14.895,917.013,-0.042,1.028
0.870000,436561,1000.00,12,0,1,335.160,-11.191,14.934,917.085,0.871,1.030
0.871000,436562,1000.00,12,0,1,331.029,-20.830,15.218,918.406,1.101,1.042
0.872000,436563,1000.00,12,0,1,328.579,-13.698,15.233,918.526,1.896,1.076
0.873000,436564,1000.00,12,0,1,321.084,-20.622,15.471,917.974,0.633,1.078
0.874000,436565,1000.00,12,0,1,323.534,-13.966,15.495,917.494,0.400,1.063
0.875000,436566,1000.00,12,0,1,327.306,-6.933,14.686,918.262,0.712,1.058
0.876000,436567,1000.00,12,0,1,335.305,1.397,14.309,918.334,1.037,1.068
0.877000,436568,1000.00,12,0,1,339.604,7.976,14.275,915.740,-1.193,1.078
0.878000,436569,1000.00,12,0,1,339.460,6.491,14.288,916.220,-1.360,1.092
0.879000,436570,1000.00,12,0,1,345.730,11.289,14.376,917.518,0.618,1.092
0.880000,436571,1000.00,12,0,1,346.907,12.122,14.472,917.205,0.109,1.079
0.881000,436572,1000.00,12,0,1,359.565,18.835,14.615,917.662,0.410,1.081
0.882000,436573,1000.00,12,0,1,366.147,24.875,15.032,915.932,-0.840,1.072
0.883000,436574,1000.00,12,0,1,347.843,5.743,15.047,916.172,-1.274,1.066
0.884000,436575,1000.00,12,0,1,363.337,10.481,15.066,919.151,1.619,1.071
0.885000,436576,1000.00,12,0,1,370.231,22.318,15.379,916.629,-0.080,1.068
0.886000,436577,1000.00,12,0,1,341.790,-7.418,15.415,916.389,-1.608,1.091
0.887000,436578,1000.00,12,0,1,346.402,-9.256,15.470,917.878,0.512,1.093
0.888000,436579,1000.00,12,0,1,358.581,7.387,15.505,917.085,-0.376,1.082
0.889000,436580,1000.00,12,0,1,357.980,4.472,15.518,917.373,-0.387,1.079
0.890000,436581,1000.00,12,0,1,357.163,3.239,15.499,918.647,0.868,1.048
0.891000,436582,1000.00,12,0,1,346.090,-6.173,15.451,918.454,0.701,1.021
0.892000,436583,1000.00,12,0,1,349.933,-5.924,15.388,918.695,0.590,1.021
0.893000,436584,1000.00,12,0,1,349.813,-1.450,15.317,917.974,0.144,1.012
0.894000,436585,1000.00,12,0,1,362.016,4.484,15.188,918.382,0.107,1.012
0.895000,436586,1000.00,12,0,1,342.223,-5.377,15.133,917.542,-0.122,1.012
0.896000,436587,1000.00,12,0,1,342.223,-15.539,15.254,916.701,-1.167,1.026
0.897000,436588,1000.00,12,0,1,365.475,11.034,15.016,917.926,0.068,1.018
0.898000,436589,1000.00,12,0,1,345.489,-3.615,14.939,917.422,0.134,1.016
0.899000,436590,1000.00,12,0,1,316.424,-34.039,15.315,916.893,-0.725,0.995
0.900000,436591,1000.00,12,0,1,311.932,-33.746,15.917,918.623,0.898,1.002
0.901000,436592,1000.00,12,0,1,307.681,-30.956,16.507,918.599,1.101,0.994
0.902000,436593,1000.00,12,0,1,311.428,-23.329,16.833,917.133,-0.529,0.993
0.903000,436594,1000.00,12,0,1,328.267,-4.164,16.744,916.821,-0.998,1.003
0.904000,436595,1000.00,12,0,1,334.632,6.460,16.205,918.911,0.706,1.001
0.905000,436596,1000.00,12,0,1,340.445,9.377,16.258,917.566,0.075,1.001
0.906000,436597,1000.00,12,0,1,344.432,14.448,15.863,915.260,-2.613,1.066
0.907000,436598,1000.00,12,0,1,365.018,27.021,16.253,915.572,-2.134,1.090
0.908000,436599,1000.00,12,0,1,360.718,26.850,16.690,915.332,-1.756,1.108
0.909000,436600,1000.00,12,0,1,363.048,17.713,16.781,915.620,-1.526,1.042
0.910000,436601,1000.00,12,0,1,362.448,19.649,16.991,918.815,1.427,1.054
0.911000,436602,1000.00,12,0,1,353.752,6.357,16.443,918.142,1.511,1.076
0.912000,436603,1000.00,12,0,1,351.663,3.128,15.095,916.485,-0.711,1.072
0.913000,436604,1000.00,12,0,1,355.698,6.076,14.997,916.629,-0.362,1.070
0.914000,436605,1000.00,12,0,1,360.334,8.993,15.050,915.308,-1.095,1.056
0.915000,436606,1000.00,12,0,1,343.376,-3.519,15.055,917.518,0.340,1.052
0.916000,436607,1000.00,12,0,1,329.227,-20.136,15.302,916.245,0.611,1.049
0.917000,436608,1000.00,12,0,1,321.180,-21.667,15.502,917.950,0.646,1.053
0.918000,436609,1000.00,12,0,1,341.214,-6.150,15.286,918.743,2.672,1.077
0.919000,436610,1000.00,12,0,1,362.640,19.306,15.434,918.743,1.533,1.098
0.920000,436611,1000.00,12,0,1,293.244,-34.351,16.103,918.022,1.226,1.105
0.921000,436612,1000.00,12,0,1,362.088,-1.408,15.832,917.974,0.512,1.097
0.922000,436613,1000.00,12,0,1,388.582,57.436,17.689,920.064,2.130,1.105
0.923000,436614,1000.00,12,0,1,374.578,15.704,17.587,917.830,0.651,1.105
0.924000,436615,1000.00,12,0,1,346.186,-0.254,17.476,916.821,-1.567,1.126
0.925000,436616,1000.00,12,0,1,321.853,-33.078,18.065,918.935,0.803,1.127
0.926000,436617,1000.00,12,0,1,336.962,-16.877,18.221,918.575,0.461,1.119
0.927000,436618,1000.00,12,0,1,358.172,7.738,18.219,918.142,-0.336,1.108
0.928000,436619,1000.00,12,0,1,369.414,14.343,18.308,917.854,-0.535,1.093
0.929000,436620,1000.00,12,0,1,375.875,20.956,18.478,916.389,-1.762,1.118
0.930000,436621,1000.00,12,0,1,373.425,12.689,18.485,917.422,-1.131,1.129
0.931000,436622,1000.00,12,0,1,367.420,7.354,18.322,918.719,0.584,1.131
0.932000,436623,1000.00,12,0,1,379.142,10.674,18.044,918.935,0.588,1.128
0.933000,436624,1000.00,12,0,1,371.384,9.533,18.077,918.382,0.132,1.113
0.934000,436625,1000.00,12,0,1,340.757,-22.494,18.294,917.854,-0.486,1.092
0.935000,436626,1000.00,12,0,1,330.717,-30.293,18.522,917.397,-0.760,1.097
0.936000,436627,1000.00,12,0,1,330.020,-25.002,18.827,916.821,-1.114,1.085
0.937000,436628,1000.00,12,0,1,338.043,-14.950,18.901,918.334,0.097,1.082
0.938000,436629,1000.00,12,0,1,345.922,-3.042,18.877,920.328,2.175,1.124
0.939000,436630,1000.00,12,0,1,341.886,-5.106,18.880,917.494,-0.083,1.123
0.940000,436631,1000.00,12,0,1,337.514,-8.869,18.916,916.821,-1.625,1.139
0.941000,436632,1000.00,12,0,1,338.740,-6.928,18.921,918.863,0.714,1.140
0.942000,436633,1000.00,12,0,1,346.522,0.241,18.903,918.214,0.352,1.138
0.943000,436634,1000.00,12,0,1,337.995,-4.511,18.912,915.500,-2.181,1.178
0.944000,436635,1000.00,12,0,1,339.196,-7.633,18.932,917.926,-0.573,1.181
0.945000,436636,1000.00,12,0,1,356.587,9.435,18.964,917.205,0.117,1.181
0.946000,436637,1000.00,12,0,1,348.372,4.544,18.847,917.373,-0.878,1.176
0.947000,436638,1000.00,12,0,1,353.200,1.725,18.784,917.133,-0.147,1.176
0.948000,436639,1000.00,12,0,1,348.612,3.586,18.784,917.878,-0.180,1.176
0.949000,436640,1000.00,12,0,1,340.685,-8.122,18.193,916.749,-0.413,1.173
0.950000,436641,1000.00,12,0,1,363.505,11.894,17.636,918.382,0.158,1.167
0.951000,436642,1000.00,12,0,1,379.407,28.958,17.568,917.253,0.261,1.157
0.952000,436643,1000.00,12,0,1,355.842,7.175,17.286,917.422,-0.595,1.157
0.953000,436644,1000.00,12,0,1,346.450,-7.431,17.307,915.332,-1.317,1.164
0.954000,436645,1000.00,12,0,1,342.895,-5.415,17.300,914.731,-2.471,1.211
0.955000,436646,1000.00,12,0,1,342.006,-6.645,17.275,915.043,-1.241,1.224
0.956000,436647,1000.00,12,0,1,353.104,5.019,17.168,916.317,-0.039,1.167
0.957000,436648,1000.00,12,0,1,360.142,13.001,16.838,916.100,0.318,1.128
0.958000,436649,1000.00,12,0,1,355.122,7.222,16.436,914.299,-1.128,1.112
0.959000,436650,1000.00,12,0,1,340.013,-6.398,16.270,916.052,-0.011,1.090
0.960000,436651,1000.00,12,0,1,336.217,-12.425,16.127,917.181,1.981,1.108
0.961000,436652,1000.00,12,0,1,346.282,-1.513,16.103,916.581,0.840,1.093
0.962000,436653,1000.00,12,0,1,358.388,8.622,16.143,916.293,0.713,1.093
0.963000,436654,1000.00,12,0,1,343.207,-2.574,16.124,917.061,0.991,1.101
0.964000,436655,1000.00,12,0,1,333.815,-16.858,16.250,917.325,1.421,1.108
0.965000,436656,1000.00,12,0,1,340.349,-8.277,16.284,917.998,1.473,1.127
0.966000,436657,1000.00,12,0,1,356.203,4.925,16.048,918.334,1.766,1.151
0.967000,436658,1000.00,12,0,1,360.983,10.943,15.829,916.076,-0.342,1.148
0.968000,436659,1000.00,12,0,1,337.611,-9.810,15.866,918.334,0.655,1.088
0.969000,436660,1000.00,12,0,1,347.123,-8.151,15.672,917.061,0.840,1.073
0.970000,436661,1000.00,12,0,1,339.965,-3.176,14.906,918.190,0.148,1.059
0.971000,436662,1000.00,12,0,1,344.408,-7.231,14.940,918.911,1.956,1.092
0.972000,436663,1000.00,12,0,1,350.534,7.137,12.580,918.623,0.708,1.055
0.973000,436664,1000.00,12,0,1,355.578,7.693,12.430,915.740,-1.238,1.065
0.974000,436665,1000.00,12,0,1,355.338,10.718,12.522,916.028,-1.849,1.074
0.975000,436666,1000.00,12,0,1,358.485,10.421,11.708,916.365,-0.488,1.070
0.976000,436667,1000.00,12,0,1,359.998,12.376,11.595,916.653,-0.497,1.071
0.977000,436668,1000.00,12,0,1,354.281,6.405,11.579,916.485,-0.268,1.070
0.978000,436669,1000.00,12,0,1,347.795,-1.380,11.402,918.695,1.304,1.084
0.979000,436670,1000.00,12,0,1,346.042,-2.429,11.015,918.743,1.799,1.085
0.980000,436671,1000.00,12,0,1,348.852,-1.095,10.869,917.470,0.090,1.073
0.981000,436672,1000.00,12,0,1,350.918,1.812,10.822,916.701,-0.748,1.075
0.982000,436673,1000.00,12,0,1,331.846,-14.089,10.900,917.301,-0.276,1.072
0.983000,436674,1000.00,12,0,1,317.938,-28.087,11.523,917.902,0.265,1.073
0.984000,436675,1000.00,12,0,1,337.803,-9.838,11.162,919.031,1.092,1.082
0.985000,436676,1000.00,12,0,1,340.565,0.245,10.307,915.932,-1.261,1.091
0.986000,436677,1000.00,12,0,1,351.735,3.402,9.694,916.124,-2.101,1.120
0.987000,436678,1000.00,12,0,1,361.992,16.549,9.745,917.662,0.184,1.120
0.988000,436679,1000.00,12,0,1,372.056,18.965,10.099,916.773,-0.607,1.080
0.989000,436680,1000.00,12,0,1,349.237,2.402,10.078,916.485,-1.039,1.090
0.990000,436681,1000.00,12,0,1,328.387,-23.355,10.531,915.860,-1.090,1.077
0.991000,436682,1000.00,12,0,1,333.647,-14.937,10.696,915.980,-1.171,1.085
0.992000,436683,1000.00,12,0,1,336.410,-7.199,10.745,918.887,1.594,1.107
0.993000,436684,1000.00,12,0,1,324.039,-15.055,10.935,916.413,0.219,1.064
0.994000,436685,1000.00,12,0,1,338.643,-2.708,10.888,916.341,-1.083,1.071
0.995000,436686,1000.00,12,0,1,344.841,10.339,10.905,917.806,1.152,1.084
0.996000,436687,1000.00,12,0,1,338.235,2.928,10.894,917.830,0.883,1.084
0.997000,436688,1000.00,12,0,1,349.837,11.461,11.011,916.821,0.070,1.084
0.998000,436689,1000.00,12,0,1,349.525,15.032,11.203,917.229,0.099,1.083
0.999000,436690,1000.00,12,0,1,319.163,-13.172,11.298,915.452,-0.917,1.090
1.000000,436691,1000.00,12,0,1,318.130,-17.857,11.454,914.347,-2.272,1.136
1.001000,436692,1000.00,12,0,1,324.495,-5.129,10.722,915.884,-0.594,1.138
1.002000,436693,1000.00,12,0,1,317.745,-10.172,10.770,916.293,0.306,1.136
1.003000,436694,1000.00,12,0,1,332.782,1.070,10.720,915.284,-0.739,1.125
1.004000,436695,1000.00,12,0,1,326.297,2.367,10.698,916.485,0.204,1.070
1.005000,436696,1000.00,12,0,1,349.885,12.011,10.791,916.004,0.262,1.056
1.006000,436697,1000.00,12,0,1,376.308,41.484,12.262,916.941,0.459,1.058
1.007000,436698,1000.00,12,0,1,365.667,25.028,12.630,917.734,1.576,1.081
1.008000,436699,1000.00,12,0,1,338.523,-3.644,12.599,918.887,1.982,1.105
1.009000,436700,1000.00,12,0,1,336.650,-10.541,12.654,915.404,-0.483,1.107
1.010000,436701,1000.00,12,0,1,345.994,1.097,12.533,918.382,0.384,1.072
1.011000,436702,1000.00,12,0,1,351.134,5.968,12.559,917.950,1.951,1.101
1.012000,436703,1000.00,12,0,1,363.985,15.104,12.681,917.998,0.166,1.097
1.013000,436704,1000.00,12,0,1,382.793,30.904,13.408,916.485,0.031,1.088
1.014000,436705,1000.00,12,0,1,385.844,30.594,13.886,917.325,-0.389,1.070
1.015000,436706,1000.00,12,0,1,345.057,-5.410,13.858,917.061,0.407,1.051
1.016000,436707,1000.00,12,0,1,344.577,-17.518,14.060,917.950,0.443,1.023
1.017000,436708,1000.00,12,0,1,350.486,-0.740,13.975,917.325,0.470,1.024
1.018000,436709,1000.00,12,0,1,359.157,0.774,13.906,916.485,-0.669,1.024
1.019000,436710,1000.00,12,0,1,346.138,-3.482,13.867,916.773,-0.433,1.019
1.020000,436711,1000.00,12,0,1,355.482,-4.699,13.876,916.677,-0.154,1.019
1.021000,436712,1000.00,12,0,1,354.233,2.302,13.842,915.836,-1.127,0.994
1.022000,436713,1000.00,12,0,1,342.727,-13.579,13.938,915.019,-1.490,1.011
1.023000,436714,1000.00,12,0,1,344.384,-12.038,13.999,915.692,-1.138,1.009
1.024000,436715,1000.00,12,0,1,320.003,-27.540,14.452,915.596,-0.509,0.977
1.025000,436716,1000.00,12,0,1,317.505,-35.897,15.247,915.284,-1.119,0.987
1.026000,436717,1000.00,12,0,1,326.921,-16.548,15.325,914.299,-1.428,1.005
1.027000,436718,1000.00,12,0,1,339.196,-7.741,15.338,915.980,-0.417,1.006
1.028000,436719,1000.00,12,0,1,346.594,4.320,15.349,915.356,0.090,0.989
1.029000,436720,1000.00,12,0,1,352.816,6.373,15.371,917.301,0.714,0.961
1.030000,436721,1000.00,12,0,1,352.167,7.751,15.410,916.557,1.258,0.978
1.031000,436722,1000.00,12,0,1,351.975,4.603,15.421,915.140,-0.990,0.982
1.032000,436723,1000.00,12,0,1,357.884,9.799,15.355,916.341,0.349,0.982
1.033000,436724,1000.00,12,0,1,354.737,8.119,14.876,915.644,0.206,0.982
1.034000,436725,1000.00,12,0,1,347.843,0.265,14.811,915.932,-0.092,0.970
1.035000,436726,1000.00,12,0,1,341.478,-3.366,14.819,916.245,0.859,0.961
1.036000,436727,1000.00,12,0,1,333.455,-9.258,14.869,914.587,-0.766,0.920
1.037000,436728,1000.00,12,0,1,329.419,-10.059,14.752,913.939,-1.221,0.936
1.038000,436729,1000.00,12,0,1,327.065,-9.060,14.563,915.740,0.407,0.934
1.039000,436730,1000.00,12,0,1,334.440,-0.974,14.559,916.317,1.477,0.946
1.040000,436731,1000.00,12,0,1,337.466,5.092,14.198,916.245,0.978,0.943
1.041000,436732,1000.00,12,0,1,336.121,2.972,14.046,916.821,1.431,0.950
1.042000,436733,1000.00,12,0,1,338.163,4.309,14.023,916.365,0.941,0.933
1.043000,436734,1000.00,12,0,1,335.136,1.782,13.862,916.100,0.318,0.933
1.044000,436735,1000.00,12,0,1,335.713,-0.226,13.857,917.926,1.651,0.950
1.045000,436736,1000.00,12,0,1,339.172,2.953,13.786,915.428,-0.040,0.936
1.046000,436737,1000.00,12,0,1,343.952,5.081,13.799,914.155,-2.216,0.979
1.047000,436738,1000.00,12,0,1,353.921,11.929,13.806,917.422,0.941,0.988
1.048000,436739,1000.00,12,0,1,355.962,12.538,13.757,916.365,0.721,0.993
1.049000,436740,1000.00,12,0,1,349.044,3.385,13.638,915.692,-0.917,0.993
1.050000,436741,1000.00,12,0,1,346.859,-0.848,13.403,917.277,0.897,0.948
1.051000,436742,1000.00,12,0,1,344.288,-2.338,13.387,915.812,-0.218,0.945
1.052000,436743,1000.00,12,0,1,345.369,-1.991,13.313,916.701,-0.129,0.944
1.053000,436744,1000.00,12,0,1,344.072,-0.748,13.312,917.133,0.970,0.948
1.054000,436745,1000.00,12,0,1,332.422,-9.305,13.373,916.581,0.001,0.948
1.055000,436746,1000.00,12,0,1,336.385,-6.362,13.295,917.782,1.000,0.957
1.056000,436747,1000.00,12,0,1,341.934,3.863,11.943,915.860,-0.216,0.956
1.057000,436748,1000.00,12,0,1,334.440,-1.694,11.409,912.978,-3.172,1.032
1.058000,436749,1000.00,12,0,1,301.411,-26.095,11.980,914.347,-1.807,1.026
1.059000,436750,1000.00,12,0,1,317.938,-17.237,12.135,914.659,-0.570,1.026
1.060000,436751,1000.00,12,0,1,344.673,18.413,12.410,915.980,0.176,1.025
1.061000,436752,1000.00,12,0,1,334.512,8.342,12.437,915.572,0.569,0.991
1.062000,436753,1000.00,12,0,1,305.831,-17.980,12.513,915.620,-0.103,0.991
1.063000,436754,1000.00,12,0,1,303.549,-22.448,12.148,916.797,1.189,1.005
1.064000,436755,1000.00,12,0,1,312.365,-9.132,11.424,916.100,0.545,1.006
1.065000,436756,1000.00,12,0,1,321.541,-0.221,11.399,916.845,0.563,1.008
1.066000,436757,1000.00,12,0,1,332.710,9.410,11.205,916.917,1.003,1.016
1.067000,436758,1000.00,12,0,1,332.110,9.511,11.285,916.172,-0.212,1.014
1.068000,436759,1000.00,12,0,1,333.455,5.967,11.316,915.164,-0.905,1.018
1.069000,436760,1000.00,12,0,1,349.405,18.852,11.616,914.827,-1.395,1.035
1.070000,436761,1000.00,12,0,1,340.445,12.192,11.724,915.596,-0.439,1.036
1.071000,436762,1000.00,12,0,1,341.286,5.681,11.747,915.596,-0.174,1.024
1.072000,436763,1000.00,12,0,1,344.480,11.736,11.707,915.884,-0.018,1.002
1.073000,436764,1000.00,12,0,1,334.416,1.533,11.585,916.317,0.582,0.993
1.074000,436765,1000.00,12,0,1,332.566,-1.061,10.912,917.830,1.634,1.017
1.075000,436766,1000.00,12,0,1,340.709,8.035,9.725,916.845,1.193,1.019
1.076000,436767,1000.00,12,0,1,345.249,12.864,9.613,915.188,-0.867,1.006
1.077000,436768,1000.00,12,0,1,339.724,8.522,9.627,915.067,-0.796,1.010
1.078000,436769,1000.00,12,0,1,336.193,3.169,9.618,914.947,-0.667,1.015
1.079000,436770,1000.00,12,0,1,332.710,1.447,9.577,915.212,-0.402,1.011
1.080000,436771,1000.00,12,0,1,334.224,0.895,9.515,916.004,0.453,0.998
1.081000,436772,1000.00,12,0,1,344.048,9.321,9.584,917.349,1.469,1.009
1.082000,436773,1000.00,12,0,1,345.417,9.796,9.584,917.446,1.608,1.033
1.083000,436774,1000.00,12,0,1,336.217,-1.231,9.517,917.614,1.131,1.045
1.084000,436775,1000.00,12,0,1,332.230,-7.842,9.581,918.310,1.568,1.069
1.085000,436776,1000.00,12,0,1,342.799,-0.512,9.569,917.061,0.314,1.063
1.086000,436777,1000.00,12,0,1,342.727,0.646,9.480,916.196,-0.971,1.066
1.087000,436778,1000.00,12,0,1,321.589,-19.459,9.768,915.980,-0.997,1.061
1.088000,436779,1000.00,12,0,1,326.489,-19.163,10.056,915.812,-1.157,1.072
1.089000,436780,1000.00,12,0,1,342.511,0.146,10.055,914.971,-1.592,1.075
1.090000,436781,1000.00,12,0,1,348.900,5.245,10.057,916.124,-0.769,1.072
1.091000,436782,1000.00,12,0,1,353.320,8.168,10.114,915.692,-0.364,1.054
1.092000,436783,1000.00,12,0,1,345.225,1.696,10.098,916.701,-0.073,1.046
1.093000,436784,1000.00,12,0,1,347.123,-0.202,10.095,917.253,1.087,1.056
1.094000,436785,1000.00,12,0,1,330.548,-8.267,10.163,917.830,1.064,1.041
1.095000,436786,1000.00,12,0,1,331.870,-12.377,10.304,916.845,0.532,1.043
1.096000,436787,1000.00,12,0,1,340.469,3.498,10.291,915.140,-1.299,1.012
1.097000,436788,1000.00,12,0,1,338.836,1.809,10.155,917.349,0.339,1.004
1.098000,436789,1000.00,12,0,1,332.422,-1.953,10.003,916.196,0.394,1.001
1.099000,436790,1000.00,12,0,1,332.422,-2.186,9.996,916.052,-0.899,1.001
1.100000,436791,1000.00,12,0,1,333.911,0.737,9.996,915.067,-0.680,0.997
1.101000,436792,1000.00,12,0,1,334.416,1.419,9.992,915.932,-0.815,1.003
1.102000,436793,1000.00,12,0,1,328.507,-3.740,10.002,917.037,0.988,1.013
1.103000,436794,1000.00,12,0,1,323.823,-8.562,10.075,916.485,0.151,1.004
1.104000,436795,1000.00,12,0,1,323.847,-8.625,10.063,917.037,0.375,1.005
1.105000,436796,1000.00,12,0,1,335.281,0.856,10.023,916.917,0.491,0.997
1.106000,436797,1000.00,12,0,1,316.737,-11.008,10.128,916.052,-0.638,1.001
1.107000,436798,1000.00,12,0,1,315.488,-19.123,10.481,915.620,-0.875,0.903
1.108000,436799,1000.00,12,0,1,324.976,-4.112,9.827,916.461,-0.312,0.868
1.109000,436800,1000.00,12,0,1,338.643,5.677,9.553,916.341,0.060,0.864
1.110000,436801,1000.00,12,0,1,361.199,25.385,9.868,916.437,-0.229,0.864
1.111000,436802,1000.00,12,0,1,361.415,25.646,10.447,916.605,0.244,0.861
1.112000,436803,1000.00,12,0,1,352.527,11.058,10.253,916.701,0.166,0.861
1.113000,436804,1000.00,12,0,1,346.714,5.510,9.780,917.422,0.817,0.853
1.114000,436805,1000.00,12,0,1,352.696,7.517,9.752,917.157,0.695,0.855
1.115000,436806,1000.00,12,0,1,360.694,16.545,10.029,915.884,-0.557,0.855
1.116000,436807,1000.00,12,0,1,344.745,2.910,9.949,915.644,-0.814,0.851
1.117000,436808,1000.00,12,0,1,318.394,-21.049,10.297,915.836,-0.405,0.852
1.118000,436809,1000.00,12,0,1,281.234,-47.800,12.289,917.061,0.612,0.847
1.119000,436810,1000.00,12,0,1,318.106,-19.532,12.310,915.764,-0.044,0.824
1.120000,436811,1000.00,12,0,1,343.327,21.969,12.578,914.875,-1.362,0.844
1.121000,436812,1000.00,12,0,1,344.288,14.371,12.716,916.557,0.314,0.844
1.122000,436813,1000.00,12,0,1,333.719,7.568,12.653,916.725,0.797,0.852
1.123000,436814,1000.00,12,0,1,334.368,0.928,12.652,916.389,0.081,0.848
1.124000,436815,1000.00,12,0,1,335.305,3.504,12.660,915.908,-0.195,0.816
1.125000,436816,1000.00,12,0,1,323.510,-8.552,12.667,917.446,0.657,0.804
1.126000,436817,1000.00,12,0,1,324.952,-11.254,12.636,916.581,0.541,0.798
1.127000,436818,1000.00,12,0,1,331.846,-1.998,12.582,916.365,-0.540,0.794
1.128000,436819,1000.00,12,0,1,329.684,-5.633,12.599,918.358,1.446,0.814
1.129000,436820,1000.00,12,0,1,330.669,-4.630,12.615,916.172,-0.105,0.813
1.130000,436821,1000.00,12,0,1,356.203,14.173,12.772,916.100,-1.171,0.827
1.131000,436822,1000.00,12,0,1,323.919,-3.734,12.715,915.572,-0.583,0.805
1.132000,436823,1000.00,12,0,1,316.496,-24.809,13.117,916.797,-0.286,0.773
1.133000,436824,1000.00,12,0,1,337.202,5.521,13.139,916.917,0.809,0.765
1.134000,436825,1000.00,12,0,1,343.400,10.726,13.180,916.701,-0.029,0.732
1.135000,436826,1000.00,12,0,1,341.622,10.323,13.260,914.683,-1.147,0.748
1.136000,436827,1000.00,12,0,1,340.829,9.178,13.323,915.860,-0.818,0.745
1.137000,436828,1000.00,12,0,1,341.670,9.427,13.104,916.220,0.546,0.735
1.138000,436829,1000.00,12,0,1,338.403,8.046,12.871,917.013,0.615,0.722
1.139000,436830,1000.00,12,0,1,336.193,3.795,12.882,916.293,0.504,0.690
1.140000,436831,1000.00,12,0,1,328.723,-0.277,12.861,915.956,-0.334,0.683
1.141000,436832,1000.00,12,0,1,325.000,-6.280,12.840,916.172,0.038,0.681
1.142000,436833,1000.00,12,0,1,333.935,2.718,12.843,917.349,0.897,0.692
1.143000,436834,1000.00,12,0,1,341.670,8.930,12.905,917.446,1.024,0.691
1.144000,436835,1000.00,12,0,1,321.349,-7.582,12.897,916.533,0.007,0.674
1.145000,436836,1000.00,12,0,1,312.221,-21.743,13.142,914.179,-2.068,0.731
1.146000,436837,1000.00,12,0,1,325.600,-7.174,13.172,914.923,-1.698,0.747
1.147000,436838,1000.00,12,0,1,322.670,-6.721,13.204,914.563,-1.108,0.762
1.148000,436839,1000.00,12,0,1,317.097,-14.112,13.351,916.461,-0.003,0.760
1.149000,436840,1000.00,12,0,1,326.129,-5.082,13.367,915.500,0.248,0.750
1.150000,436841,1000.00,12,0,1,326.153,-2.338,13.370,914.539,-1.377,0.769
1.151000,436842,1000.00,12,0,1,334.031,2.166,13.372,916.629,0.761,0.768
1.152000,436843,1000.00,12,0,1,330.188,3.154,13.369,918.118,2.336,0.824
1.153000,436844,1000.00,12,0,1,333.743,2.216,13.318,918.046,1.916,0.867
1.154000,436845,1000.00,12,0,1,338.547,10.420,13.344,918.358,1.887,0.906
1.155000,436846,1000.00,12,0,1,338.427,9.047,13.404,917.229,0.765,0.909
1.156000,436847,1000.00,12,0,1,330.861,3.899,13.325,917.974,0.828,0.913
1.157000,436848,1000.00,12,0,1,332.758,3.972,13.060,918.791,1.726,0.936
1.158000,436849,1000.00,12,0,1,336.866,9.921,13.122,918.430,1.069,0.948
1.159000,436850,1000.00,12,0,1,332.951,6.763,13.133,915.524,-1.428,0.969
1.160000,436851,1000.00,12,0,1,322.958,-2.435,12.637,914.971,-2.443,1.028
1.161000,436852,1000.00,12,0,1,316.304,-8.000,12.158,915.188,-1.505,1.049
1.162000,436853,1000.00,12,0,1,317.721,-6.366,12.091,915.404,-1.283,1.065
1.163000,436854,1000.00,12,0,1,314.455,-6.375,12.099,916.917,0.170,1.059
1.164000,436855,1000.00,12,0,1,316.448,-6.505,12.087,916.725,0.393,1.055
1.165000,436856,1000.00,12,0,1,324.952,2.373,11.864,918.022,0.797,1.059
1.166000,436857,1000.00,12,0,1,334.224,8.653,11.919,917.662,1.078,1.063
1.167000,436858,1000.00,12,0,1,335.833,9.056,11.612,917.782,0.211,1.062
1.168000,436859,1000.00,12,0,1,343.712,10.717,9.563,918.887,1.410,1.077
1.169000,436860,1000.00,12,0,1,320.003,-6.794,9.206,917.854,0.317,1.078
1.170000,436861,1000.00,12,0,1,319.859,-16.678,8.981,918.046,-0.079,1.061
1.171000,436862,1000.00,12,0,1,332.614,2.035,8.753,917.542,-0.122,1.060
1.172000,436863,1000.00,12,0,1,326.849,-3.231,8.699,915.596,-2.049,1.093
1.173000,436864,1000.00,12,0,1,316.665,-11.630,8.852,916.965,-0.976,1.102
1.174000,436865,1000.00,12,0,1,319.019,-8.049,8.911,919.607,1.786,1.130
1.175000,436866,1000.00,12,0,1,323.679,-0.398,8.829,919.247,1.579,1.148
1.176000,436867,1000.00,12,0,1,338.836,13.453,8.890,915.908,-1.548,1.166
1.177000,436868,1000.00,12,0,1,330.669,10.815,9.016,913.963,-3.455,1.262
1.178000,436869,1000.00,12,0,1,314.166,-6.729,9.031,916.653,-0.891,1.252
1.179000,436870,1000.00,12,0,1,309.867,-8.872,9.095,918.214,1.371,1.267
1.180000,436871,1000.00,12,0,1,314.551,-2.200,8.876,915.740,-0.839,1.262
1.181000,436872,1000.00,12,0,1,317.097,2.034,8.865,915.932,-1.210,1.270
1.182000,436873,1000.00,12,0,1,306.792,-4.905,8.171,915.019,-1.072,1.279
1.183000,436874,1000.00,12,0,1,308.618,-6.333,8.183,914.467,-2.000,1.305
1.184000,436875,1000.00,12,0,1,314.070,2.130,8.047,915.284,-0.700,1.308
1.185000,436876,1000.00,12,0,1,298.409,-11.154,8.069,917.013,0.755,1.303
1.186000,436877,1000.00,12,0,1,282.363,-26.046,8.774,917.109,1.165,1.308
1.187000,436878,1000.00,12,0,1,282.219,-23.829,9.304,916.509,0.227,1.306
1.188000,436879,1000.00,12,0,1,304.054,-2.628,9.242,916.989,0.494,1.305
1.189000,436880,1000.00,12,0,1,314.262,11.367,9.365,918.454,1.686,1.325
1.190000,436881,1000.00,12,0,1,304.246,0.939,9.366,918.671,1.803,1.348
1.191000,436882,1000.00,12,0,1,309.675,2.774,9.332,919.031,1.625,1.368
1.192000,436883,1000.00,12,0,1,314.046,10.008,9.431,917.229,0.178,1.362
1.193000,436884,1000.00,12,0,1,325.672,16.493,9.633,917.470,-0.351,1.355
1.194000,436885,1000.00,12,0,1,327.906,21.335,10.037,916.773,-0.216,1.356
1.195000,436886,1000.00,12,0,1,335.112,21.703,10.035,917.205,-0.402,1.325
1.196000,436887,1000.00,12,0,1,335.545,23.800,10.536,916.677,-0.129,1.303
1.197000,436888,1000.00,12,0,1,335.449,18.402,10.811,915.812,-1.159,1.304
1.198000,436889,1000.00,12,0,1,333.911,16.811,10.888,916.773,-0.159,1.304
1.199000,436890,1000.00,12,0,1,328.987,9.998,10.956,916.557,0.144,1.304
1.200000,436891,1000.00,12,0,1,340.565,16.266,11.190,915.692,-0.872,1.295
1.201000,436892,1000.00,12,0,1,357.019,30.322,11.979,916.605,0.032,1.291
1.202000,436893,1000.00,12,0,1,370.423,35.521,12.982,916.509,0.184,1.248
1.203000,436894,1000.00,12,0,1,340.109,8.823,13.038,918.382,1.295,1.232
1.204000,436895,1000.00,12,0,1,314.262,-26.050,13.468,918.262,1.631,1.224
1.205000,436896,1000.00,12,0,1,324.928,-15.336,13.582,916.533,-0.583,1.222
1.206000,436897,1000.00,12,0,1,333.719,-5.408,13.592,915.932,-1.219,1.229
1.207000,436898,1000.00,12,0,1,336.121,-5.327,13.601,916.989,-0.341,1.205
1.208000,436899,1000.00,12,0,1,330.284,-10.329,13.607,916.845,-0.163,1.196
1.209000,436900,1000.00,12,0,1,334.632,-10.690,13.658,916.028,-1.036,1.188
1.210000,436901,1000.00,12,0,1,341.838,-2.322,13.657,916.485,-0.663,1.141
1.211000,436902,1000.00,12,0,1,337.178,-7.696,13.654,917.133,0.204,1.121
1.212000,436903,1000.00,12,0,1,336.722,-9.701,13.693,916.941,0.047,1.106
1.213000,436904,1000.00,12,0,1,331.581,-11.913,13.767,916.269,-0.426,1.107
1.214000,436905,1000.00,12,0,1,321.853,-19.924,14.022,918.526,1.182,1.119
1.215000,436906,1000.00,12,0,1,322.622,-17.109,14.225,917.325,1.067,1.123
1.216000,436907,1000.00,12,0,1,332.422,-5.017,14.190,919.031,1.164,1.125
1.217000,436908,1000.00,12,0,1,332.662,-0.801,14.133,919.295,2.505,1.179
1.218000,436909,1000.00,12,0,1,331.125,-2.180,14.055,918.022,0.345,1.163
1.219000,436910,1000.00,12,0,1,332.278,0.849,14.022,919.728,1.635,1.185
1.220000,436911,1000.00,12,0,1,328.098,-1.257,13.824,918.983,1.333,1.200
1.221000,436912,1000.00,12,0,1,331.197,0.675,13.821,917.325,-0.935,1.207
1.222000,436913,1000.00,12,0,1,322.502,-3.044,13.820,916.965,-1.052,1.181
1.223000,436914,1000.00,12,0,1,311.380,-14.715,13.879,916.581,-1.438,1.190
1.224000,436915,1000.00,12,0,1,311.524,-12.272,13.941,918.671,0.267,1.164
1.225000,436916,1000.00,12,0,1,318.946,-4.260,13.953,917.854,0.153,1.142
1.226000,436917,1000.00,12,0,1,327.210,4.086,13.835,916.028,-2.073,1.159
1.227000,436918,1000.00,12,0,1,332.566,8.086,13.798,916.701,-1.389,1.069
1.228000,436919,1000.00,12,0,1,335.809,8.773,13.821,916.725,-0.915,1.070
1.229000,436920,1000.00,12,0,1,335.232,6.559,13.795,916.533,-1.210,1.066
1.230000,436921,1000.00,12,0,1,334.536,3.156,13.799,916.773,-0.719,1.064
1.231000,436922,1000.00,12,0,1,331.966,0.339,13.796,918.767,0.817,1.056
1.232000,436923,1000.00,12,0,1,328.146,-4.124,13.791,918.142,0.884,1.053
1.233000,436924,1000.00,12,0,1,325.360,-5.888,13.787,916.653,-1.040,1.025
1.234000,436925,1000.00,12,0,1,328.867,-2.445,13.788,915.836,-1.400,1.039
1.235000,436926,1000.00,12,0,1,321.613,-4.953,13.715,916.581,-0.767,1.039
1.236000,436927,1000.00,12,0,1,306.264,-17.463,13.440,916.196,-0.435,1.028
1.237000,436928,1000.00,12,0,1,316.280,-7.892,13.059,916.629,-0.293,1.028
1.238000,436929,1000.00,12,0,1,322.694,5.302,13.075,919.079,2.034,1.065
1.239000,436930,1000.00,12,0,1,320.099,2.456,12.980,919.103,2.344,1.090
1.240000,436931,1000.00,12,0,1,318.706,3.139,12.987,916.461,-0.403,1.061
1.241000,436932,1000.00,12,0,1,319.643,4.031,12.994,916.533,-0.734,1.041
1.242000,436933,1000.00,12,0,1,324.399,8.407,12.971,916.245,-0.412,1.043
1.243000,436934,1000.00,12,0,1,328.939,11.968,12.871,917.758,0.422,1.043
1.244000,436935,1000.00,12,0,1,336.121,15.501,12.703,917.542,0.905,1.051
1.245000,436936,1000.00,12,0,1,330.524,10.178,12.411,916.413,-0.681,1.053
1.246000,436937,1000.00,12,0,1,324.832,-0.173,11.946,917.085,-0.101,1.053
1.247000,436938,1000.00,12,0,1,338.115,9.004,11.728,916.052,-0.609,1.044
1.248000,436939,1000.00,12,0,1,341.478,12.341,11.616,917.181,-0.298,1.045
1.249000,436940,1000.00,12,0,1,311.740,-14.922,11.722,916.677,0.186,1.045
1.250000,436941,1000.00,12,0,1,322.093,-14.091,11.665,914.779,-2.033,1.077
1.251000,436942,1000.00,12,0,1,339.484,9.756,10.936,914.827,-1.672,1.102
1.252000,436943,1000.00,12,0,1,329.347,-1.093,9.715,915.140,-1.001,1.111
1.253000,436944,1000.00,12,0,1,309.650,-18.218,9.973,915.692,-0.339,1.097
1.254000,436945,1000.00,12,0,1,309.987,-18.190,9.618,914.659,-0.718,1.077
1.255000,436946,1000.00,12,0,1,315.007,-7.712,9.434,916.725,0.539,1.077
1.256000,436947,1000.00,12,0,1,307.417,-10.597,9.521,916.461,1.430,1.082
1.257000,436948,1000.00,12,0,1,294.517,-19.301,9.876,917.037,0.865,1.088
1.258000,436949,1000.00,12,0,1,305.207,-8.015,9.833,918.599,2.733,1.154
1.259000,436950,1000.00,12,0,1,317.769,9.064,9.800,916.196,0.557,1.147
1.260000,436951,1000.00,12,0,1,318.514,10.464,9.906,917.301,0.479,1.146
1.261000,436952,1000.00,12,0,1,314.623,6.350,9.887,916.461,0.857,1.152
1.262000,436953,1000.00,12,0,1,317.169,7.346,9.846,914.947,-1.444,1.170
1.263000,436954,1000.00,12,0,1,319.811,9.390,9.791,915.572,-0.418,1.170
1.264000,436955,1000.00,12,0,1,319.739,7.822,9.442,915.092,-0.641,1.161
1.265000,436956,1000.00,12,0,1,320.580,6.281,9.170,916.100,0.005,1.151
1.266000,436957,1000.00,12,0,1,317.049,2.537,9.150,916.220,0.636,1.143
1.267000,436958,1000.00,12,0,1,310.852,-4.943,9.176,916.485,0.337,1.088
1.268000,436959,1000.00,12,0,1,314.983,-2.480,9.177,915.332,-0.206,1.087
1.269000,436960,1000.00,12,0,1,325.816,7.120,9.231,916.581,0.095,1.062
1.270000,436961,1000.00,12,0,1,315.415,-0.040,9.230,915.860,0.390,1.047
1.271000,436962,1000.00,12,0,1,310.203,-8.993,9.316,915.908,-0.479,1.041
1.272000,436963,1000.00,12,0,1,331.053,10.003,9.413,914.395,-0.930,1.038
1.273000,436964,1000.00,12,0,1,341.478,21.630,9.677,915.620,-0.683,1.023
1.274000,436965,1000.00,12,0,1,313.854,-2.727,9.528,917.277,1.617,1.047
1.275000,436966,1000.00,12,0,1,303.789,-17.165,9.814,915.980,0.359,1.048
1.276000,436967,1000.00,12,0,1,328.194,7.557,9.855,917.373,0.872,1.014
1.277000,436968,1000.00,12,0,1,304.366,-4.192,9.806,916.389,0.923,1.003
1.278000,436969,1000.00,12,0,1,295.190,-21.395,10.187,915.740,-0.722,1.000
1.279000,436970,1000.00,12,0,1,307.537,-1.192,10.146,915.380,-0.244,0.986
1.280000,436971,1000.00,12,0,1,328.747,15.194,10.361,916.220,-0.075,0.981
1.281000,436972,1000.00,12,0,1,333.191,22.878,10.855,916.605,0.881,0.982
1.282000,436973,1000.00,12,0,1,317.457,4.340,10.856,917.205,0.891,0.982
1.283000,436974,1000.00,12,0,1,317.457,-0.298,10.824,917.205,1.086,0.983
1.284000,436975,1000.00,12,0,1,304.630,-7.303,10.868,917.662,0.999,0.973
1.285000,436976,1000.00,12,0,1,307.417,-11.648,10.970,916.365,0.066,0.967
1.286000,436977,1000.00,12,0,1,310.443,-2.199,10.693,917.830,0.522,0.968
1.287000,436978,1000.00,12,0,1,313.662,-3.836,10.648,918.142,1.398,0.987
1.288000,436979,1000.00,12,0,1,328.555,10.249,10.720,916.413,-0.650,0.949
1.289000,436980,1000.00,12,0,1,340.109,18.688,11.036,915.980,-1.247,0.906
1.290000,436981,1000.00,12,0,1,340.661,16.352,11.267,916.148,-0.820,0.912
1.291000,436982,1000.00,12,0,1,331.461,5.343,11.278,917.181,-0.105,0.906
1.292000,436983,1000.00,12,0,1,330.428,0.328,11.215,916.220,-0.379,0.906
1.293000,436984,1000.00,12,0,1,331.461,2.630,11.093,916.941,-0.506,0.907
1.294000,436985,1000.00,12,0,1,330.861,0.557,10.874,915.572,-0.703,0.903
1.295000,436986,1000.00,12,0,1,333.575,3.345,10.789,917.518,-0.147,0.898
1.296000,436987,1000.00,12,0,1,338.788,7.322,10.838,917.373,1.077,0.911
1.297000,436988,1000.00,12,0,1,318.226,-7.290,10.813,917.037,-0.324,0.908
1.298000,436989,1000.00,12,0,1,327.906,-6.114,10.706,916.773,0.037,0.907
1.299000,436990,1000.00,12,0,1,332.158,7.019,10.543,917.662,0.320,0.908
1.300000,436991,1000.00,12,0,1,318.322,-9.005,10.431,916.293,-0.307,0.862
1.301000,436992,1000.00,12,0,1,306.360,-17.756,10.639,915.956,-1.174,0.846
1.302000,436993,1000.00,12,0,1,305.399,-17.787,10.932,917.181,0.218,0.834
1.303000,436994,1000.00,12,0,1,311.164,-9.984,10.717,918.166,1.172,0.849
1.304000,436995,1000.00,12,0,1,323.342,1.736,10.407,916.725,-0.088,0.843
1.305000,436996,1000.00,12,0,1,302.733,-12.130,10.491,916.773,-0.477,0.842
1.306000,436997,1000.00,12,0,1,297.136,-23.040,10.882,917.253,0.193,0.818
1.307000,436998,1000.00,12,0,1,301.556,-12.592,10.684,916.725,-0.245,0.810
1.308000,436999,1000.00,12,0,1,314.863,-2.169,10.628,915.404,-1.436,0.740
1.309000,437000,1000.00,12,0,1,325.000,9.714,10.639,916.461,-0.633,0.741
1.310000,437001,1000.00,12,0,1,322.622,6.448,10.575,917.085,0.386,0.740
1.311000,437002,1000.00,12,0,1,322.357,3.461,10.549,918.142,0.969,0.743
1.312000,437003,1000.00,12,0,1,312.005,-2.918,10.505,916.196,-0.258,0.715
1.313000,437004,1000.00,12,0,1,315.343,-4.070,10.437,916.581,-0.817,0.722
1.314000,437005,1000.00,12,0,1,314.503,1.910,10.382,914.155,-1.716,0.756
1.315000,437006,1000.00,12,0,1,313.230,-1.771,10.347,914.371,-2.483,0.834
1.316000,437007,1000.00,12,0,1,306.432,-2.467,10.346,915.692,-0.094,0.829
1.317000,437008,1000.00,12,0,1,304.078,-5.508,10.352,916.653,0.540,0.831
1.318000,437009,1000.00,12,0,1,312.965,5.516,10.376,917.373,1.352,0.852
1.319000,437010,1000.00,12,0,1,318.490,12.350,10.473,917.373,1.268,0.871
1.320000,437011,1000.00,12,0,1,316.088,9.793,10.564,918.286,1.576,0.897
1.321000,437012,1000.00,12,0,1,316.352,8.716,10.560,919.703,2.830,0.980
1.322000,437013,1000.00,12,0,1,322.309,12.292,10.608,916.725,0.171,0.972
1.323000,437014,1000.00,12,0,1,340.229,24.982,10.754,915.692,-1.602,0.993
1.324000,437015,1000.00,12,0,1,324.759,12.799,10.899,916.004,-0.755,0.972
1.325000,437016,1000.00,12,0,1,308.762,-10.397,10.726,916.341,-0.491,0.973
1.326000,437017,1000.00,12,0,1,314.214,-5.303,10.699,916.461,-0.170,0.966
1.327000,437018,1000.00,12,0,1,314.695,-3.728,10.696,916.413,-0.181,0.957
1.328000,437019,1000.00,12,0,1,320.676,-1.470,10.261,915.836,-0.606,0.956
1.329000,437020,1000.00,12,0,1,317.553,-1.426,10.261,915.812,-0.616,0.959
1.330000,437021,1000.00,12,0,1,317.409,-5.796,10.067,916.365,-0.037,0.959
1.331000,437022,1000.00,12,0,1,317.986,-2.371,9.539,915.764,-0.284,0.952
1.332000,437023,1000.00,12,0,1,320.532,-2.020,9.524,919.223,1.963,0.983
1.333000,437024,1000.00,12,0,1,306.696,-9.796,9.624,918.719,2.614,1.039
1.334000,437025,1000.00,12,0,1,283.900,-29.798,10.455,916.965,-0.354,1.031
1.335000,437026,1000.00,12,0,1,285.918,-25.293,10.927,917.662,0.436,1.033
1.336000,437027,1000.00,12,0,1,287.792,-14.276,11.107,916.485,-0.452,1.032
1.337000,437028,1000.00,12,0,1,294.758,-6.870,11.136,915.764,-1.462,1.034
1.338000,437029,1000.00,12,0,1,308.497,10.344,11.138,916.893,-0.187,1.030
1.339000,437030,1000.00,12,0,1,315.295,16.852,11.080,917.854,0.716,1.020
1.340000,437031,1000.00,12,0,1,323.943,22.434,11.290,916.869,0.058,1.013
1.341000,437032,1000.00,12,0,1,321.108,19.406,11.595,916.293,-0.858,1.020
1.342000,437033,1000.00,12,0,1,319.643,12.474,11.728,917.542,0.387,1.020
1.343000,437034,1000.00,12,0,1,315.439,8.436,11.783,915.884,-0.612,1.022
1.344000,437035,1000.00,12,0,1,305.831,-3.067,11.790,917.157,-0.317,1.018
1.345000,437036,1000.00,12,0,1,312.485,0.112,11.781,917.133,0.696,1.022
1.346000,437037,1000.00,12,0,1,313.998,3.708,11.747,915.284,-1.477,1.032
1.347000,437038,1000.00,12,0,1,314.022,0.063,11.702,917.085,-0.018,1.031
1.348000,437039,1000.00,12,0,1,322.333,6.823,11.709,917.013,0.672,1.036
1.349000,437040,1000.00,12,0,1,323.414,7.253,11.712,915.332,-1.295,1.051
1.350000,437041,1000.00,12,0,1,318.658,0.865,11.644,916.076,-0.587,1.053
1.351000,437042,1000.00,12,0,1,321.060,1.267,11.371,917.013,0.499,1.042
1.352000,437043,1000.00,12,0,1,339.893,15.859,11.314,917.926,1.157,1.055
1.353000,437044,1000.00,12,0,1,327.906,9.275,11.302,916.725,0.291,1.042
1.354000,437045,1000.00,12,0,1,294.325,-24.616,11.823,915.500,-1.225,1.057
1.355000,437046,1000.00,12,0,1,298.793,-21.852,12.099,914.323,-1.863,1.087
1.356000,437047,1000.00,12,0,1,308.978,-4.244,11.668,915.740,-0.831,1.093
1.357000,437048,1000.00,12,0,1,320.099,4.453,11.548,915.092,-0.412,1.094
1.358000,437049,1000.00,12,0,1,327.930,14.317,11.720,912.641,-2.759,1.143
1.359000,437050,1000.00,12,0,1,321.781,7.147,11.683,915.019,-0.756,1.145
1.360000,437051,1000.00,12,0,1,310.299,-4.306,11.664,914.611,0.255,1.144
1.361000,437052,1000.00,12,0,1,309.170,-6.747,11.692,917.614,1.560,1.157
1.362000,437053,1000.00,12,0,1,307.296,-6.245,11.718,921.073,5.575,1.400
1.363000,437054,1000.00,12,0,1,298.048,-13.724,11.864,917.662,2.035,1.424
1.364000,437055,1000.00,12,0,1,301.940,-11.269,11.968,916.893,0.001,1.403
1.365000,437056,1000.00,12,0,1,313.133,1.340,11.967,916.172,0.100,1.359
1.366000,437057,1000.00,12,0,1,323.414,9.192,12.032,914.443,-1.926,1.386
1.367000,437058,1000.00,12,0,1,326.225,11.190,12.110,917.518,0.650,1.387
1.368000,437059,1000.00,12,0,1,324.447,6.248,12.118,918.022,1.936,1.401
1.369000,437060,1000.00,12,0,1,328.915,7.603,12.039,917.566,0.630,1.392
1.370000,437061,1000.00,12,0,1,335.593,12.007,12.079,917.325,0.616,1.377
1.371000,437062,1000.00,12,0,1,317.409,-2.961,12.023,916.509,-0.391,1.318
1.372000,437063,1000.00,12,0,1,319.667,-7.535,11.945,915.980,-0.846,1.324
1.373000,437064,1000.00,12,0,1,319.283,-0.814,11.411,917.013,-0.027,1.304
1.374000,437065,1000.00,12,0,1,319.571,-4.008,11.281,918.334,1.254,1.312
1.375000,437066,1000.00,12,0,1,325.264,4.172,11.200,918.575,1.356,1.324
1.376000,437067,1000.00,12,0,1,354.377,25.647,11.749,917.229,-0.034,1.324
1.377000,437068,1000.00,12,0,1,339.893,19.617,12.060,917.325,-0.373,1.324
1.378000,437069,1000.00,12,0,1,334.992,1.867,12.061,917.494,0.007,1.322
1.379000,437070,1000.00,12,0,1,312.653,-9.216,12.130,917.181,-0.421,1.320
1.380000,437071,1000.00,12,0,1,290.914,-34.467,13.047,916.893,-0.662,1.323
1.381000,437072,1000.00,12,0,1,304.006,-19.028,13.317,915.860,-1.399,1.338
1.382000,437073,1000.00,12,0,1,305.999,-9.209,13.378,916.341,-1.164,1.319
1.383000,437074,1000.00,12,0,1,330.284,5.667,13.330,917.061,-0.046,1.266
1.384000,437075,1000.00,12,0,1,360.502,37.421,13.709,915.404,-1.340,1.279
1.385000,437076,1000.00,12,0,1,339.196,14.891,13.401,915.404,-1.589,1.297
1.386000,437077,1000.00,12,0,1,302.805,-23.621,13.662,916.965,0.221,1.296
1.387000,437078,1000.00,12,0,1,295.238,-32.436,14.379,917.686,0.962,1.287
1.388000,437079,1000.00,12,0,1,313.614,-12.172,14.408,916.701,0.126,1.286
1.389000,437080,1000.00,12,0,1,315.704,-4.758,14.225,915.380,-1.192,1.293
1.390000,437081,1000.00,12,0,1,302.204,-16.639,14.065,916.172,-0.565,1.296
1.391000,437082,1000.00,12,0,1,304.606,-14.141,13.939,915.620,-0.436,1.292
1.392000,437083,1000.00,12,0,1,310.852,-3.669,13.837,915.428,-0.947,1.297
1.393000,437084,1000.00,12,0,1,312.341,-0.885,13.786,915.692,-0.247,1.295
1.394000,437085,1000.00,12,0,1,317.890,5.093,13.798,914.683,-0.994,1.302
1.395000,437086,1000.00,12,0,1,314.503,4.683,13.813,914.611,-1.072,1.307
1.396000,437087,1000.00,12,0,1,291.034,-14.026,13.945,914.803,-0.458,1.292
1.397000,437088,1000.00,12,0,1,310.179,-1.796,13.948,915.356,0.014,1.292
1.398000,437089,1000.00,12,0,1,322.381,19.607,14.188,916.581,1.251,1.300
1.399000,437090,1000.00,12,0,1,303.405,-0.173,14.151,916.773,1.449,1.304
1.400000,437091,1000.00,12,0,1,307.344,0.054,14.150,915.019,-0.128,1.301
1.401000,437092,1000.00,12,0,1,324.303,17.720,14.369,914.659,-0.804,1.304
1.402000,437093,1000.00,12,0,1,303.333,1.450,14.195,915.980,0.614,1.297
1.403000,437094,1000.00,12,0,1,291.827,-15.107,14.294,916.485,1.188,1.307
1.404000,437095,1000.00,12,0,1,318.418,9.029,13.923,917.325,1.597,1.315
1.405000,437096,1000.00,12,0,1,333.215,25.341,14.040,916.749,1.237,1.300
1.406000,437097,1000.00,12,0,1,341.238,25.043,14.468,915.043,-0.629,1.298
1.407000,437098,1000.00,12,0,1,327.162,12.816,14.567,912.930,-2.276,1.336
1.408000,437099,1000.00,12,0,1,318.995,-3.603,14.435,914.875,-0.883,1.284
1.409000,437100,1000.00,12,0,1,306.216,-10.719,14.479,913.915,-0.383,1.280
1.410000,437101,1000.00,12,0,1,304.246,-16.536,14.654,914.131,-1.087,1.289
1.411000,437102,1000.00,12,0,1,324.832,4.478,14.637,915.692,1.099,1.280
1.412000,437103,1000.00,12,0,1,342.391,21.280,14.917,915.620,0.931,1.016
1.413000,437104,1000.00,12,0,1,322.261,4.624,14.804,915.908,0.916,0.983
1.414000,437105,1000.00,12,0,1,312.725,-10.417,14.792,914.563,0.054,0.983
1.415000,437106,1000.00,12,0,1,312.389,-6.235,14.817,915.572,0.135,0.984
1.416000,437107,1000.00,12,0,1,300.379,-14.632,14.904,913.987,-0.169,0.945
1.417000,437108,1000.00,12,0,1,302.901,-12.834,14.931,913.602,-1.552,0.966
1.418000,437109,1000.00,12,0,1,302.492,-6.376,14.932,916.653,1.692,0.957
1.419000,437110,1000.00,12,0,1,304.006,-6.523,14.921,916.581,1.872,0.989
1.420000,437111,1000.00,12,0,1,310.587,2.851,14.830,916.076,0.707,0.990
1.421000,437112,1000.00,12,0,1,313.902,5.091,14.842,917.662,1.957,1.027
1.422000,437113,1000.00,12,0,1,319.091,8.803,14.855,917.181,1.556,1.043
1.423000,437114,1000.00,12,0,1,319.691,8.367,14.902,914.923,-0.791,1.049
1.424000,437115,1000.00,12,0,1,315.896,2.619,14.896,915.260,-0.890,1.042
1.425000,437116,1000.00,12,0,1,314.767,-0.178,14.884,916.365,0.534,1.026
1.426000,437117,1000.00,12,0,1,316.616,0.299,14.436,917.061,0.940,1.035
1.427000,437118,1000.00,12,0,1,318.418,1.269,14.168,916.485,0.554,1.037
1.428000,437119,1000.00,12,0,1,321.661,2.757,14.171,915.524,-0.604,1.040
1.429000,437120,1000.00,12,0,1,317.433,-0.404,14.111,915.116,-0.890,1.046
1.430000,437121,1000.00,12,0,1,314.262,-5.043,13.261,914.971,-0.908,1.050
1.431000,437122,1000.00,12,0,1,312.125,-5.171,13.006,914.659,-1.008,1.041
1.432000,437123,1000.00,12,0,1,319.163,0.269,12.941,915.884,-0.012,1.028
1.433000,437124,1000.00,12,0,1,331.990,13.086,13.048,916.245,0.670,1.032
1.434000,437125,1000.00,12,0,1,318.514,3.678,11.938,914.923,-0.637,1.018
1.435000,437126,1000.00,12,0,1,291.875,-21.751,12.146,914.851,-0.920,1.002
1.436000,437127,1000.00,12,0,1,297.112,-17.154,11.927,916.052,0.312,1.002
1.437000,437128,1000.00,12,0,1,306.408,-1.488,11.012,914.899,-0.419,0.995
1.438000,437129,1000.00,12,0,1,307.104,-0.222,10.876,915.812,-0.235,0.995
1.439000,437130,1000.00,12,0,1,303.645,-1.453,10.858,913.650,-1.129,0.994
1.440000,437131,1000.00,12,0,1,320.532,10.363,10.700,915.548,-0.724,0.996
1.441000,437132,1000.00,12,0,1,343.640,31.706,11.428,915.692,0.952,1.003
1.442000,437133,1000.00,12,0,1,299.081,-3.960,11.430,914.323,-1.147,1.007
1.443000,437134,1000.00,12,0,1,270.425,-41.793,12.867,913.890,-1.070,1.018
1.444000,437135,1000.00,12,0,1,299.970,-9.931,12.924,915.716,0.373,1.009
1.445000,437136,1000.00,12,0,1,302.108,0.318,12.907,915.572,0.854,1.005
1.446000,437137,1000.00,12,0,1,321.060,8.598,12.811,914.227,-0.601,1.007
1.447000,437138,1000.00,12,0,1,332.854,25.391,13.303,915.019,-0.077,1.007
1.448000,437139,1000.00,12,0,1,333.503,17.266,13.237,916.341,1.493,1.013
1.449000,437140,1000.00,12,0,1,321.373,7.339,13.278,916.461,1.353,1.011
1.450000,437141,1000.00,12,0,1,313.662,-5.305,13.299,917.422,1.942,1.047
1.451000,437142,1000.00,12,0,1,315.343,-2.175,13.065,916.245,0.956,1.050
1.452000,437143,1000.00,12,0,1,319.883,2.111,13.066,915.932,0.025,1.046
1.453000,437144,1000.00,12,0,1,313.758,-1.437,12.892,917.494,1.385,1.051
1.454000,437145,1000.00,12,0,1,305.135,-8.864,12.890,915.356,-0.127,1.027
1.455000,437146,1000.00,12,0,1,323.318,5.393,12.405,914.539,-1.740,1.041
1.456000,437147,1000.00,12,0,1,339.436,24.402,12.380,915.860,-0.032,1.037
1.457000,437148,1000.00,12,0,1,316.568,3.487,12.256,915.740,-0.079,0.986
1.458000,437149,1000.00,12,0,1,289.353,-23.743,12.698,915.332,-0.535,0.981
1.459000,437150,1000.00,12,0,1,308.017,-9.166,12.673,915.884,-0.094,0.980
1.460000,437151,1000.00,12,0,1,316.136,7.217,12.497,916.869,0.776,0.974
1.461000,437152,1000.00,12,0,1,301.171,-9.107,12.548,916.124,0.249,0.962
1.462000,437153,1000.00,12,0,1,308.546,-4.740,12.200,915.716,-0.541,0.956
1.463000,437154,1000.00,12,0,1,331.101,16.161,12.395,916.196,0.039,0.947
1.464000,437155,1000.00,12,0,1,338.259,21.309,12.671,916.220,0.053,0.947
1.465000,437156,1000.00,12,0,1,315.223,-1.204,12.641,914.371,-1.360,0.966
1.466000,437157,1000.00,12,0,1,303.309,-18.345,12.737,915.236,-1.055,0.978
1.467000,437158,1000.00,12,0,1,303.117,-14.833,12.781,915.788,0.236,0.953
1.468000,437159,1000.00,12,0,1,302.300,-14.751,12.918,917.830,1.392,0.943
1.469000,437160,1000.00,12,0,1,311.500,-5.308,12.907,918.310,2.342,0.964
1.470000,437161,1000.00,12,0,1,301.916,-8.472,12.957,917.446,0.844,0.966
1.471000,437162,1000.00,12,0,1,312.581,-3.977,12.949,917.253,0.482,0.928
1.472000,437163,1000.00,12,0,1,311.932,4.497,12.904,916.220,-0.389,0.904
1.473000,437164,1000.00,12,0,1,298.289,-10.709,12.939,915.908,-1.007,0.908
1.474000,437165,1000.00,12,0,1,302.276,-5.194,12.955,915.812,-0.702,0.905
1.475000,437166,1000.00,12,0,1,300.883,-1.547,12.956,916.461,-0.376,0.903
1.476000,437167,1000.00,12,0,1,314.623,7.817,13.003,917.205,0.591,0.897
1.477000,437168,1000.00,12,0,1,334.584,28.839,13.627,917.373,0.513,0.897
1.478000,437169,1000.00,12,0,1,303.645,3.528,13.630,917.446,0.500,0.895
1.479000,437170,1000.00,12,0,1,263.435,-37.035,14.602,917.446,0.320,0.888
1.480000,437171,1000.00,12,0,1,321.252,7.703,14.625,916.148,-0.751,0.885
1.481000,437172,1000.00,12,0,1,316.761,25.704,15.052,917.518,-0.096,0.873
1.482000,437173,1000.00,12,0,1,313.878,0.847,15.053,919.343,1.921,0.915
1.483000,437174,1000.00,12,0,1,325.672,20.668,15.222,917.542,0.249,0.910
1.484000,437175,1000.00,12,0,1,288.488,-14.865,15.357,917.181,-0.809,0.913
1.485000,437176,1000.00,12,0,1,281.234,-28.694,15.584,919.415,1.297,0.922
1.486000,437177,1000.00,12,0,1,293.052,-8.926,15.446,918.791,0.939,0.931
1.487000,437178,1000.00,12,0,1,289.545,-11.805,15.534,918.262,-0.214,0.929
1.488000,437179,1000.00,12,0,1,293.172,-6.444,15.561,919.728,1.012,0.940
1.489000,437180,1000.00,12,0,1,306.720,5.626,15.580,918.575,0.238,0.926
1.490000,437181,1000.00,12,0,1,308.978,10.940,15.588,916.605,-1.978,0.962
1.491000,437182,1000.00,12,0,1,308.594,7.038,14.962,916.557,-1.881,0.989
1.492000,437183,1000.00,12,0,1,306.047,6.406,14.979,918.478,-0.088,0.976
1.493000,437184,1000.00,12,0,1,301.652,1.057,13.764,916.533,-1.002,0.975
1.494000,437185,1000.00,12,0,1,297.304,-1.349,13.694,915.812,-2.402,1.031
1.495000,437186,1000.00,12,0,1,279.024,-14.410,13.844,914.491,-2.453,1.081
1.496000,437187,1000.00,12,0,1,269.536,-22.569,14.156,915.572,-1.971,1.113
1.497000,437188,1000.00,12,0,1,312.821,15.506,13.867,917.301,0.511,1.115
1.498000,437189,1000.00,12,0,1,321.901,33.985,14.472,916.004,-0.508,1.097
1.499000,437190,1000.00,12,0,1,299.802,5.670,14.457,916.245,-0.732,1.086
1.500000,437191,1000.00,12,0,1,288.680,-5.367,14.457,916.317,-0.015,1.050
1.501000,437192,1000.00,12,0,1,293.917,-1.790,14.456,917.542,0.490,1.044
1.502000,437193,1000.00,12,0,1,300.475,5.569,14.474,919.103,2.263,1.092
1.503000,437194,1000.00,12,0,1,302.853,6.797,14.505,918.887,1.669,1.100
1.504000,437195,1000.00,12,0,1,308.353,8.951,14.506,918.382,0.910,1.107
1.505000,437196,1000.00,12,0,1,310.731,10.545,14.562,917.301,-0.152,1.079
1.506000,437197,1000.00,12,0,1,313.758,8.983,14.205,916.076,-1.322,1.096
1.507000,437198,1000.00,12,0,1,307.489,3.759,14.206,916.821,-0.680,1.100
1.508000,437199,1000.00,12,0,1,300.643,-6.186,13.831,917.037,0.006,1.097
1.509000,437200,1000.00,12,0,1,304.582,-2.488,13.775,916.533,-0.480,1.099
1.510000,437201,1000.00,12,0,1,309.410,2.280,13.741,916.341,-0.494,1.096
1.511000,437202,1000.00,12,0,1,312.173,4.362,13.694,917.566,0.564,1.098
1.512000,437203,1000.00,12,0,1,287.071,-14.140,13.823,916.701,0.299,1.096
1.513000,437204,1000.00,12,0,1,274.484,-28.941,14.234,916.869,-0.118,1.096
1.514000,437205,1000.00,12,0,1,285.294,-12.789,14.028,916.413,0.059,1.096
1.515000,437206,1000.00,12,0,1,291.635,-2.778,14.033,916.653,-0.180,1.080
1.516000,437207,1000.00,12,0,1,298.024,3.814,13.801,917.566,0.887,1.077
1.517000,437208,1000.00,12,0,1,312.533,16.740,13.845,915.836,-0.462,1.078
1.518000,437209,1000.00,12,0,1,324.663,26.259,14.182,916.509,-0.582,1.063
1.519000,437210,1000.00,12,0,1,311.260,13.615,14.292,916.509,0.246,1.011
1.520000,437211,1000.00,12,0,1,304.246,-0.009,14.242,916.293,-0.560,1.007
1.521000,437212,1000.00,12,0,1,309.650,5.318,14.251,915.284,-0.886,1.012
1.522000,437213,1000.00,12,0,1,296.559,-5.685,14.259,917.974,0.674,1.015
1.523000,437214,1000.00,12,0,1,294.782,-11.548,14.272,918.767,2.354,1.059
1.524000,437215,1000.00,12,0,1,315.007,7.401,14.292,918.887,1.393,1.073
1.525000,437216,1000.00,12,0,1,327.234,18.401,14.525,918.142,0.987,1.080
1.526000,437217,1000.00,12,0,1,328.627,15.724,14.653,919.031,0.976,1.086
1.527000,437218,1000.00,12,0,1,339.508,19.663,14.346,917.494,0.204,1.084
1.528000,437219,1000.00,12,0,1,314.719,0.357,14.337,916.821,-1.139,1.094
1.529000,437220,1000.00,12,0,1,292.548,-27.575,13.904,916.004,-1.213,1.106
1.530000,437221,1000.00,12,0,1,306.264,-12.710,13.978,916.749,-0.795,1.107
1.531000,437222,1000.00,12,0,1,331.461,12.082,13.604,916.797,-0.122,1.107
1.532000,437223,1000.00,12,0,1,327.618,11.492,13.701,916.100,-0.769,1.078
1.533000,437224,1000.00,12,0,1,312.773,-5.886,13.411,914.947,-1.560,1.100
1.534000,437225,1000.00,12,0,1,301.195,-15.199,13.419,914.563,-1.693,1.120
1.535000,437226,1000.00,12,0,1,299.682,-15.561,12.978,914.227,-1.624,1.128
1.536000,437227,1000.00,12,0,1,268.167,-34.847,13.825,917.109,0.800,1.126
1.537000,437228,1000.00,12,0,1,302.180,-13.809,13.862,920.784,4.263,1.277
1.538000,437229,1000.00,12,0,1,336.914,32.833,14.590,917.494,1.615,1.290
1.539000,437230,1000.00,12,0,1,319.067,12.036,14.668,917.373,-0.368,1.290
1.540000,437231,1000.00,12,0,1,293.797,-14.342,14.726,917.085,0.506,1.261
1.541000,437232,1000.00,12,0,1,276.214,-28.493,15.235,916.052,-1.336,1.248
1.542000,437233,1000.00,12,0,1,287.551,-19.469,15.456,917.494,0.153,1.248
1.543000,437234,1000.00,12,0,1,310.203,7.317,15.489,918.166,0.894,1.246
1.544000,437235,1000.00,12,0,1,311.740,8.534,15.535,918.070,0.521,1.201
1.545000,437236,1000.00,12,0,1,302.324,-0.876,15.401,918.382,0.729,1.154
1.546000,437237,1000.00,12,0,1,296.199,-8.075,15.110,918.142,0.410,1.122
1.547000,437238,1000.00,12,0,1,297.352,-5.754,14.973,917.349,-0.275,1.120
1.548000,437239,1000.00,12,0,1,307.969,3.611,14.189,917.782,-0.122,1.118
1.549000,437240,1000.00,12,0,1,314.815,11.650,14.262,919.343,1.422,1.131
1.550000,437241,1000.00,12,0,1,316.328,11.172,14.329,915.980,-1.001,1.140
1.551000,437242,1000.00,12,0,1,318.826,12.227,14.431,916.004,-2.028,1.174
1.552000,437243,1000.00,12,0,1,303.213,-0.074,14.410,915.476,-1.059,1.139
1.553000,437244,1000.00,12,0,1,302.636,-5.126,14.396,916.653,-0.784,1.120
1.554000,437245,1000.00,12,0,1,304.894,2.318,14.344,915.236,-0.715,1.117
1.555000,437246,1000.00,12,0,1,289.305,-10.566,14.344,914.971,-1.814,1.146
1.556000,437247,1000.00,12,0,1,284.597,-14.857,14.441,916.845,0.486,1.133
1.557000,437248,1000.00,12,0,1,295.622,-1.681,14.433,916.461,0.376,1.130
1.558000,437249,1000.00,12,0,1,291.419,-1.279,14.408,917.470,0.564,1.132
1.559000,437250,1000.00,12,0,1,295.911,-0.213,14.404,916.365,0.326,1.131
1.560000,437251,1000.00,12,0,1,312.365,15.727,14.571,917.277,-0.100,1.129
1.561000,437252,1000.00,12,0,1,325.840,25.424,14.995,918.671,1.881,1.157
1.562000,437253,1000.00,12,0,1,328.963,24.505,15.260,917.542,0.347,1.158
1.563000,437254,1000.00,12,0,1,325.216,15.908,14.872,915.764,-1.262,1.171
1.564000,437255,1000.00,12,0,1,304.966,-4.277,14.774,916.124,-1.184,1.183
1.565000,437256,1000.00,12,0,1,299.706,-14.314,14.907,915.164,-1.281,1.197
1.566000,437257,1000.00,12,0,1,301.724,-9.119,14.953,915.644,-1.166,1.201
1.567000,437258,1000.00,12,0,1,311.884,-1.673,14.766,916.821,0.533,1.202
1.568000,437259,1000.00,12,0,1,316.905,5.435,14.312,917.422,1.074,1.209
1.569000,437260,1000.00,12,0,1,291.203,-15.262,14.345,915.764,-0.088,1.208
1.570000,437261,1000.00,12,0,1,294.157,-18.195,14.574,915.644,-0.568,1.208
1.571000,437262,1000.00,12,0,1,318.106,10.305,14.628,915.932,0.213,1.202
1.572000,437263,1000.00,12,0,1,316.088,10.158,14.676,915.884,0.169,1.199
1.573000,437264,1000.00,12,0,1,319.067,8.592,14.636,913.746,-1.315,1.167
1.574000,437265,1000.00,12,0,1,282.363,-16.039,14.773,915.164,-0.604,1.153
1.575000,437266,1000.00,12,0,1,285.390,-24.404,14.946,916.172,1.192,1.157
1.576000,437267,1000.00,12,0,1,299.250,2.156,14.783,917.422,1.631,1.172
1.577000,437268,1000.00,12,0,1,297.208,-2.463,14.523,917.758,2.099,1.208
1.578000,437269,1000.00,12,0,1,290.266,-5.546,14.544,916.773,0.710,1.202
1.579000,437270,1000.00,12,0,1,280.393,-13.770,14.146,918.478,1.499,1.208
1.580000,437271,1000.00,12,0,1,271.338,-19.964,14.313,915.980,0.071,1.203
1.581000,437272,1000.00,12,0,1,288.104,-4.700,14.226,917.446,-0.422,1.204
1.582000,437273,1000.00,12,0,1,291.419,4.086,14.145,919.151,2.346,1.244
1.583000,437274,1000.00,12,0,1,307.056,12.167,14.225,917.373,-0.020,1.225
1.584000,437275,1000.00,12,0,1,319.787,25.535,14.518,916.917,-0.645,1.204
1.585000,437276,1000.00,12,0,1,312.605,15.129,14.509,915.500,-1.481,1.201
1.586000,437277,1000.00,12,0,1,312.533,9.108,13.707,914.923,-2.214,1.236
1.587000,437278,1000.00,12,0,1,319.427,14.612,13.723,916.389,-0.369,1.080
1.588000,437279,1000.00,12,0,1,310.972,5.551,12.938,918.190,1.339,1.072
1.589000,437280,1000.00,12,0,1,330.428,16.140,13.027,918.959,2.180,1.115
1.590000,437281,1000.00,12,0,1,315.007,10.067,12.946,917.638,0.823,1.118
1.591000,437282,1000.00,12,0,1,302.516,-11.272,12.406,917.542,0.270,1.103
1.592000,437283,1000.00,12,0,1,299.562,-7.448,12.142,918.334,1.059,1.113
1.593000,437284,1000.00,12,0,1,297.112,-9.985,12.180,916.821,-0.189,1.106
1.594000,437285,1000.00,12,0,1,305.495,-0.571,12.121,916.605,-0.930,1.111
1.595000,437286,1000.00,12,0,1,314.262,9.658,12.197,917.301,0.012,1.107
1.596000,437287,1000.00,12,0,1,297.544,-3.599,12.154,915.476,-1.453,1.124
1.597000,437288,1000.00,12,0,1,301.435,-4.964,12.147,916.245,-1.333,1.139
1.598000,437289,1000.00,12,0,1,311.164,7.639,12.184,917.301,0.262,1.140
1.599000,437290,1000.00,12,0,1,310.563,5.373,12.096,914.923,-1.807,1.150
1.600000,437291,1000.00,12,0,1,298.457,-6.069,12.023,915.284,-1.979,1.175
1.601000,437292,1000.00,12,0,1,282.243,-20.983,12.263,915.932,-0.584,1.143
1.602000,437293,1000.00,12,0,1,292.163,-14.555,12.434,916.821,-0.126,1.133
1.603000,437294,1000.00,12,0,1,320.268,13.401,12.557,916.701,0.266,1.128
1.604000,437295,1000.00,12,0,1,320.220,14.186,12.712,917.013,0.110,1.124
1.605000,437296,1000.00,12,0,1,339.028,20.764,12.961,916.845,0.341,1.095
1.606000,437297,1000.00,12,0,1,343.976,27.714,13.377,915.884,-0.609,1.097
1.607000,437298,1000.00,12,0,1,321.132,0.257,13.375,915.980,-0.496,1.098
1.608000,437299,1000.00,12,0,1,312.341,-11.805,13.477,917.662,1.137,1.106
1.609000,437300,1000.00,12,0,1,316.857,-6.071,13.504,918.575,2.087,1.144
1.610000,437301,1000.00,12,0,1,333.815,7.707,13.364,918.502,1.810,1.172
1.611000,437302,1000.00,12,0,1,304.318,-9.676,12.944,915.692,-0.572,1.145
1.612000,437303,1000.00,12,0,1,286.062,-34.291,13.381,913.890,-2.546,1.199
1.613000,437304,1000.00,12,0,1,309.146,-6.182,13.220,915.692,-0.700,1.190
1.614000,437305,1000.00,12,0,1,306.600,-0.930,13.207,916.725,0.843,1.184
1.615000,437306,1000.00,12,0,1,295.935,-12.306,13.166,917.061,0.817,1.176
1.616000,437307,1000.00,12,0,1,296.175,-8.479,13.158,917.085,0.904,1.171
1.617000,437308,1000.00,12,0,1,292.043,-9.623,13.226,915.884,-0.342,1.170
1.618000,437309,1000.00,12,0,1,277.151,-19.357,13.484,917.686,0.688,1.164
1.619000,437310,1000.00,12,0,1,286.543,-12.901,13.435,916.893,0.689,1.168
1.620000,437311,1000.00,12,0,1,310.083,12.591,13.306,914.131,-2.391,1.213
1.621000,437312,1000.00,12,0,1,331.485,28.655,13.833,913.650,-2.680,1.271
1.622000,437313,1000.00,12,0,1,311.884,12.493,13.871,915.524,-0.759,1.275
1.623000,437314,1000.00,12,0,1,293.196,-14.063,13.960,914.971,-0.527,1.263
1.624000,437315,1000.00,12,0,1,296.751,-9.568,13.841,914.827,-1.015,1.269
1.625000,437316,1000.00,12,0,1,311.596,3.170,13.411,916.845,1.018,1.266
1.626000,437317,1000.00,12,0,1,311.116,5.167,13.427,915.380,0.328,1.245
1.627000,437318,1000.00,12,0,1,304.366,-3.294,13.431,916.533,0.357,1.210
1.628000,437319,1000.00,12,0,1,300.282,-6.170,13.436,918.358,2.776,1.269
1.629000,437320,1000.00,12,0,1,326.009,14.125,13.444,917.470,1.566,1.270
1.630000,437321,1000.00,12,0,1,236.315,-44.394,14.566,916.485,0.453,1.272
1.631000,437322,1000.00,12,0,1,277.871,-38.937,15.558,915.476,-0.420,1.272
1.632000,437323,1000.00,12,0,1,303.525,27.873,16.039,916.533,0.238,1.228
1.633000,437324,1000.00,12,0,1,314.310,14.570,16.079,916.581,0.841,1.234
1.634000,437325,1000.00,12,0,1,316.689,30.943,16.268,915.572,-0.422,1.232
1.635000,437326,1000.00,12,0,1,321.685,23.116,16.455,916.677,0.442,1.216
1.636000,437327,1000.00,12,0,1,318.778,22.406,16.708,917.878,1.618,1.197
1.637000,437328,1000.00,12,0,1,302.132,4.687,16.593,917.301,0.932,1.203
